id,attr_time,attr_light
1,1436983160050,39.0
2,1436983160069,39.0
3,1436983160088,39.0
4,1436983160107,39.0
5,1436983160131,39.0
6,1436983160148,39.0
7,1436983160173,39.0
8,1436983160192,39.0
9,1436983160210,39.0
10,1436983160230,39.0
11,1436983160248,39.0
12,1436983160271,39.0
13,1436983160289,39.0
14,1436983160310,39.0
15,1436983160329,39.0
16,1436983160353,39.0
17,1436983160370,39.0
18,1436983160388,39.0
19,1436983160410,39.0
20,1436983160428,39.0
21,1436983160455,39.0
22,1436983160468,39.0
23,1436983160489,39.0
24,1436983160508,39.0
25,1436983160530,39.0
26,1436983160548,39.0
27,1436983160570,39.0
28,1436983160589,39.0
29,1436983160610,39.0
30,1436983160630,39.0
31,1436983160652,39.0
32,1436983160669,39.0
33,1436983160689,39.0
34,1436983160709,39.0
35,1436983160729,39.0
36,1436983160752,39.0
37,1436983160774,39.0
38,1436983160793,39.0
39,1436983160811,39.0
40,1436983160830,39.0
41,1436983160848,39.0
42,1436983160877,39.0
43,1436983160934,39.0
44,1436983160935,39.0
45,1436983160936,39.0
46,1436983160950,39.0
47,1436983160972,39.0
48,1436983160989,39.0
49,1436983161010,39.0
50,1436983161042,39.0
51,1436983161050,39.0
52,1436983161078,39.0
53,1436983161092,39.0
54,1436983161116,39.0
55,1436983161133,39.0
56,1436983161152,39.0
57,1436983161170,39.0
58,1436983161190,39.0
59,1436983161214,39.0
60,1436983161234,39.0
61,1436983161254,39.0
62,1436983161272,39.0
63,1436983161292,39.0
64,1436983161311,39.0
65,1436983161329,39.0
66,1436983161350,39.0
67,1436983161420,39.0
68,1436983161441,39.0
69,1436983161442,39.0
70,1436983161443,39.0
71,1436983161451,39.0
72,1436983161470,39.0
73,1436983161490,39.0
74,1436983161510,39.0
75,1436983161530,39.0
76,1436983161555,39.0
77,1436983161589,39.0
78,1436983161590,39.0
79,1436983161612,39.0
80,1436983161632,39.0
81,1436983161650,39.0
82,1436983161672,39.0
83,1436983161702,39.0
84,1436983161710,39.0
85,1436983161730,39.0
86,1436983161756,39.0
87,1436983161777,39.0
88,1436983161804,39.0
89,1436983161812,39.0
90,1436983161830,39.0
91,1436983161850,39.0
92,1436983161870,39.0
93,1436983161892,39.0
94,1436983161988,39.0
95,1436983161990,39.0
96,1436983161991,39.0
97,1436983161992,39.0
98,1436983161993,39.0
99,1436983162015,39.0
100,1436983162032,39.0
101,1436983162051,39.0
102,1436983162083,39.0
103,1436983162093,39.0
104,1436983162116,39.0
105,1436983162145,39.0
106,1436983162155,39.0
107,1436983162172,39.0
108,1436983162214,39.0
109,1436983162215,39.0
110,1436983162231,39.0
111,1436983162252,39.0
112,1436983162278,39.0
113,1436983162291,39.0
114,1436983162311,39.0
115,1436983162331,39.0
116,1436983162351,39.0
117,1436983162372,39.0
118,1436983162395,39.0
119,1436983162411,39.0
120,1436983162431,39.0
121,1436983162452,39.0
122,1436983162473,39.0
123,1436983162493,39.0
124,1436983162513,39.0
125,1436983162532,39.0
126,1436983162603,39.0
127,1436983162604,39.0
128,1436983162605,39.0
129,1436983162612,39.0
130,1436983162631,39.0
131,1436983162650,39.0
132,1436983162670,39.0
133,1436983162693,39.0
134,1436983162712,39.0
135,1436983162731,39.0
136,1436983162750,39.0
137,1436983162772,39.0
138,1436983162793,39.0
139,1436983162813,39.0
140,1436983162832,39.0
141,1436983162864,39.0
142,1436983162873,39.0
143,1436983162894,39.0
144,1436983162913,39.0
145,1436983162932,39.0
146,1436983162952,39.0
147,1436983162971,39.0
148,1436983162996,39.0
149,1436983163040,39.0
150,1436983163041,39.0
151,1436983163050,39.0
152,1436983163073,39.0
153,1436983163091,39.0
154,1436983163115,39.0
155,1436983163132,39.0
156,1436983163153,39.0
157,1436983163172,39.0
158,1436983163191,39.0
159,1436983163212,39.0
160,1436983163232,39.0
161,1436983163252,39.0
162,1436983163273,39.0
163,1436983163295,39.0
164,1436983163316,39.0
165,1436983163336,39.0
166,1436983163354,39.0
167,1436983163371,39.0
168,1436983163391,39.0
169,1436983163411,39.0
170,1436983163432,39.0
171,1436983163473,39.0
172,1436983163474,39.0
173,1436983163491,39.0
174,1436983163512,39.0
175,1436983163531,39.0
176,1436983163553,39.0
177,1436983163573,39.0
178,1436983163593,39.0
179,1436983163613,39.0
180,1436983163632,39.0
181,1436983163651,39.0
182,1436983163676,39.0
183,1436983163696,39.0
184,1436983163717,39.0
185,1436983163735,39.0
186,1436983163754,39.0
187,1436983163772,39.0
188,1436983163792,39.0
189,1436983163815,39.0
190,1436983163837,39.0
191,1436983163858,39.0
192,1436983163875,39.0
193,1436983163895,39.0
194,1436983163941,39.0
195,1436983163942,39.0
196,1436983163952,39.0
197,1436983163972,39.0
198,1436983163993,39.0
199,1436983164012,39.0
200,1436983164034,39.0
201,1436983164052,39.0
202,1436983164073,39.0
203,1436983164094,39.0
204,1436983164115,39.0
205,1436983164133,39.0
206,1436983164152,39.0
207,1436983164175,39.0
208,1436983164195,39.0
209,1436983164215,39.0
210,1436983164234,39.0
211,1436983164254,39.0
212,1436983164274,39.0
213,1436983164294,39.0
214,1436983164315,39.0
215,1436983164336,39.0
216,1436983164356,39.0
217,1436983164373,39.0
218,1436983164464,39.0
219,1436983164465,39.0
220,1436983164466,39.0
221,1436983164467,39.0
222,1436983164479,39.0
223,1436983164494,39.0
224,1436983164515,39.0
225,1436983164534,39.0
226,1436983164553,39.0
227,1436983164573,39.0
228,1436983164594,39.0
229,1436983164615,39.0
230,1436983164637,39.0
231,1436983164656,39.0
232,1436983164680,39.0
233,1436983164696,39.0
234,1436983164714,40.0
235,1436983164734,40.0
236,1436983164753,39.0
237,1436983164774,39.0
238,1436983164794,39.0
239,1436983164814,39.0
240,1436983164835,39.0
241,1436983164856,39.0
242,1436983164875,39.0
243,1436983164896,39.0
244,1436983164914,39.0
245,1436983164941,39.0
246,1436983165016,40.0
247,1436983165017,40.0
248,1436983165018,40.0
249,1436983165019,40.0
250,1436983165033,40.0
251,1436983165054,40.0
252,1436983165075,40.0
253,1436983165093,40.0
254,1436983165115,40.0
255,1436983165134,40.0
256,1436983165188,40.0
257,1436983165189,40.0
258,1436983165198,40.0
259,1436983165248,39.0
260,1436983165249,39.0
261,1436983165253,40.0
262,1436983165275,40.0
263,1436983165294,39.0
264,1436983165313,39.0
265,1436983165333,39.0
266,1436983165363,39.0
267,1436983165376,40.0
268,1436983165401,39.0
269,1436983165418,39.0
270,1436983165435,39.0
271,1436983165455,39.0
272,1436983165476,40.0
273,1436983165496,40.0
274,1436983165589,39.0
275,1436983165590,39.0
276,1436983165591,40.0
277,1436983165592,40.0
278,1436983165606,40.0
279,1436983165615,40.0
280,1436983165634,40.0
281,1436983165654,40.0
282,1436983165674,40.0
283,1436983165694,40.0
284,1436983165723,40.0
285,1436983165736,40.0
286,1436983165757,40.0
287,1436983165780,40.0
288,1436983165796,40.0
289,1436983165816,40.0
290,1436983165837,40.0
291,1436983165855,40.0
292,1436983165878,40.0
293,1436983165897,40.0
294,1436983165916,40.0
295,1436983165935,40.0
296,1436983165955,40.0
297,1436983165977,40.0
298,1436983165999,40.0
299,1436983166019,40.0
300,1436983166036,40.0
301,1436983166126,40.0
302,1436983166127,40.0
303,1436983166128,40.0
304,1436983166129,40.0
305,1436983166146,40.0
306,1436983166155,40.0
307,1436983166175,40.0
308,1436983166195,40.0
309,1436983166215,40.0
310,1436983166265,40.0
311,1436983166266,40.0
312,1436983166275,40.0
313,1436983166295,40.0
314,1436983166320,40.0
315,1436983166336,40.0
316,1436983166355,40.0
317,1436983166375,40.0
318,1436983166399,40.0
319,1436983166415,40.0
320,1436983166437,40.0
321,1436983166455,40.0
322,1436983166502,40.0
323,1436983166503,40.0
324,1436983166515,40.0
325,1436983166535,40.0
326,1436983166555,40.0
327,1436983166578,40.0
328,1436983166593,40.0
329,1436983166615,40.0
330,1436983166640,40.0
331,1436983166653,40.0
332,1436983166675,40.0
333,1436983166694,40.0
334,1436983166714,40.0
335,1436983166734,40.0
336,1436983166754,40.0
337,1436983166775,40.0
338,1436983166794,40.0
339,1436983166814,40.0
340,1436983166834,40.0
341,1436983166854,40.0
342,1436983166875,40.0
343,1436983166894,40.0
344,1436983166914,40.0
345,1436983166935,40.0
346,1436983166954,40.0
347,1436983166974,40.0
348,1436983167012,40.0
349,1436983167014,40.0
350,1436983167034,40.0
351,1436983167056,40.0
352,1436983167074,40.0
353,1436983167095,40.0
354,1436983167116,40.0
355,1436983167135,40.0
356,1436983167155,40.0
357,1436983167175,40.0
358,1436983167194,40.0
359,1436983167215,40.0
360,1436983167236,40.0
361,1436983167257,40.0
362,1436983167276,40.0
363,1436983167294,40.0
364,1436983167315,40.0
365,1436983167335,40.0
366,1436983167355,40.0
367,1436983167376,40.0
368,1436983167417,40.0
369,1436983167418,40.0
370,1436983167435,40.0
371,1436983167455,40.0
372,1436983167475,40.0
373,1436983167496,40.0
374,1436983167515,40.0
375,1436983167537,40.0
376,1436983167555,39.0
377,1436983167576,39.0
378,1436983167596,39.0
379,1436983167617,39.0
380,1436983167639,39.0
381,1436983167659,39.0
382,1436983167676,39.0
383,1436983167702,39.0
384,1436983167717,39.0
385,1436983167737,39.0
386,1436983167757,39.0
387,1436983167776,39.0
388,1436983167796,39.0
389,1436983167816,39.0
390,1436983167837,39.0
391,1436983167862,39.0
392,1436983168018,39.0
393,1436983168019,39.0
394,1436983168020,39.0
395,1436983168021,39.0
396,1436983168022,39.0
397,1436983168023,39.0
398,1436983168024,39.0
399,1436983168025,39.0
400,1436983168037,39.0
401,1436983168056,39.0
402,1436983168076,39.0
403,1436983168096,39.0
404,1436983168116,39.0
405,1436983168140,39.0
406,1436983168199,39.0
407,1436983168200,39.0
408,1436983168201,39.0
409,1436983168217,39.0
410,1436983168236,39.0
411,1436983168256,40.0
412,1436983168276,40.0
413,1436983168296,40.0
414,1436983168316,40.0
415,1436983168337,40.0
416,1436983168358,40.0
417,1436983168377,40.0
418,1436983168396,40.0
419,1436983168417,40.0
420,1436983168437,40.0
421,1436983168457,40.0
422,1436983168477,40.0
423,1436983168498,40.0
424,1436983168517,40.0
425,1436983168537,40.0
426,1436983168578,40.0
427,1436983168579,40.0
428,1436983168596,40.0
429,1436983168615,40.0
430,1436983168635,40.0
431,1436983168655,40.0
432,1436983168676,40.0
433,1436983168697,40.0
434,1436983168718,40.0
435,1436983168736,40.0
436,1436983168756,40.0
437,1436983168776,40.0
438,1436983168798,40.0
439,1436983168818,40.0
440,1436983168838,40.0
441,1436983168856,40.0
442,1436983168876,40.0
443,1436983168897,40.0
444,1436983168916,40.0
445,1436983168940,40.0
446,1436983168956,40.0
447,1436983168978,40.0
448,1436983168997,40.0
449,1436983169016,40.0
450,1436983169036,40.0
451,1436983169058,40.0
452,1436983169077,40.0
453,1436983169098,40.0
454,1436983169117,40.0
455,1436983169138,40.0
456,1436983169158,40.0
457,1436983169176,40.0
458,1436983169199,40.0
459,1436983169219,40.0
460,1436983169237,40.0
461,1436983169257,40.0
462,1436983169276,40.0
463,1436983169299,40.0
464,1436983169317,40.0
465,1436983169338,40.0
466,1436983169358,40.0
467,1436983169378,40.0
468,1436983169422,40.0
469,1436983169423,40.0
470,1436983169437,40.0
471,1436983169457,40.0
472,1436983169479,40.0
473,1436983169496,40.0
474,1436983169519,40.0
475,1436983169537,40.0
476,1436983169557,40.0
477,1436983169577,40.0
478,1436983169600,40.0
479,1436983169620,40.0
480,1436983169638,40.0
481,1436983169658,40.0
482,1436983169678,40.0
483,1436983169698,40.0
484,1436983169718,40.0
485,1436983169738,40.0
486,1436983169759,40.0
487,1436983169780,40.0
488,1436983169840,40.0
489,1436983169841,40.0
490,1436983169842,40.0
491,1436983169858,40.0
492,1436983169879,40.0
493,1436983169898,40.0
494,1436983169918,40.0
495,1436983169938,40.0
496,1436983169960,40.0
497,1436983170066,40.0
498,1436983170074,40.0
499,1436983170076,40.0
500,1436983170077,40.0
501,1436983170088,40.0
502,1436983170089,40.0
503,1436983170111,40.0
504,1436983170118,40.0
505,1436983170142,40.0
506,1436983170158,40.0
507,1436983170178,40.0
508,1436983170200,40.0
509,1436983170225,40.0
510,1436983170240,40.0
511,1436983170258,40.0
512,1436983170279,40.0
513,1436983170301,40.0
514,1436983170321,40.0
515,1436983170339,40.0
516,1436983170430,40.0
517,1436983170431,40.0
518,1436983170432,40.0
519,1436983170433,40.0
520,1436983170463,40.0
521,1436983170464,40.0
522,1436983170482,40.0
523,1436983170500,40.0
524,1436983170519,40.0
525,1436983170540,40.0
526,1436983170559,40.0
527,1436983170587,40.0
528,1436983170600,40.0
529,1436983171976,40.0
530,1436983171977,40.0
531,1436983171978,40.0
532,1436983171979,40.0
533,1436983171980,40.0
534,1436983171981,40.0
535,1436983171982,40.0
536,1436983171983,40.0
537,1436983171984,40.0
538,1436983171985,40.0
539,1436983171986,40.0
540,1436983171987,40.0
541,1436983171988,40.0
542,1436983171989,40.0
543,1436983171990,40.0
544,1436983171991,40.0
545,1436983171992,40.0
546,1436983171993,40.0
547,1436983171994,40.0
548,1436983171995,40.0
549,1436983171996,40.0
550,1436983171997,40.0
551,1436983171998,40.0
552,1436983171999,40.0
553,1436983172000,40.0
554,1436983172001,40.0
555,1436983172002,40.0
556,1436983172003,40.0
557,1436983172004,40.0
558,1436983172005,40.0
559,1436983172006,40.0
560,1436983172007,40.0
561,1436983172008,40.0
562,1436983172009,40.0
563,1436983172010,40.0
564,1436983172011,40.0
565,1436983172012,40.0
566,1436983172013,40.0
567,1436983172014,40.0
568,1436983172015,40.0
569,1436983172016,40.0
570,1436983172017,40.0
571,1436983172018,40.0
572,1436983172019,40.0
573,1436983172020,41.0
574,1436983172021,41.0
575,1436983172022,40.0
576,1436983172023,40.0
577,1436983172024,40.0
578,1436983172025,40.0
579,1436983172026,40.0
580,1436983172027,40.0
581,1436983172028,40.0
582,1436983172029,40.0
583,1436983172030,40.0
584,1436983172031,40.0
585,1436983172032,40.0
586,1436983172033,40.0
587,1436983172034,40.0
588,1436983172035,40.0
589,1436983172036,40.0
590,1436983172037,40.0
591,1436983172038,40.0
592,1436983172039,40.0
593,1436983172040,40.0
594,1436983172041,40.0
595,1436983172042,40.0
596,1436983172043,40.0
597,1436983172044,40.0
598,1436983172045,40.0
599,1436983172046,40.0
600,1436983172047,40.0
601,1436983172059,40.0
602,1436983172079,40.0
603,1436983172099,40.0
604,1436983172119,40.0
605,1436983172139,40.0
606,1436983172159,40.0
607,1436983172179,40.0
608,1436983172199,40.0
609,1436983172219,40.0
610,1436983172241,40.0
611,1436983172262,40.0
612,1436983172281,40.0
613,1436983172304,40.0
614,1436983172347,40.0
615,1436983172348,40.0
616,1436983172360,40.0
617,1436983172379,40.0
618,1436983172401,40.0
619,1436983172422,40.0
620,1436983172440,40.0
621,1436983172461,40.0
622,1436983172481,40.0
623,1436983172502,40.0
624,1436983172522,40.0
625,1436983172540,40.0
626,1436983172561,40.0
627,1436983172583,40.0
628,1436983172602,40.0
629,1436983172620,40.0
630,1436983172640,40.0
631,1436983172667,40.0
632,1436983172687,40.0
633,1436983172708,40.0
634,1436983172725,40.0
635,1436983172813,40.0
636,1436983172814,40.0
637,1436983172815,40.0
638,1436983172816,40.0
639,1436983172822,40.0
640,1436983172841,40.0
641,1436983172861,40.0
642,1436983172884,40.0
643,1436983172902,40.0
644,1436983172922,40.0
645,1436983172941,40.0
646,1436983173008,40.0
647,1436983173009,40.0
648,1436983173010,40.0
649,1436983173087,40.0
650,1436983173088,40.0
651,1436983173089,40.0
652,1436983173090,40.0
653,1436983173100,40.0
654,1436983173130,40.0
655,1436983173140,40.0
656,1436983173190,40.0
657,1436983173191,39.0
658,1436983173200,39.0
659,1436983173223,39.0
660,1436983173243,39.0
661,1436983173262,39.0
662,1436983173281,39.0
663,1436983173301,39.0
664,1436983173324,39.0
665,1436983173345,39.0
666,1436983173362,39.0
667,1436983173383,39.0
668,1436983173420,39.0
669,1436983173425,39.0
670,1436983173442,39.0
671,1436983173460,39.0
672,1436983173482,39.0
673,1436983173501,39.0
674,1436983173522,39.0
675,1436983173542,40.0
676,1436983173562,40.0
677,1436983173584,40.0
678,1436983173606,40.0
679,1436983173652,40.0
680,1436983173653,40.0
681,1436983173663,40.0
682,1436983173683,40.0
683,1436983173703,40.0
684,1436983173722,40.0
685,1436983173745,40.0
686,1436983173766,40.0
687,1436983173786,40.0
688,1436983173803,40.0
689,1436983173867,40.0
690,1436983173868,40.0
691,1436983173869,40.0
692,1436983173885,40.0
693,1436983173901,40.0
694,1436983173922,40.0
695,1436983173941,40.0
696,1436983173962,40.0
697,1436983173984,40.0
698,1436983174001,40.0
699,1436983174022,40.0
700,1436983174043,40.0
701,1436983174063,39.0
702,1436983174084,39.0
703,1436983174105,39.0
704,1436983174124,39.0
705,1436983174144,39.0
706,1436983174163,39.0
707,1436983174183,39.0
708,1436983174204,39.0
709,1436983174224,39.0
710,1436983174242,39.0
711,1436983174263,39.0
712,1436983174296,39.0
713,1436983174311,39.0
714,1436983174323,39.0
715,1436983174342,39.0
716,1436983174362,39.0
717,1436983174382,39.0
718,1436983174404,39.0
719,1436983174422,39.0
720,1436983174443,39.0
721,1436983174462,39.0
722,1436983174482,39.0
723,1436983174505,39.0
724,1436983174525,39.0
725,1436983174544,39.0
726,1436983174562,39.0
727,1436983174584,39.0
728,1436983174606,39.0
729,1436983174626,39.0
730,1436983174648,39.0
731,1436983174666,39.0
732,1436983174688,39.0
733,1436983174705,39.0
734,1436983174724,39.0
735,1436983174752,39.0
736,1436983174813,39.0
737,1436983174814,39.0
738,1436983174815,39.0
739,1436983174837,39.0
740,1436983174842,39.0
741,1436983174863,39.0
742,1436983174883,39.0
743,1436983174903,39.0
744,1436983174924,39.0
745,1436983174947,39.0
746,1436983174984,39.0
747,1436983174985,39.0
748,1436983175009,39.0
749,1436983175027,39.0
750,1436983175044,39.0
751,1436983175065,39.0
752,1436983175086,39.0
753,1436983175107,39.0
754,1436983175140,39.0
755,1436983175143,39.0
756,1436983175163,39.0
757,1436983175184,39.0
758,1436983175209,39.0
759,1436983175227,39.0
760,1436983175247,39.0
761,1436983175267,39.0
762,1436983175285,39.0
763,1436983175304,39.0
764,1436983175374,39.0
765,1436983175375,39.0
766,1436983175376,39.0
767,1436983175383,39.0
768,1436983175405,39.0
769,1436983175424,39.0
770,1436983175445,39.0
771,1436983175465,39.0
772,1436983175484,39.0
773,1436983175504,39.0
774,1436983175526,39.0
775,1436983175548,39.0
776,1436983175565,39.0
777,1436983175588,39.0
778,1436983175604,39.0
779,1436983175624,39.0
780,1436983175645,39.0
781,1436983175665,39.0
782,1436983175687,39.0
783,1436983175704,39.0
784,1436983175724,39.0
785,1436983175748,39.0
786,1436983175769,39.0
787,1436983175785,39.0
788,1436983175804,39.0
789,1436983175824,39.0
790,1436983175849,38.0
791,1436983175927,38.0
792,1436983175928,38.0
793,1436983175929,38.0
794,1436983175930,39.0
795,1436983175945,39.0
796,1436983175964,39.0
797,1436983175984,39.0
798,1436983176005,39.0
799,1436983176029,39.0
800,1436983176063,39.0
801,1436983176064,39.0
802,1436983176085,39.0
803,1436983176105,39.0
804,1436983176128,39.0
805,1436983176144,39.0
806,1436983176166,39.0
807,1436983176190,39.0
808,1436983176210,39.0
809,1436983176227,39.0
810,1436983176245,39.0
811,1436983176264,39.0
812,1436983176287,39.0
813,1436983176305,39.0
814,1436983176324,39.0
815,1436983176345,39.0
816,1436983176365,39.0
817,1436983176385,39.0
818,1436983177958,39.0
819,1436983177959,39.0
820,1436983177960,39.0
821,1436983177961,39.0
822,1436983177962,39.0
823,1436983177963,39.0
824,1436983177964,39.0
825,1436983177965,39.0
826,1436983177966,39.0
827,1436983177967,39.0
828,1436983177968,39.0
829,1436983177969,39.0
830,1436983177970,39.0
831,1436983177971,39.0
832,1436983177972,39.0
833,1436983177973,39.0
834,1436983177974,39.0
835,1436983177975,39.0
836,1436983177976,39.0
837,1436983177977,39.0
838,1436983177978,39.0
839,1436983177979,39.0
840,1436983177980,39.0
841,1436983177981,39.0
842,1436983177982,39.0
843,1436983177983,39.0
844,1436983177984,39.0
845,1436983177985,39.0
846,1436983177986,39.0
847,1436983177987,39.0
848,1436983177988,39.0
849,1436983177989,39.0
850,1436983177990,40.0
851,1436983177991,40.0
852,1436983177992,39.0
853,1436983177993,39.0
854,1436983177994,39.0
855,1436983177995,39.0
856,1436983177996,39.0
857,1436983177997,39.0
858,1436983177998,39.0
859,1436983177999,39.0
860,1436983178000,39.0
861,1436983178001,39.0
862,1436983178002,39.0
863,1436983178003,39.0
864,1436983178004,39.0
865,1436983178005,40.0
866,1436983178006,40.0
867,1436983178007,39.0
868,1436983178008,39.0
869,1436983178009,40.0
870,1436983178010,40.0
871,1436983178011,40.0
872,1436983178012,40.0
873,1436983178013,40.0
