id,attr_time,attr_x,attr_y,attr_z
1,1436295094026,41.9678,3.31116,-17.5369
2,1436295094044,41.4429,4.89349,-18.042
3,1436295094067,42.6681,4.01459,-18.8828
4,1436295094085,42.6681,4.01459,-18.8828
5,1436295094104,40.567,2.96021,-18.2098
6,1436295094125,40.3915,2.7832,-18.7134
7,1436295094143,40.3915,2.7832,-18.7134
8,1436295094166,40.2161,3.66211,-18.5455
9,1436295094182,41.2674,3.31116,-18.8828
10,1436295094203,41.2674,3.31116,-18.8828
11,1436295094223,41.2674,4.01459,-18.5455
12,1436295094243,40.9164,4.01459,-17.8726
13,1436295094263,40.9164,4.01459,-17.8726
14,1436295094282,41.2674,3.31116,-18.8828
15,1436295094302,41.6183,2.60773,-17.8726
16,1436295094322,41.6183,2.60773,-17.8726
17,1436295094341,42.1433,4.89349,-17.3691
18,1436295094362,40.567,2.60773,-19.2184
19,1436295094380,40.567,2.60773,-19.2184
20,1436295094400,41.7923,3.83911,-17.7048
21,1436295094421,41.9678,2.96021,-19.2184
22,1436295094440,41.9678,2.96021,-19.2184
23,1436295094460,41.0919,3.83911,-19.0506
24,1436295094480,41.2674,3.66211,-19.2184
25,1436295094497,41.2674,3.66211,-19.2184
26,1436295094519,41.9678,3.31116,-19.5541
27,1436295094538,41.6183,3.66211,-17.8726
28,1436295094559,41.6183,3.66211,-17.8726
29,1436295094578,40.9164,4.01459,-17.8726
30,1436295094599,40.567,3.66211,-19.2184
31,1436295094618,40.567,3.66211,-19.2184
32,1436295094638,41.4429,4.19006,-18.7134
33,1436295094658,40.0406,2.43225,-18.7134
34,1436295094675,40.0406,2.43225,-18.7134
35,1436295094698,40.9164,4.36554,-19.5541
36,1436295094715,41.6183,3.31116,-19.2184
37,1436295094737,41.6183,3.31116,-19.2184
38,1436295094756,41.2674,5.06897,-18.2098
39,1436295094776,41.4429,3.83911,-18.7134
40,1436295094796,41.4429,3.83911,-18.7134
41,1436295094814,41.7923,3.13568,-18.042
42,1436295094838,41.6183,2.96021,-19.2184
43,1436295094855,41.6183,2.96021,-19.2184
44,1436295094875,42.1433,2.7832,-18.042
45,1436295094896,41.0919,3.48663,-18.042
46,1436295094914,41.0919,3.48663,-18.042
47,1436295094937,41.7923,3.48663,-17.7048
48,1436295094954,41.0919,2.7832,-18.3777
49,1436295094973,41.0919,2.7832,-18.3777
50,1436295094993,41.9678,2.60773,-20.5643
51,1436295095013,40.567,3.66211,-17.8726
52,1436295095034,40.567,3.66211,-17.8726
53,1436295095052,40.567,4.01459,-18.8828
54,1436295095073,41.6183,2.96021,-18.5455
55,1436295095092,41.6183,2.96021,-18.5455
56,1436295095112,42.6681,4.71802,-19.2184
57,1436295095135,40.567,3.66211,-19.2184
58,1436295095151,40.567,3.66211,-19.2184
59,1436295095171,42.4942,3.13568,-19.0506
60,1436295095192,41.6183,1.9043,-17.8726
61,1436295095210,41.6183,1.9043,-17.8726
62,1436295095233,41.9678,2.60773,-18.5455
63,1436295095250,41.7923,2.7832,-19.0506
64,1436295095270,41.7923,2.7832,-19.0506
65,1436295095290,41.6183,2.96021,-19.2184
66,1436295095309,41.2674,2.25678,-18.8828
67,1436295095332,41.2674,2.25678,-18.8828
68,1436295095348,41.4429,2.0813,-18.3777
69,1436295095369,41.4429,4.54102,-16.6962
70,1436295095388,41.4429,4.54102,-16.6962
71,1436295095408,41.2674,4.01459,-18.5455
72,1436295095429,40.7425,2.7832,-17.7048
73,1436295095448,40.7425,2.7832,-17.7048
74,1436295095467,41.0919,4.19006,-18.042
75,1436295095488,40.567,4.36554,-18.8828
76,1436295095507,40.567,4.36554,-18.8828
77,1436295095528,40.9164,1.9043,-18.8828
78,1436295095547,40.2161,3.66211,-18.2098
79,1436295095569,40.2161,3.66211,-18.2098
80,1436295095586,41.6183,2.25678,-17.5369
81,1436295095609,40.2161,2.60773,-17.8726
82,1436295095624,40.2161,2.60773,-17.8726
83,1436295095645,41.6183,4.01459,-17.1997
84,1436295095665,41.7923,3.48663,-18.042
85,1436295095685,41.7923,3.48663,-18.042
86,1436295095707,40.2161,3.66211,-19.5541
87,1436295095724,39.6912,4.19006,-19.0506
88,1436295095744,39.6912,4.19006,-19.0506
89,1436295095764,40.7425,2.7832,-18.042
90,1436295095784,41.7923,2.7832,-17.7048
91,1436295095804,41.7923,2.7832,-17.7048
92,1436295095823,39.8651,4.36554,-18.8828
93,1436295095842,39.1647,5.7724,-20.5643
94,1436295095863,39.1647,5.7724,-20.5643
95,1436295095882,39.1647,9.63898,-21.9086
96,1436295095905,39.3402,8.05664,-24.4308
97,1436295095922,39.3402,8.05664,-24.4308
98,1436295095942,37.764,11.3968,-23.9273
99,1436295095962,35.4858,11.5723,-24.4308
100,1436295095981,35.4858,11.5723,-24.4308
101,1436295096003,35.8368,14.7369,-25.441
102,1436295096021,36.1862,15.4404,-26.1124
103,1436295096040,36.1862,15.4404,-26.1124
104,1436295096060,34.4345,17.1982,-26.7853
105,1436295096080,35.3104,17.0227,-24.263
106,1436295096102,35.3104,17.0227,-24.263
107,1436295096119,34.4345,18.2526,-23.4222
108,1436295096140,35.4858,18.6035,-23.0865
109,1436295096158,35.4858,18.6035,-23.0865
110,1436295096179,36.5372,18.2526,-23.7595
111,1436295096199,36.0107,17.3737,-24.9359
112,1436295096218,36.0107,17.3737,-24.9359
113,1436295096238,34.9609,18.7805,-24.6002
114,1436295096259,37.2375,18.956,-25.1038
115,1436295096278,37.2375,18.956,-25.1038
116,1436295096294,36.8881,19.6594,-24.4308
117,1436295096315,35.3104,18.0771,-23.5901
118,1436295096335,35.3104,18.0771,-23.5901
119,1436295096355,36.0107,20.8893,-23.5901
120,1436295096374,34.0851,20.0104,-24.0952
121,1436295096394,34.0851,20.0104,-24.0952
122,1436295096413,33.9096,22.2961,-23.5901
123,1436295096434,35.3104,25.1083,-21.9086
124,1436295096454,35.3104,25.1083,-21.9086
125,1436295096473,31.9824,24.2294,-21.7407
126,1436295096494,32.1579,24.4049,-22.9187
127,1436295096515,32.1579,24.4049,-22.9187
128,1436295096534,30.0552,24.7559,-24.9359
129,1436295096555,28.653,25.4593,-24.263
130,1436295096574,28.653,25.4593,-24.263
131,1436295096596,29.8798,26.3382,-24.4308
132,1436295096614,31.6315,23.526,-22.0764
133,1436295096633,31.6315,23.526,-22.0764
134,1436295096652,32.6828,23.526,-23.0865
135,1436295096673,32.5073,23.7015,-23.2544
136,1436295096693,32.5073,23.7015,-23.2544
137,1436295096712,33.2077,21.9437,-22.9187
138,1436295096735,33.7341,22.1191,-23.0865
139,1436295096752,33.7341,22.1191,-23.0865
140,1436295096772,34.7855,21.7682,-22.4136
141,1436295096792,34.4345,22.1191,-25.441
142,1436295096811,34.4345,22.1191,-25.441
143,1436295096831,34.9609,22.6471,-23.9273
144,1436295096851,33.7341,20.3613,-24.0952
145,1436295096870,33.7341,20.3613,-24.0952
146,1436295096891,34.4345,22.8226,-23.7595
147,1436295096910,34.0851,23.526,-22.0764
148,1436295096929,34.0851,23.526,-22.0764
149,1436295096949,33.5587,20.8893,-23.9273
150,1436295096969,34.0851,22.4716,-25.1038
151,1436295096990,34.0851,22.4716,-25.1038
152,1436295097009,34.259,22.2961,-23.5901
153,1436295097029,33.9096,22.998,-25.2716
154,1436295097047,33.9096,22.998,-25.2716
155,1436295097068,33.3832,23.526,-23.4222
156,1436295097089,34.4345,22.8226,-21.7407
157,1436295097107,34.4345,22.8226,-21.7407
158,1436295097130,34.9609,22.2961,-20.5643
159,1436295097147,34.4345,22.4716,-22.0764
160,1436295097167,34.4345,22.4716,-22.0764
161,1436295097187,34.7855,19.6594,-24.0952
162,1436295097207,34.9609,19.4824,-23.2544
163,1436295097229,34.9609,19.4824,-23.2544
164,1436295097244,36.0107,18.7805,-23.5901
165,1436295097266,36.1862,20.0104,-21.0678
166,1436295097285,36.1862,20.0104,-21.0678
167,1436295097305,35.1349,22.1191,-23.0865
168,1436295097328,34.9609,21.2402,-22.2458
169,1436295097344,34.9609,21.2402,-22.2458
170,1436295097364,34.4345,21.7682,-24.4308
171,1436295097384,33.9096,21.2402,-23.9273
172,1436295097404,33.9096,21.2402,-23.9273
173,1436295097422,34.61,22.6471,-24.6002
174,1436295097444,34.259,21.5927,-23.9273
175,1436295097462,34.259,21.5927,-23.9273
176,1436295097483,34.259,22.6471,-24.6002
177,1436295097503,34.9609,22.2961,-22.5815
178,1436295097523,34.9609,22.2961,-22.5815
179,1436295097542,35.1349,22.1191,-24.0952
180,1436295097561,35.6613,19.8349,-25.6088
181,1436295097582,35.6613,19.8349,-25.6088
182,1436295097601,34.4345,20.7138,-25.1038
183,1436295097624,34.9609,19.4824,-24.9359
184,1436295097641,34.9609,19.4824,-24.9359
185,1436295097660,36.1862,18.2526,-22.4136
186,1436295097681,36.0107,18.0771,-24.263
187,1436295097700,36.0107,18.0771,-24.263
188,1436295097720,36.7126,18.428,-23.9273
189,1436295097738,36.3617,18.0771,-23.2544
190,1436295097762,36.3617,18.0771,-23.2544
191,1436295097778,35.6613,15.6158,-24.263
192,1436295097799,35.1349,16.4948,-23.4222
193,1436295097820,35.1349,16.4948,-23.4222
194,1436295097839,36.8881,15.4404,-24.4308
195,1436295097859,36.0107,17.3737,-23.9273
196,1436295097878,36.0107,17.3737,-23.9273
197,1436295097898,36.7126,16.3193,-24.263
198,1436295097918,36.1862,16.1438,-25.441
199,1436295097937,36.1862,16.1438,-25.441
200,1436295097959,35.6613,18.0771,-25.9445
201,1436295097977,34.4345,20.0104,-25.1038
202,1436295097997,34.4345,20.0104,-25.1038
203,1436295098017,34.9609,20.5383,-25.9445
204,1436295098036,34.9609,19.8349,-25.9445
205,1436295098054,34.9609,19.8349,-25.9445
206,1436295098076,33.3832,20.3613,-26.7853
207,1436295098095,33.3832,18.6035,-28.4668
208,1436295098116,33.3832,18.6035,-28.4668
209,1436295098135,34.0851,20.7138,-26.7853
210,1436295098158,33.5587,20.8893,-27.9633
211,1436295098175,33.5587,20.8893,-27.9633
212,1436295098194,34.4345,20.0104,-26.1124
213,1436295098215,34.4345,18.956,-23.7595
214,1436295098233,34.4345,18.956,-23.7595
215,1436295098256,34.4345,17.5491,-25.1038
216,1436295098273,34.4345,16.1438,-25.1038
217,1436295098293,34.4345,16.1438,-25.1038
218,1436295098313,36.0107,17.3737,-24.9359
219,1436295098333,35.6613,16.3193,-24.263
220,1436295098355,35.6613,16.3193,-24.263
221,1436295098370,36.0107,16.3193,-25.9445
222,1436295098392,35.4858,16.4948,-24.4308
223,1436295098411,35.4858,16.4948,-24.4308
224,1436295098431,36.0107,14.9124,-25.2716
225,1436295098454,35.6613,14.5615,-25.6088
226,1436295098471,35.6613,14.5615,-25.6088
227,1436295098491,35.8368,17.1982,-27.1225
228,1436295098511,34.259,17.0227,-26.6174
229,1436295098530,34.259,17.0227,-26.6174
230,1436295098549,34.61,18.0771,-27.9633
231,1436295098570,31.6315,19.3069,-27.1225
232,1436295098588,31.6315,19.3069,-27.1225
233,1436295098610,34.259,21.2402,-26.9547
234,1436295098629,33.2077,17.7246,-27.2903
235,1436295098649,33.2077,17.7246,-27.2903
236,1436295098669,34.7855,17.5491,-28.804
237,1436295098687,32.1579,18.0771,-27.2903
238,1436295098707,32.1579,18.0771,-27.2903
239,1436295098727,33.7341,20.0104,-26.4496
240,1436295098748,33.9096,17.7246,-23.9273
241,1436295098767,33.9096,17.7246,-23.9273
242,1436295098790,35.4858,16.8457,-26.1124
243,1436295098807,36.1862,15.4404,-25.1038
244,1436295098826,36.1862,15.4404,-25.1038
245,1436295098847,35.4858,14.7369,-24.7681
246,1436295098865,36.7126,14.9124,-23.5901
247,1436295098888,36.7126,14.9124,-23.5901
248,1436295098905,37.413,17.0227,-24.6002
249,1436295098926,35.4858,17.9016,-23.7595
250,1436295098946,35.4858,17.9016,-23.7595
251,1436295098965,37.2375,15.0879,-25.7767
252,1436295098988,34.61,15.2649,-24.6002
253,1436295099004,34.61,15.2649,-24.6002
254,1436295099024,35.3104,16.6702,-25.2716
255,1436295099044,36.0107,16.3193,-27.626
256,1436295099064,36.0107,16.3193,-27.626
257,1436295099085,35.1349,17.9016,-28.1311
258,1436295099104,33.5587,18.428,-28.6362
259,1436295099123,33.5587,18.428,-28.6362
260,1436295099143,33.3832,18.6035,-28.1311
261,1436295099163,33.9096,18.0771,-27.2903
262,1436295099181,33.9096,18.0771,-27.2903
263,1436295099202,33.0338,17.9016,-27.4582
264,1436295099221,34.7855,17.1982,-28.4668
265,1436295099242,34.7855,17.1982,-28.4668
266,1436295099261,35.1349,17.5491,-28.804
267,1436295099282,35.1349,15.0879,-27.4582
268,1436295099301,35.1349,15.0879,-27.4582
269,1436295099320,34.9609,17.0227,-26.6174
270,1436295099341,34.259,18.7805,-25.9445
271,1436295099358,34.259,18.7805,-25.9445
272,1436295099380,35.8368,19.3069,-25.1038
273,1436295099399,34.259,18.428,-25.2716
274,1436295099419,34.259,18.428,-25.2716
275,1436295099438,34.61,18.7805,-23.5901
276,1436295099459,35.1349,18.2526,-24.7681
277,1436295099479,35.1349,18.2526,-24.7681
278,1436295099497,36.1862,16.4948,-24.7681
279,1436295099518,33.2077,16.3193,-23.5901
280,1436295099538,33.2077,16.3193,-23.5901
281,1436295099558,34.7855,15.7913,-25.1038
282,1436295099580,33.5587,14.5615,-28.6362
283,1436295099597,33.5587,14.5615,-28.6362
284,1436295099617,34.9609,17.0227,-27.9633
285,1436295099638,32.5073,20.8893,-27.9633
286,1436295099656,32.5073,20.8893,-27.9633
287,1436295099677,33.2077,21.5927,-28.6362
288,1436295099696,30.7556,24.4049,-28.299
289,1436295099714,30.7556,24.4049,-28.299
290,1436295099736,31.456,25.4593,-25.2716
291,1436295099755,32.1579,26.1627,-23.5901
292,1436295099775,32.1579,26.1627,-23.5901
293,1436295099795,31.2805,25.9872,-23.4222
294,1436295099828,33.2077,22.6471,-23.9273
295,1436295099831,33.2077,22.6471,-23.9273
296,1436295099854,33.0338,21.7682,-23.7595
297,1436295099874,34.0851,22.4716,-24.7681
298,1436295099894,34.0851,22.4716,-24.7681
299,1436295099914,33.9096,20.8893,-24.9359
300,1436295099933,34.0851,21.4172,-23.0865
301,1436295099953,34.0851,21.4172,-23.0865
302,1436295099973,32.8583,23.3505,-22.2458
303,1436295099992,34.259,22.2961,-22.5815
304,1436295100013,34.259,22.2961,-22.5815
305,1436295100031,35.1349,20.3613,-22.4136
306,1436295100051,34.61,19.8349,-21.5729
307,1436295100071,34.61,19.8349,-21.5729
308,1436295100091,36.7126,20.5383,-23.2544
309,1436295100112,33.5587,20.8893,-24.6002
310,1436295100131,33.5587,20.8893,-24.6002
311,1436295100151,34.61,23.3505,-20.9
312,1436295100170,34.259,24.4049,-22.5815
313,1436295100190,34.259,24.4049,-22.5815
314,1436295100209,32.8583,26.8662,-20.227
315,1436295100230,31.1066,27.5696,-20.5643
316,1436295100250,31.1066,27.5696,-20.5643
317,1436295100269,33.9096,28.624,-20.9
318,1436295100289,32.6828,27.7451,-20.7321
319,1436295100310,32.6828,27.7451,-20.7321
320,1436295100328,31.1066,30.0293,-18.2098
321,1436295100350,30.5801,30.5573,-18.7134
322,1436295100368,30.5801,30.5573,-18.7134
323,1436295100387,29.3533,30.3818,-20.5643
324,1436295100408,31.9824,27.0416,-20.7321
325,1436295100427,31.9824,27.0416,-20.7321
326,1436295100449,32.1579,26.5137,-20.9
327,1436295100467,30.4047,28.2715,-22.2458
328,1436295100484,30.4047,28.2715,-22.2458
329,1436295100507,30.0552,28.624,-21.2357
330,1436295100525,31.9824,25.9872,-22.0764
331,1436295100548,31.9824,25.9872,-22.0764
332,1436295100565,31.1066,25.4593,-23.5901
333,1436295100585,31.456,27.2171,-21.9086
334,1436295100605,31.456,27.2171,-21.9086
335,1436295100625,31.1066,25.4593,-22.9187
336,1436295100647,32.5073,24.054,-22.9187
337,1436295100664,32.5073,24.054,-22.9187
338,1436295100684,32.5073,25.4593,-23.2544
339,1436295100705,32.6828,25.6348,-21.7407
340,1436295100723,32.6828,25.6348,-21.7407
341,1436295100746,34.0851,25.6348,-21.405
342,1436295100763,34.7855,23.175,-23.4222
343,1436295100782,34.7855,23.175,-23.4222
344,1436295100801,35.3104,22.6471,-23.2544
345,1436295100822,36.3617,21.2402,-20.5643
346,1436295100841,36.3617,21.2402,-20.5643
347,1436295100862,35.6613,20.8893,-20.5643
348,1436295100884,35.8368,22.8226,-20.7321
349,1436295100901,35.8368,22.8226,-20.7321
350,1436295100921,35.8368,24.2294,-18.7134
351,1436295100942,35.8368,22.8226,-19.3863
352,1436295100960,35.8368,22.8226,-19.3863
353,1436295100982,36.5372,20.0104,-22.4136
354,1436295101000,33.9096,20.8893,-20.9
355,1436295101019,33.9096,20.8893,-20.9
356,1436295101039,37.2375,18.6035,-23.4222
357,1436295101059,35.8368,16.8457,-22.7493
358,1436295101079,35.8368,16.8457,-22.7493
359,1436295101099,37.0621,14.209,-22.9187
360,1436295101117,36.0107,18.0771,-22.9187
361,1436295101139,36.0107,18.0771,-22.9187
362,1436295101157,36.7126,18.428,-23.5901
363,1436295101180,34.259,20.5383,-23.5901
364,1436295101198,34.259,20.5383,-23.5901
365,1436295101217,34.61,22.2961,-23.5901
366,1436295101238,33.2077,22.998,-22.9187
367,1436295101257,33.2077,22.998,-22.9187
368,1436295101279,33.5587,23.7015,-23.5901
369,1436295101297,34.259,20.5383,-25.2716
370,1436295101316,34.259,20.5383,-25.2716
371,1436295101335,34.4345,21.7682,-23.7595
372,1436295101356,34.259,21.9437,-22.9187
373,1436295101375,34.259,21.9437,-22.9187
374,1436295101395,34.9609,22.998,-20.9
375,1436295101415,35.3104,23.7015,-20.5643
376,1436295101435,35.3104,23.7015,-20.5643
377,1436295101454,34.0851,26.6907,-19.3863
378,1436295101475,33.2077,26.1627,-19.8914
379,1436295101494,33.2077,26.1627,-19.8914
380,1436295101514,33.3832,25.2838,-22.4136
381,1436295101534,32.6828,26.3382,-23.4222
382,1436295101553,32.6828,26.3382,-23.4222
383,1436295101575,33.7341,25.9872,-20.7321
384,1436295101593,32.3319,24.2294,-21.405
385,1436295101611,32.3319,24.2294,-21.405
386,1436295101633,33.2077,22.6471,-24.263
387,1436295101651,33.7341,21.7682,-23.4222
388,1436295101674,33.7341,21.7682,-23.4222
389,1436295101691,33.9096,23.3505,-24.6002
390,1436295101711,31.2805,22.4716,-25.441
391,1436295101732,31.2805,22.4716,-25.441
392,1436295101751,32.5073,24.054,-26.6174
393,1436295101773,30.2307,24.5804,-24.4308
394,1436295101790,30.2307,24.5804,-24.4308
395,1436295101810,31.6315,25.9872,-24.7681
396,1436295101829,31.2805,27.0416,-24.0952
397,1436295101849,31.2805,27.0416,-24.0952
398,1436295101870,30.0552,25.1083,-25.6088
399,1436295101889,31.2805,22.1191,-27.4582
400,1436295101909,31.2805,22.1191,-27.4582
401,1436295101927,32.8583,21.9437,-24.6002
402,1436295101949,31.2805,26.6907,-21.0678
403,1436295101968,31.2805,26.6907,-21.0678
404,1436295101988,32.5073,27.5696,-20.5643
405,1436295102011,33.0338,25.9872,-21.405
406,1436295102027,33.0338,25.9872,-21.405
407,1436295102046,36.7126,21.5927,-24.263
408,1436295102068,34.7504,21.2891,-22.4945
409,1436295102086,34.7504,21.2891,-22.4945
410,1436295102105,34.7504,21.64,-20.4773
411,1436295102127,33.1726,22.8714,-20.9824
412,1436295102145,33.1726,22.8714,-20.9824
413,1436295102166,33.8745,24.9802,-21.991
414,1436295102186,34.9258,20.4102,-20.9824
415,1436295102208,34.9258,20.4102,-20.9824
416,1436295102225,33.8745,23.5733,-21.991
417,1436295102243,34.2239,22.5189,-20.3094
418,1436295102265,34.2239,22.5189,-20.3094
419,1436295102284,34.7504,23.3978,-20.813
420,1436295102307,34.7504,23.0469,-19.4687
421,1436295102324,34.7504,23.0469,-19.4687
422,1436295102343,36.853,23.0469,-19.4687
423,1436295102364,33.8745,22.5189,-21.6537
424,1436295102382,33.8745,22.5189,-21.6537
425,1436295102403,35.4507,21.2891,-22.4945
426,1436295102421,35.0998,20.5856,-24.1776
427,1436295102442,35.0998,20.5856,-24.1776
428,1436295102462,34.2239,22.168,-25.6897
429,1436295102482,31.5964,23.7503,-26.1948
430,1436295102504,31.5964,23.7503,-26.1948
431,1436295102521,30.0201,28.8467,-24.3454
432,1436295102541,26.8662,31.308,-22.6639
433,1436295102561,26.8662,31.308,-22.6639
434,1436295102581,26.5152,29.5502,-24.6811
435,1436295102601,24.939,29.0237,-26.5305
436,1436295102620,24.939,29.0237,-26.5305
437,1436295102639,26.6907,28.6713,-26.8677
438,1436295102660,26.5152,28.8467,-26.3626
439,1436295102679,26.5152,28.8467,-26.3626
440,1436295102700,26.3412,26.9135,-25.8591
441,1436295102718,28.2684,26.0345,-27.0355
442,1436295102736,28.2684,26.0345,-27.0355
443,1436295102759,27.9175,25.3311,-28.717
444,1436295102778,28.6179,24.6292,-27.3727
445,1436295102800,28.6179,24.6292,-27.3727
446,1436295102817,30.896,24.8047,-25.1862
447,1436295102838,29.4937,25.1556,-24.1776
448,1436295102856,29.4937,25.1556,-24.1776
449,1436295102877,31.2454,26.9135,-23.8403
450,1436295102897,32.4722,26.0345,-21.6537
451,1436295102916,32.4722,26.0345,-21.6537
452,1436295102939,33.3481,24.4522,-23.8403
453,1436295102955,32.9987,23.7503,-24.8489
454,1436295102976,32.9987,23.7503,-24.8489
455,1436295102996,34.2239,23.9258,-22.9996
456,1436295103015,35.0998,23.0469,-22.4945
457,1436295103035,35.0998,23.0469,-22.4945
458,1436295103053,36.853,20.2347,-20.813
459,1436295103075,38.6047,17.421,-19.8044
460,1436295103094,38.6047,17.421,-19.8044
461,1436295103114,38.9542,17.7734,-18.4601
462,1436295103136,37.7289,21.4645,-17.955
463,1436295103154,37.7289,21.4645,-17.955
464,1436295103173,38.2538,23.3978,-16.1057
465,1436295103194,37.9028,19.8822,-18.4601
466,1436295103213,37.9028,19.8822,-18.4601
467,1436295103231,37.027,20.0577,-20.3094
468,1436295103253,37.3779,18.2999,-19.9722
469,1436295103271,37.3779,18.2999,-19.9722
470,1436295103292,35.9756,18.2999,-20.6451
471,1436295103312,36.5021,16.0156,-21.1502
