id,attr_time,attr_light
1,1436471341226,1.0
2,1436471341244,1.0
3,1436471341265,1.0
4,1436471341286,1.0
5,1436471341304,1.0
6,1436471341325,1.0
7,1436471341347,1.0
8,1436471341365,1.0
9,1436471341385,1.0
10,1436471341404,1.0
11,1436471341424,1.0
12,1436471341446,1.0
13,1436471341465,1.0
14,1436471341486,1.0
15,1436471341505,1.0
16,1436471341526,1.0
17,1436471341546,1.0
18,1436471341566,1.0
19,1436471341586,1.0
20,1436471341603,1.0
21,1436471341625,1.0
22,1436471341694,1.0
23,1436471341695,1.0
24,1436471341700,1.0
25,1436471341702,1.0
26,1436471341722,1.0
27,1436471341744,1.0
28,1436471341762,1.0
29,1436471341787,1.0
30,1436471341803,1.0
31,1436471341823,1.0
32,1436471341857,1.0
33,1436471341863,1.0
34,1436471341896,1.0
35,1436471341903,1.0
36,1436471341926,1.0
37,1436471341946,1.0
38,1436471341966,1.0
39,1436471341991,1.0
40,1436471342003,1.0
41,1436471342026,1.0
42,1436471342048,1.0
43,1436471342065,1.0
44,1436471342088,1.0
45,1436471342108,1.0
46,1436471342123,1.0
47,1436471342147,1.0
48,1436471342169,1.0
49,1436471342186,1.0
50,1436471342207,1.0
51,1436471342226,1.0
52,1436471342246,1.0
53,1436471342266,1.0
54,1436471342286,1.0
55,1436471342307,1.0
56,1436471342327,1.0
57,1436471342347,1.0
58,1436471342370,1.0
59,1436471342387,1.0
60,1436471342454,1.0
61,1436471342455,1.0
62,1436471342458,1.0
63,1436471342463,1.0
64,1436471342484,1.0
65,1436471342508,1.0
66,1436471342523,1.0
67,1436471342543,1.0
68,1436471342563,1.0
69,1436471342586,1.0
70,1436471342611,1.0
71,1436471342624,1.0
72,1436471342644,1.0
73,1436471342667,1.0
74,1436471342687,1.0
75,1436471342707,1.0
76,1436471342726,1.0
77,1436471342746,1.0
78,1436471342767,1.0
79,1436471342787,1.0
80,1436471342807,1.0
81,1436471342828,1.0
82,1436471342844,1.0
83,1436471342867,1.0
84,1436471342887,1.0
85,1436471342907,1.0
86,1436471342927,1.0
87,1436471342946,1.0
88,1436471342967,1.0
89,1436471342986,1.0
90,1436471343006,1.0
91,1436471343035,1.0
92,1436471343049,1.0
93,1436471343071,1.0
94,1436471343087,1.0
95,1436471343105,1.0
96,1436471343159,1.0
97,1436471343160,1.0
98,1436471343167,1.0
99,1436471343184,1.0
100,1436471343206,1.0
101,1436471343224,1.0
102,1436471343244,1.0
103,1436471343269,1.0
104,1436471343293,1.0
105,1436471343304,1.0
106,1436471343327,1.0
107,1436471343351,1.0
108,1436471343366,1.0
109,1436471343387,1.0
110,1436471343407,1.0
111,1436471343427,1.0
112,1436471343447,1.0
113,1436471343467,1.0
114,1436471343487,1.0
115,1436471343504,1.0
116,1436471343527,1.0
117,1436471343548,1.0
118,1436471343569,1.0
119,1436471343586,1.0
120,1436471343607,1.0
121,1436471343626,1.0
122,1436471343646,1.0
123,1436471343664,1.0
124,1436471343690,1.0
125,1436471343710,1.0
126,1436471343730,1.0
127,1436471343748,1.0
128,1436471343764,1.0
129,1436471343785,1.0
130,1436471343807,1.0
131,1436471343827,1.0
132,1436471343844,1.0
133,1436471343913,1.0
134,1436471343914,1.0
135,1436471343915,1.0
136,1436471343925,1.0
137,1436471343948,1.0
138,1436471343966,1.0
139,1436471343987,1.0
140,1436471344012,1.0
141,1436471344034,1.0
142,1436471344047,1.0
143,1436471344066,1.0
144,1436471344087,1.0
145,1436471344105,1.0
146,1436471344128,1.0
147,1436471344148,1.0
148,1436471344168,1.0
149,1436471344188,1.0
150,1436471344208,1.0
151,1436471344228,1.0
152,1436471344248,1.0
153,1436471344268,1.0
154,1436471344288,1.0
155,1436471344310,1.0
156,1436471344325,1.0
157,1436471344348,1.0
158,1436471344366,1.0
159,1436471344385,1.0
160,1436471344407,1.0
161,1436471344428,1.0
162,1436471344448,1.0
163,1436471344468,1.0
164,1436471344488,1.0
165,1436471344506,1.0
166,1436471344527,1.0
167,1436471344548,1.0
168,1436471344567,1.0
169,1436471344587,1.0
170,1436471344656,1.0
171,1436471344657,1.0
172,1436471344658,1.0
173,1436471344665,1.0
174,1436471344691,1.0
175,1436471344707,1.0
176,1436471344726,1.0
177,1436471344748,1.0
178,1436471344767,1.0
179,1436471344788,1.0
180,1436471344806,1.0
181,1436471344829,1.0
182,1436471344846,1.0
183,1436471344869,1.0
184,1436471344889,1.0
185,1436471344909,1.0
186,1436471344929,1.0
187,1436471344949,1.0
188,1436471344969,1.0
189,1436471344993,1.0
190,1436471345008,1.0
191,1436471345049,1.0
192,1436471345050,1.0
193,1436471345067,1.0
194,1436471345087,1.0
195,1436471345108,1.0
196,1436471345128,1.0
197,1436471345151,1.0
198,1436471345171,1.0
199,1436471345192,1.0
200,1436471345209,1.0
201,1436471345227,1.0
202,1436471345246,1.0
203,1436471345268,1.0
204,1436471345288,1.0
205,1436471345306,1.0
206,1436471345376,1.0
207,1436471345377,1.0
208,1436471345378,1.0
209,1436471345389,1.0
210,1436471345410,1.0
211,1436471345426,1.0
212,1436471345449,1.0
213,1436471345468,1.0
214,1436471345487,1.0
215,1436471345507,1.0
216,1436471345527,1.0
217,1436471345549,1.0
218,1436471345566,1.0
219,1436471345589,1.0
220,1436471345609,1.0
221,1436471345629,1.0
222,1436471345649,1.0
223,1436471345670,1.0
224,1436471345689,1.0
225,1436471345710,1.0
226,1436471345730,1.0
227,1436471345747,1.0
228,1436471345770,1.0
229,1436471345789,1.0
230,1436471345810,1.0
231,1436471345827,1.0
232,1436471345849,1.0
233,1436471345872,1.0
234,1436471345891,1.0
235,1436471345911,1.0
236,1436471345936,1.0
237,1436471345969,1.0
238,1436471345970,1.0
239,1436471346116,1.0
240,1436471346117,1.0
241,1436471346118,1.0
242,1436471346119,1.0
243,1436471346120,1.0
244,1436471346121,1.0
245,1436471346122,1.0
246,1436471346187,1.0
247,1436471346188,1.0
248,1436471346189,1.0
249,1436471346190,1.0
250,1436471346235,1.0
251,1436471346236,1.0
252,1436471346259,1.0
253,1436471346267,1.0
254,1436471346287,1.0
255,1436471346309,1.0
256,1436471346331,1.0
257,1436471346350,1.0
258,1436471346369,1.0
259,1436471346394,1.0
260,1436471346411,1.0
261,1436471346430,1.0
262,1436471346450,1.0
263,1436471346470,1.0
264,1436471346490,1.0
265,1436471346513,1.0
266,1436471346528,1.0
267,1436471346550,1.0
268,1436471346571,1.0
269,1436471346591,1.0
270,1436471346611,1.0
271,1436471346630,1.0
272,1436471346650,1.0
273,1436471346670,1.0
274,1436471346689,1.0
275,1436471346711,1.0
276,1436471346732,1.0
277,1436471346752,1.0
278,1436471346771,1.0
279,1436471346796,1.0
280,1436471346863,1.0
281,1436471346864,1.0
282,1436471346869,1.0
283,1436471346870,1.0
284,1436471346889,1.0
285,1436471346911,1.0
286,1436471346927,1.0
287,1436471346948,1.0
288,1436471346971,1.0
289,1436471346993,1.0
290,1436471347010,1.0
291,1436471347031,1.0
292,1436471347054,1.0
293,1436471347073,1.0
294,1436471347088,1.0
295,1436471347111,1.0
296,1436471347131,1.0
297,1436471347151,1.0
298,1436471347171,1.0
299,1436471347191,1.0
300,1436471347211,1.0
301,1436471347231,1.0
302,1436471347252,1.0
303,1436471347270,1.0
304,1436471347291,1.0
305,1436471347309,1.0
306,1436471347331,1.0
307,1436471347349,1.0
308,1436471347372,1.0
309,1436471347392,1.0
310,1436471347412,1.0
311,1436471347431,1.0
312,1436471347449,1.0
313,1436471347469,1.0
314,1436471347490,1.0
315,1436471347509,1.0
316,1436471347532,1.0
317,1436471347594,1.0
318,1436471347595,1.0
319,1436471347596,1.0
320,1436471347608,1.0
321,1436471347631,1.0
322,1436471347648,1.0
323,1436471347668,1.0
324,1436471347690,1.0
325,1436471347709,1.0
326,1436471347730,1.0
327,1436471347749,1.0
328,1436471347769,1.0
329,1436471347790,1.0
330,1436471347811,1.0
331,1436471347832,1.0
332,1436471347852,1.0
333,1436471347870,1.0
334,1436471347891,1.0
335,1436471347912,1.0
336,1436471347932,1.0
337,1436471347952,1.0
338,1436471347972,1.0
339,1436471347993,1.0
340,1436471348010,1.0
341,1436471348035,1.0
342,1436471348050,1.0
343,1436471348071,1.0
344,1436471348091,1.0
345,1436471348112,1.0
346,1436471348132,1.0
347,1436471348152,1.0
348,1436471348172,1.0
349,1436471348189,1.0
350,1436471348211,1.0
351,1436471348230,1.0
352,1436471348294,1.0
353,1436471348295,1.0
354,1436471348296,1.0
355,1436471348318,1.0
356,1436471348329,1.0
357,1436471348350,1.0
358,1436471348369,1.0
359,1436471348389,1.0
360,1436471348410,1.0
361,1436471348431,1.0
362,1436471348449,1.0
363,1436471348471,1.0
364,1436471348490,1.0
365,1436471348511,1.0
366,1436471348532,2.0
367,1436471348552,2.0
368,1436471348572,2.0
369,1436471348592,2.0
370,1436471348611,1.0
371,1436471348632,1.0
372,1436471348652,1.0
373,1436471348672,1.0
374,1436471348692,1.0
375,1436471348710,1.0
376,1436471348732,1.0
377,1436471348750,1.0
378,1436471348770,1.0
379,1436471348789,1.0
380,1436471348813,1.0
381,1436471348834,1.0
382,1436471348854,1.0
383,1436471348898,1.0
384,1436471348899,1.0
385,1436471348910,1.0
386,1436471348931,1.0
387,1436471348951,1.0
388,1436471349065,1.0
389,1436471349070,1.0
390,1436471349071,1.0
391,1436471349072,1.0
392,1436471349073,1.0
393,1436471349074,1.0
394,1436471349096,1.0
395,1436471349127,1.0
396,1436471349130,1.0
397,1436471349150,1.0
398,1436471349170,1.0
399,1436471349190,1.0
400,1436471349211,1.0
401,1436471349243,1.0
402,1436471349251,1.0
403,1436471349270,1.0
404,1436471349291,1.0
405,1436471349311,1.0
406,1436471349333,1.0
407,1436471349353,1.0
408,1436471349373,1.0
409,1436471349393,1.0
410,1436471349411,1.0
411,1436471349431,1.0
412,1436471349453,1.0
413,1436471349471,1.0
414,1436471349493,1.0
415,1436471349513,1.0
416,1436471349533,1.0
417,1436471349553,1.0
418,1436471349572,1.0
419,1436471349593,1.0
420,1436471349613,1.0
421,1436471349633,1.0
422,1436471349653,1.0
423,1436471349673,2.0
424,1436471349691,2.0
425,1436471349711,1.0
426,1436471349732,1.0
427,1436471349798,1.0
428,1436471349799,1.0
429,1436471349800,1.0
430,1436471349817,1.0
431,1436471349831,1.0
432,1436471349851,2.0
433,1436471349870,2.0
434,1436471349891,2.0
435,1436471349913,2.0
436,1436471349931,2.0
437,1436471349952,2.0
438,1436471349973,2.0
439,1436471349991,2.0
440,1436471350011,2.0
441,1436471350037,2.0
442,1436471350053,1.0
443,1436471350071,1.0
444,1436471350091,1.0
445,1436471350111,1.0
446,1436471350136,1.0
447,1436471350151,1.0
448,1436471350171,1.0
449,1436471350191,1.0
450,1436471350211,1.0
451,1436471350231,1.0
452,1436471350251,1.0
453,1436471350271,1.0
454,1436471350291,1.0
455,1436471350313,1.0
456,1436471350333,1.0
457,1436471350351,1.0
458,1436471350371,1.0
459,1436471350391,1.0
460,1436471350411,1.0
461,1436471350432,1.0
462,1436471350461,1.0
463,1436471350504,1.0
464,1436471350505,1.0
465,1436471350510,1.0
466,1436471350530,1.0
467,1436471350550,1.0
468,1436471350570,1.0
469,1436471350594,1.0
470,1436471350615,1.0
471,1436471350631,1.0
472,1436471350655,1.0
473,1436471350675,1.0
474,1436471350692,1.0
475,1436471350710,1.0
476,1436471350735,1.0
477,1436471350751,1.0
478,1436471350775,1.0
479,1436471350795,1.0
480,1436471350812,1.0
481,1436471350835,1.0
482,1436471350851,1.0
483,1436471350872,1.0
484,1436471350892,1.0
485,1436471350912,1.0
486,1436471350934,1.0
487,1436471350955,1.0
488,1436471350975,1.0
489,1436471350994,1.0
490,1436471351015,1.0
491,1436471351042,1.0
492,1436471351057,1.0
493,1436471351082,1.0
494,1436471351095,1.0
495,1436471351115,1.0
496,1436471351185,1.0
497,1436471351186,1.0
498,1436471351187,1.0
499,1436471351196,1.0
500,1436471351214,1.0
501,1436471351235,1.0
502,1436471351252,1.0
503,1436471351277,1.0
504,1436471351312,1.0
505,1436471351313,1.0
506,1436471351355,1.0
507,1436471351357,1.0
508,1436471351372,1.0
509,1436471351393,1.0
510,1436471351415,1.0
511,1436471351432,1.0
512,1436471351454,1.0
513,1436471351476,1.0
514,1436471351494,1.0
515,1436471351514,1.0
516,1436471351536,1.0
517,1436471351554,1.0
518,1436471351575,1.0
519,1436471351596,1.0
520,1436471351614,0.0
521,1436471351633,0.0
522,1436471351656,0.0
523,1436471351672,0.0
524,1436471351693,0.0
525,1436471351712,0.0
526,1436471351735,0.0
527,1436471351758,0.0
528,1436471351775,0.0
529,1436471351795,0.0
530,1436471351812,0.0
531,1436471351832,0.0
532,1436471351852,0.0
533,1436471351872,0.0
534,1436471351892,0.0
535,1436471351935,0.0
536,1436471351936,0.0
537,1436471351952,0.0
538,1436471351973,0.0
539,1436471351993,0.0
540,1436471352014,0.0
541,1436471352033,0.0
542,1436471352056,0.0
543,1436471352073,0.0
544,1436471352103,0.0
545,1436471352124,0.0
546,1436471352132,0.0
547,1436471352157,0.0
548,1436471352173,0.0
549,1436471352196,0.0
550,1436471352217,0.0
551,1436471352236,0.0
552,1436471352256,0.0
553,1436471352277,0.0
554,1436471352296,0.0
555,1436471352316,0.0
556,1436471352337,0.0
557,1436471352356,0.0
558,1436471352373,0.0
559,1436471352401,0.0
560,1436471352416,0.0
561,1436471352436,0.0
562,1436471352456,0.0
563,1436471352476,0.0
564,1436471352496,0.0
565,1436471352516,0.0
566,1436471352536,0.0
567,1436471352556,0.0
568,1436471352576,0.0
569,1436471352597,0.0
570,1436471352616,0.0
571,1436471352636,0.0
572,1436471352662,0.0
573,1436471352718,0.0
574,1436471352719,0.0
575,1436471352720,0.0
576,1436471352742,0.0
577,1436471352753,0.0
578,1436471352773,0.0
579,1436471352794,0.0
580,1436471352813,0.0
581,1436471352838,0.0
582,1436471352853,0.0
583,1436471352875,0.0
584,1436471352894,0.0
585,1436471352916,0.0
586,1436471352933,0.0
587,1436471352957,0.0
588,1436471352977,0.0
589,1436471352999,0.0
590,1436471353017,0.0
591,1436471353035,0.0
592,1436471353057,0.0
593,1436471353079,0.0
594,1436471353095,0.0
595,1436471353115,0.0
596,1436471353136,0.0
597,1436471353157,0.0
598,1436471353176,0.0
599,1436471353194,0.0
600,1436471353214,0.0
601,1436471353237,0.0
602,1436471353257,0.0
603,1436471353277,0.0
604,1436471353294,0.0
605,1436471353314,0.0
606,1436471353336,0.0
607,1436471353354,0.0
608,1436471353376,0.0
609,1436471353395,0.0
610,1436471353457,0.0
611,1436471353458,0.0
612,1436471353460,0.0
613,1436471353483,0.0
614,1436471353494,0.0
615,1436471353517,0.0
616,1436471353534,0.0
617,1436471353560,0.0
618,1436471353575,0.0
619,1436471353596,0.0
620,1436471353616,0.0
621,1436471353635,1.0
622,1436471353657,1.0
623,1436471353674,1.0
624,1436471353697,1.0
625,1436471353717,1.0
626,1436471353737,1.0
627,1436471353757,1.0
628,1436471353777,1.0
629,1436471353797,1.0
630,1436471353817,2.0
631,1436471353837,2.0
632,1436471353856,2.0
633,1436471353875,2.0
634,1436471353897,2.0
635,1436471353915,2.0
636,1436471353937,2.0
637,1436471353956,2.0
638,1436471353980,2.0
639,1436471354003,2.0
640,1436471354016,2.0
641,1436471354035,2.0
642,1436471354057,2.0
643,1436471354083,2.0
644,1436471354098,2.0
645,1436471354182,2.0
646,1436471354183,2.0
647,1436471354184,2.0
648,1436471354200,2.0
649,1436471354201,2.0
650,1436471354268,2.0
651,1436471354269,2.0
652,1436471354270,2.0
653,1436471354275,2.0
654,1436471354306,2.0
655,1436471354315,2.0
656,1436471354336,2.0
657,1436471354356,2.0
658,1436471354376,2.0
659,1436471354403,2.0
660,1436471354415,2.0
661,1436471354435,2.0
662,1436471354463,2.0
663,1436471354475,2.0
664,1436471354495,2.0
665,1436471354514,2.0
666,1436471354550,2.0
667,1436471354553,2.0
668,1436471354574,2.0
669,1436471354594,2.0
670,1436471354614,2.0
671,1436471354633,2.0
672,1436471354653,2.0
673,1436471354674,2.0
674,1436471354693,2.0
675,1436471354714,2.0
676,1436471354733,2.0
677,1436471354753,2.0
678,1436471354774,2.0
679,1436471354794,2.0
680,1436471354816,2.0
681,1436471354838,2.0
682,1436471354858,2.0
683,1436471354879,2.0
684,1436471354896,2.0
685,1436471354918,2.0
686,1436471354940,2.0
687,1436471354954,2.0
688,1436471354974,2.0
689,1436471354995,2.0
690,1436471355014,2.0
691,1436471355038,2.0
692,1436471355057,2.0
693,1436471355075,2.0
694,1436471355098,2.0
695,1436471355119,2.0
696,1436471355139,2.0
697,1436471355155,2.0
698,1436471355179,2.0
699,1436471355199,2.0
700,1436471355219,2.0
701,1436471355239,2.0
702,1436471355260,2.0
703,1436471355280,2.0
704,1436471355296,2.0
705,1436471355319,2.0
706,1436471355339,2.0
707,1436471355356,2.0
708,1436471355377,2.0
709,1436471355407,2.0
710,1436471355420,2.0
711,1436471355501,2.0
712,1436471355502,2.0
713,1436471355503,2.0
714,1436471355504,2.0
715,1436471355516,2.0
716,1436471355538,2.0
717,1436471355563,2.0
718,1436471355588,2.0
719,1436471355608,2.0
720,1436471355646,2.0
721,1436471355647,2.0
722,1436471355659,2.0
723,1436471355696,2.0
724,1436471355697,2.0
725,1436471355716,2.0
726,1436471355736,2.0
727,1436471355758,2.0
728,1436471355776,2.0
729,1436471355797,2.0
730,1436471355818,2.0
731,1436471355838,2.0
732,1436471355870,2.0
733,1436471355885,2.0
734,1436471355900,2.0
735,1436471355916,2.0
736,1436471355936,2.0
737,1436471355957,2.0
738,1436471355980,2.0
739,1436471355998,2.0
740,1436471356015,2.0
741,1436471356035,2.0
742,1436471356065,2.0
743,1436471356075,2.0
744,1436471356096,2.0
745,1436471356116,2.0
746,1436471356135,2.0
747,1436471356156,2.0
748,1436471356175,2.0
749,1436471356197,2.0
750,1436471356218,2.0
751,1436471356238,2.0
752,1436471356257,2.0
753,1436471356278,2.0
754,1436471356297,2.0
755,1436471356319,2.0
756,1436471356335,2.0
757,1436471356357,2.0
758,1436471356378,2.0
759,1436471356423,2.0
760,1436471356424,2.0
761,1436471356436,2.0
762,1436471356457,2.0
763,1436471356479,2.0
764,1436471356497,2.0
765,1436471356517,2.0
766,1436471356536,2.0
767,1436471356558,2.0
768,1436471356579,2.0
769,1436471356598,2.0
770,1436471356618,2.0
771,1436471356638,2.0
772,1436471356657,2.0
773,1436471356678,2.0
774,1436471356698,2.0
775,1436471356719,2.0
776,1436471356739,2.0
777,1436471356756,2.0
778,1436471356778,2.0
779,1436471356799,2.0
780,1436471356818,2.0
781,1436471356838,2.0
782,1436471356858,2.0
783,1436471356880,2.0
784,1436471356900,2.0
785,1436471356919,2.0
786,1436471356940,2.0
787,1436471356958,2.0
788,1436471356978,2.0
789,1436471356998,2.0
790,1436471357020,2.0
791,1436471357105,2.0
792,1436471357106,2.0
793,1436471357107,2.0
794,1436471357108,2.0
795,1436471357119,2.0
796,1436471357149,2.0
797,1436471357158,2.0
798,1436471357179,2.0
799,1436471357200,2.0
800,1436471357219,2.0
801,1436471357238,2.0
802,1436471357259,2.0
803,1436471357280,2.0
804,1436471357299,2.0
805,1436471357321,2.0
806,1436471357340,2.0
807,1436471357360,2.0
808,1436471357380,2.0
809,1436471357401,2.0
810,1436471357421,2.0
811,1436471357440,2.0
812,1436471357460,2.0
813,1436471357480,2.0
814,1436471357501,2.0
815,1436471357522,2.0
816,1436471357542,2.0
817,1436471357562,2.0
818,1436471357581,2.0
819,1436471357599,2.0
820,1436471357620,2.0
821,1436471357639,2.0
822,1436471357662,2.0
823,1436471357683,2.0
824,1436471357707,2.0
825,1436471357719,2.0
826,1436471357792,2.0
827,1436471357793,2.0
828,1436471357794,2.0
829,1436471357807,2.0
830,1436471357819,2.0
831,1436471357838,2.0
832,1436471357859,2.0
833,1436471357878,2.0
834,1436471357912,2.0
835,1436471357930,2.0
836,1436471357938,2.0
837,1436471357958,2.0
838,1436471357978,2.0
839,1436471357998,2.0
840,1436471358018,2.0
841,1436471358040,2.0
842,1436471358058,2.0
843,1436471358079,2.0
844,1436471358100,2.0
845,1436471358121,2.0
846,1436471358141,2.0
847,1436471358161,2.0
848,1436471358182,2.0
849,1436471358199,2.0
850,1436471358221,2.0
851,1436471358240,2.0
852,1436471358259,2.0
853,1436471358279,2.0
854,1436471358302,2.0
855,1436471358323,2.0
856,1436471358343,1.0
857,1436471358362,1.0
858,1436471358379,1.0
859,1436471358400,1.0
860,1436471358420,1.0
861,1436471358441,1.0
862,1436471358459,1.0
863,1436471358524,1.0
864,1436471358525,1.0
865,1436471358526,1.0
866,1436471358541,1.0
867,1436471358560,1.0
868,1436471358580,1.0
869,1436471358599,1.0
870,1436471358620,1.0
871,1436471358639,1.0
872,1436471358660,1.0
873,1436471358681,1.0
874,1436471358701,1.0
875,1436471358721,1.0
876,1436471358740,1.0
877,1436471358761,1.0
878,1436471358781,1.0
879,1436471358801,1.0
880,1436471358821,1.0
881,1436471358842,1.0
882,1436471358861,1.0
883,1436471358909,1.0
884,1436471358910,1.0
885,1436471358923,1.0
886,1436471358941,1.0
887,1436471358964,1.0
888,1436471358985,1.0
889,1436471359006,1.0
890,1436471359021,1.0
891,1436471359042,1.0
892,1436471359062,1.0
893,1436471359080,1.0
894,1436471359099,1.0
895,1436471359124,1.0
896,1436471359143,1.0
897,1436471359160,1.0
898,1436471359183,1.0
899,1436471359250,1.0
900,1436471359251,1.0
901,1436471359252,1.0
902,1436471359259,1.0
903,1436471359281,1.0
904,1436471359300,1.0
905,1436471359320,1.0
906,1436471359340,1.0
907,1436471359361,1.0
908,1436471359381,1.0
909,1436471359402,1.0
910,1436471359421,1.0
911,1436471359441,1.0
912,1436471359461,1.0
