id,attr_time,attr_light
1,1437233612916,334.0
2,1437233612939,334.0
3,1437233612959,334.0
4,1437233612975,334.0
5,1437233612999,334.0
6,1437233613019,334.0
7,1437233613039,334.0
8,1437233613059,334.0
9,1437233613078,334.0
10,1437233613099,335.0
11,1437233613119,335.0
12,1437233613138,335.0
13,1437233613158,334.0
14,1437233613179,334.0
15,1437233613196,335.0
16,1437233613215,335.0
17,1437233613238,335.0
18,1437233613261,335.0
19,1437233613281,335.0
20,1437233613302,335.0
21,1437233613319,335.0
22,1437233613336,335.0
23,1437233613355,335.0
24,1437233613379,335.0
25,1437233613398,335.0
26,1437233613419,335.0
27,1437233613468,335.0
28,1437233613469,335.0
29,1437233613487,335.0
30,1437233613497,335.0
31,1437233613520,335.0
32,1437233613537,335.0
33,1437233613557,335.0
34,1437233613578,335.0
35,1437233613597,335.0
36,1437233613617,335.0
37,1437233613637,334.0
38,1437233613659,334.0
39,1437233613682,334.0
40,1437233613698,334.0
41,1437233613719,334.0
42,1437233613739,334.0
43,1437233613759,334.0
44,1437233613779,334.0
45,1437233613799,334.0
46,1437233613819,334.0
47,1437233613839,334.0
48,1437233613860,333.0
49,1437233613877,333.0
50,1437233613896,333.0
51,1437233613918,333.0
52,1437233613938,333.0
53,1437233613959,333.0
54,1437233613980,333.0
55,1437233613998,333.0
56,1437233614020,333.0
57,1437233614062,333.0
58,1437233614063,333.0
59,1437233614080,333.0
60,1437233614100,333.0
61,1437233614117,333.0
62,1437233614137,333.0
63,1437233614206,333.0
64,1437233614207,333.0
65,1437233614208,333.0
66,1437233614216,332.0
67,1437233614237,332.0
68,1437233614258,332.0
69,1437233614277,332.0
70,1437233614299,332.0
71,1437233614318,332.0
72,1437233614337,332.0
73,1437233614357,332.0
74,1437233614379,333.0
75,1437233614396,333.0
76,1437233614420,332.0
77,1437233614440,332.0
78,1437233614459,332.0
79,1437233614480,332.0
80,1437233614500,332.0
81,1437233614520,332.0
82,1437233614540,332.0
83,1437233614560,332.0
84,1437233614581,332.0
85,1437233614598,333.0
86,1437233614620,333.0
87,1437233614637,332.0
88,1437233614658,333.0
89,1437233614678,333.0
90,1437233614701,333.0
91,1437233614723,333.0
92,1437233614743,333.0
93,1437233614760,333.0
94,1437233614777,333.0
95,1437233614797,333.0
96,1437233614817,333.0
97,1437233614838,333.0
98,1437233614858,333.0
99,1437233614926,333.0
100,1437233614927,332.0
101,1437233614928,332.0
102,1437233614937,332.0
103,1437233614960,331.0
104,1437233614977,331.0
105,1437233614997,331.0
106,1437233615019,331.0
107,1437233615039,330.0
108,1437233615059,330.0
109,1437233615079,331.0
110,1437233615098,331.0
111,1437233615119,330.0
112,1437233615142,330.0
113,1437233615161,330.0
114,1437233615181,330.0
115,1437233615201,330.0
116,1437233615221,330.0
117,1437233615241,330.0
118,1437233615258,329.0
119,1437233615278,329.0
120,1437233615300,329.0
121,1437233615319,329.0
122,1437233615341,328.0
123,1437233615359,327.0
124,1437233615379,327.0
125,1437233615399,325.0
126,1437233615424,325.0
127,1437233615441,321.0
128,1437233615460,321.0
129,1437233615481,317.0
130,1437233615499,317.0
131,1437233615521,313.0
132,1437233615539,313.0
133,1437233615560,308.0
134,1437233615585,304.0
135,1437233615693,304.0
136,1437233615697,303.0
137,1437233615698,303.0
138,1437233615699,302.0
139,1437233615700,302.0
140,1437233615701,302.0
141,1437233615718,302.0
142,1437233615738,304.0
143,1437233615758,304.0
144,1437233615779,313.0
145,1437233615798,322.0
146,1437233615819,322.0
147,1437233615842,331.0
148,1437233615859,331.0
149,1437233615879,341.0
150,1437233615901,341.0
151,1437233615921,339.0
152,1437233615941,339.0
153,1437233615961,339.0
154,1437233615981,339.0
155,1437233616001,335.0
156,1437233616021,323.0
157,1437233616041,323.0
158,1437233616061,316.0
159,1437233616079,316.0
160,1437233616102,312.0
161,1437233616121,312.0
162,1437233616141,306.0
163,1437233616161,306.0
164,1437233616180,302.0
165,1437233616201,302.0
166,1437233616222,304.0
167,1437233616241,310.0
168,1437233616262,310.0
169,1437233616282,319.0
170,1437233616300,319.0
171,1437233616320,328.0
172,1437233616345,328.0
173,1437233616423,342.0
174,1437233616424,342.0
175,1437233616425,347.0
176,1437233616426,347.0
177,1437233616439,346.0
178,1437233616460,348.0
179,1437233616479,348.0
180,1437233616500,346.0
181,1437233616521,346.0
182,1437233616540,333.0
183,1437233616559,333.0
184,1437233616581,324.0
185,1437233616604,324.0
186,1437233616621,314.0
187,1437233616639,314.0
188,1437233616660,305.0
189,1437233616681,305.0
190,1437233616700,303.0
191,1437233616723,307.0
192,1437233616761,307.0
193,1437233616762,314.0
194,1437233616780,314.0
195,1437233616800,323.0
196,1437233616819,323.0
197,1437233616891,331.0
198,1437233616892,331.0
199,1437233616893,344.0
200,1437233616902,344.0
201,1437233616922,347.0
202,1437233616944,338.0
203,1437233616963,338.0
204,1437233616981,334.0
205,1437233617000,334.0
206,1437233617020,330.0
207,1437233617051,330.0
208,1437233617110,322.0
209,1437233617112,322.0
210,1437233617113,316.0
211,1437233617126,316.0
212,1437233617143,311.0
213,1437233617160,304.0
214,1437233617179,304.0
215,1437233617198,300.0
216,1437233617220,300.0
217,1437233617239,303.0
218,1437233617260,303.0
219,1437233617281,309.0
220,1437233617303,309.0
221,1437233617321,318.0
222,1437233617343,318.0
223,1437233617363,324.0
224,1437233617381,338.0
225,1437233617403,338.0
226,1437233617423,349.0
227,1437233617440,349.0
228,1437233617461,345.0
229,1437233617480,345.0
230,1437233617503,341.0
231,1437233617522,341.0
232,1437233617560,336.0
233,1437233617561,336.0
234,1437233617579,324.0
235,1437233617601,314.0
236,1437233617622,314.0
237,1437233617642,308.0
238,1437233617660,308.0
239,1437233617682,300.0
240,1437233617700,300.0
241,1437233617722,296.0
242,1437233617751,296.0
243,1437233617805,294.0
244,1437233617806,294.0
245,1437233617807,298.0
246,1437233617827,305.0
247,1437233617847,305.0
248,1437233617860,313.0
249,1437233617882,313.0
250,1437233617900,322.0
251,1437233617925,322.0
252,1437233617940,334.0
253,1437233617960,334.0
254,1437233617980,332.0
255,1437233618000,332.0
256,1437233618022,324.0
257,1437233618043,323.0
258,1437233618061,323.0
259,1437233618084,317.0
260,1437233618103,317.0
261,1437233618123,308.0
262,1437233618143,308.0
263,1437233618161,303.0
264,1437233618181,303.0
265,1437233618203,296.0
266,1437233618221,296.0
267,1437233618243,292.0
268,1437233618261,289.0
269,1437233618283,289.0
270,1437233618301,289.0
271,1437233618321,289.0
272,1437233618343,294.0
273,1437233618362,294.0
274,1437233618384,301.0
275,1437233618403,301.0
276,1437233618423,307.0
277,1437233618442,307.0
278,1437233618461,319.0
279,1437233618481,319.0
280,1437233618533,330.0
281,1437233618534,330.0
282,1437233618551,330.0
283,1437233618561,326.0
284,1437233618584,326.0
285,1437233618603,318.0
286,1437233618622,318.0
287,1437233618643,307.0
288,1437233618662,307.0
289,1437233618681,304.0
290,1437233618701,304.0
291,1437233618725,298.0
292,1437233618741,291.0
293,1437233618764,291.0
294,1437233618785,289.0
295,1437233618802,289.0
296,1437233618824,288.0
297,1437233618845,288.0
298,1437233618862,292.0
299,1437233618884,292.0
300,1437233618905,298.0
301,1437233618923,298.0
302,1437233618944,305.0
303,1437233618965,311.0
304,1437233618985,311.0
305,1437233619005,322.0
306,1437233619023,322.0
307,1437233619043,327.0
308,1437233619064,327.0
309,1437233619084,322.0
310,1437233619105,322.0
311,1437233619123,317.0
312,1437233619146,317.0
313,1437233619164,308.0
314,1437233619192,300.0
315,1437233619263,300.0
316,1437233619264,294.0
317,1437233619265,294.0
318,1437233619266,286.0
319,1437233619283,286.0
320,1437233619304,283.0
321,1437233619321,283.0
322,1437233619341,282.0
323,1437233619364,282.0
324,1437233619382,285.0
325,1437233619404,292.0
326,1437233619424,292.0
327,1437233619448,300.0
328,1437233619465,300.0
329,1437233619486,306.0
330,1437233619504,306.0
331,1437233619525,319.0
332,1437233619542,319.0
333,1437233619564,329.0
334,1437233619586,329.0
335,1437233619604,327.0
336,1437233619625,324.0
337,1437233619647,324.0
338,1437233619662,318.0
339,1437233619685,318.0
340,1437233619702,306.0
341,1437233619722,306.0
342,1437233619742,300.0
343,1437233619767,300.0
344,1437233619787,293.0
345,1437233619808,293.0
346,1437233619824,290.0
347,1437233619842,288.0
348,1437233619862,288.0
349,1437233619882,288.0
350,1437233619904,288.0
351,1437233619928,292.0
352,1437233619971,292.0
353,1437233619972,300.0
354,1437233619995,300.0
355,1437233620002,307.0
356,1437233620023,307.0
357,1437233620045,318.0
358,1437233620062,318.0
359,1437233620088,332.0
360,1437233620102,336.0
361,1437233620123,336.0
362,1437233620143,335.0
363,1437233620165,335.0
364,1437233620183,328.0
365,1437233620202,328.0
366,1437233620222,317.0
367,1437233620242,317.0
368,1437233620266,312.0
369,1437233620286,312.0
370,1437233620306,310.0
371,1437233620326,311.0
372,1437233620346,311.0
373,1437233620368,318.0
374,1437233620383,318.0
375,1437233620406,323.0
376,1437233620424,323.0
377,1437233620442,324.0
378,1437233620463,324.0
379,1437233620489,322.0
380,1437233620506,322.0
381,1437233620525,320.0
382,1437233620545,317.0
383,1437233620562,317.0
384,1437233620586,315.0
385,1437233620610,315.0
386,1437233620624,313.0
387,1437233620696,313.0
388,1437233620705,310.0
389,1437233620706,310.0
390,1437233620707,305.0
391,1437233620724,305.0
392,1437233620745,301.0
393,1437233620765,295.0
394,1437233620783,295.0
395,1437233620808,287.0
396,1437233620823,287.0
397,1437233620843,283.0
398,1437233620870,283.0
399,1437233620884,286.0
400,1437233620903,286.0
401,1437233620926,297.0
402,1437233620946,297.0
403,1437233620966,310.0
404,1437233620986,323.0
405,1437233621006,323.0
406,1437233621026,334.0
407,1437233621046,334.0
408,1437233621066,329.0
409,1437233621089,329.0
410,1437233621103,321.0
411,1437233621126,321.0
412,1437233621148,318.0
413,1437233621164,318.0
414,1437233621185,313.0
415,1437233621207,301.0
416,1437233621227,301.0
417,1437233621247,300.0
418,1437233621263,300.0
419,1437233621285,299.0
420,1437233621305,299.0
421,1437233621325,299.0
422,1437233621347,299.0
423,1437233621364,304.0
424,1437233621435,304.0
425,1437233621436,309.0
426,1437233621437,311.0
427,1437233621443,311.0
428,1437233621466,309.0
429,1437233621486,309.0
430,1437233621503,301.0
431,1437233621529,301.0
432,1437233621545,294.0
433,1437233621565,294.0
434,1437233621585,292.0
435,1437233621605,292.0
436,1437233621627,291.0
437,1437233621647,292.0
438,1437233621667,292.0
439,1437233621687,300.0
440,1437233621707,300.0
441,1437233621727,307.0
442,1437233621747,307.0
443,1437233621767,318.0
444,1437233621787,318.0
445,1437233621807,324.0
446,1437233621826,324.0
447,1437233621847,325.0
448,1437233621867,325.0
449,1437233621887,327.0
450,1437233621907,318.0
451,1437233621926,318.0
452,1437233621947,301.0
453,1437233621968,301.0
454,1437233621987,293.0
455,1437233622007,293.0
456,1437233622027,288.0
457,1437233622046,288.0
458,1437233622067,283.0
459,1437233622087,283.0
460,1437233622105,287.0
461,1437233622158,296.0
462,1437233622159,296.0
463,1437233622167,305.0
464,1437233622184,305.0
465,1437233622208,316.0
466,1437233622225,316.0
467,1437233622245,327.0
468,1437233622269,327.0
469,1437233622286,322.0
470,1437233622306,322.0
471,1437233622326,315.0
472,1437233622349,310.0
473,1437233622367,310.0
474,1437233622388,303.0
475,1437233622408,303.0
476,1437233622428,297.0
477,1437233622448,297.0
478,1437233622468,295.0
479,1437233622488,295.0
480,1437233622519,294.0
481,1437233622525,294.0
482,1437233622545,299.0
483,1437233622566,302.0
484,1437233622585,302.0
485,1437233622606,300.0
486,1437233622625,300.0
487,1437233622646,296.0
488,1437233622672,296.0
489,1437233622685,291.0
490,1437233622706,291.0
491,1437233622725,284.0
492,1437233622748,284.0
493,1437233622771,281.0
494,1437233622785,277.0
495,1437233622806,277.0
496,1437233622833,281.0
497,1437233622856,281.0
498,1437233622865,289.0
499,1437233622891,289.0
500,1437233622914,298.0
501,1437233622926,298.0
502,1437233622945,311.0
503,1437233622965,311.0
504,1437233622985,322.0
505,1437233623020,324.0
506,1437233623038,324.0
507,1437233623045,323.0
508,1437233623068,323.0
509,1437233623085,314.0
510,1437233623106,314.0
511,1437233623126,299.0
512,1437233623146,299.0
513,1437233623166,291.0
514,1437233623185,291.0
515,1437233623206,285.0
516,1437233623226,283.0
517,1437233623245,283.0
518,1437233623265,289.0
519,1437233623291,289.0
520,1437233623306,298.0
521,1437233623324,298.0
522,1437233623345,309.0
523,1437233623368,309.0
524,1437233623389,325.0
525,1437233623406,325.0
526,1437233623426,343.0
527,1437233623445,343.0
528,1437233623466,348.0
529,1437233623489,335.0
530,1437233623514,335.0
531,1437233623524,318.0
532,1437233623545,318.0
533,1437233623565,308.0
534,1437233623584,308.0
535,1437233623604,298.0
536,1437233623625,298.0
537,1437233623645,286.0
538,1437233623665,286.0
539,1437233623687,282.0
540,1437233623705,284.0
541,1437233623726,284.0
542,1437233623747,292.0
543,1437233623764,292.0
544,1437233623789,302.0
545,1437233623809,302.0
546,1437233623830,314.0
547,1437233623846,314.0
548,1437233623869,329.0
549,1437233623890,329.0
550,1437233623906,334.0
551,1437233623930,333.0
552,1437233623946,333.0
553,1437233623967,325.0
554,1437233623986,325.0
555,1437233625508,313.0
556,1437233625509,313.0
557,1437233625510,302.0
558,1437233625511,302.0
559,1437233625512,293.0
560,1437233625513,293.0
561,1437233625514,286.0
562,1437233625515,284.0
563,1437233625516,284.0
564,1437233625517,286.0
565,1437233625518,286.0
566,1437233625519,295.0
567,1437233625520,295.0
568,1437233625521,305.0
569,1437233625522,305.0
570,1437233625523,315.0
571,1437233625524,315.0
572,1437233625525,323.0
573,1437233625526,323.0
574,1437233625527,323.0
575,1437233625528,314.0
576,1437233625529,314.0
577,1437233625530,304.0
578,1437233625531,304.0
579,1437233625532,290.0
580,1437233625533,290.0
581,1437233625534,282.0
582,1437233625535,282.0
583,1437233625536,277.0
584,1437233625537,271.0
585,1437233625538,271.0
586,1437233625539,269.0
587,1437233625540,269.0
588,1437233625541,274.0
589,1437233625542,274.0
590,1437233625543,282.0
591,1437233625544,282.0
592,1437233625545,288.0
593,1437233625546,288.0
594,1437233625547,303.0
595,1437233625548,315.0
596,1437233625549,315.0
597,1437233625550,316.0
598,1437233625551,316.0
599,1437233625552,310.0
600,1437233625553,310.0
601,1437233625554,304.0
602,1437233625555,304.0
603,1437233625556,297.0
604,1437233625557,297.0
605,1437233625558,292.0
606,1437233625559,291.0
607,1437233625560,291.0
608,1437233625561,294.0
609,1437233625562,294.0
610,1437233625563,297.0
611,1437233625564,297.0
612,1437233625565,297.0
613,1437233625566,297.0
614,1437233625567,293.0
615,1437233625568,293.0
616,1437233625569,288.0
617,1437233625570,288.0
618,1437233625571,282.0
619,1437233625572,277.0
620,1437233625573,277.0
621,1437233625574,273.0
622,1437233625575,273.0
623,1437233625576,272.0
624,1437233625577,272.0
625,1437233625578,278.0
626,1437233625579,278.0
627,1437233625580,287.0
628,1437233625581,287.0
629,1437233625582,295.0
630,1437233625583,307.0
631,1437233625584,307.0
632,1437233625585,302.0
633,1437233625586,302.0
634,1437233625587,287.0
635,1437233625606,287.0
636,1437233625626,275.0
637,1437233625646,275.0
638,1437233625666,268.0
639,1437233625686,268.0
640,1437233625706,262.0
641,1437233625726,259.0
642,1437233625746,259.0
643,1437233625766,254.0
644,1437233625789,254.0
645,1437233625809,258.0
646,1437233625829,258.0
647,1437233625850,268.0
648,1437233625871,268.0
649,1437233625890,274.0
650,1437233625910,274.0
651,1437233625930,284.0
652,1437233625950,302.0
653,1437233625970,302.0
654,1437233625991,308.0
655,1437233626009,308.0
656,1437233626027,301.0
657,1437233626047,301.0
658,1437233626086,288.0
659,1437233626087,288.0
660,1437233626108,277.0
661,1437233626127,277.0
662,1437233626149,272.0
663,1437233626167,269.0
664,1437233626189,269.0
665,1437233626208,272.0
666,1437233626230,272.0
667,1437233626251,281.0
668,1437233626271,281.0
669,1437233626289,292.0
670,1437233626311,292.0
671,1437233626331,300.0
672,1437233626349,300.0
673,1437233626371,299.0
674,1437233626391,286.0
675,1437233626411,286.0
676,1437233626429,275.0
677,1437233626451,275.0
678,1437233626471,265.0
679,1437233626492,265.0
680,1437233626510,254.0
681,1437233626529,254.0
682,1437233626550,246.0
683,1437233626571,246.0
684,1437233626596,240.0
685,1437233626610,239.0
686,1437233626628,239.0
687,1437233626650,247.0
688,1437233626672,247.0
689,1437233626755,258.0
690,1437233626756,258.0
691,1437233626757,265.0
692,1437233626758,265.0
693,1437233626771,278.0
694,1437233626810,278.0
695,1437233626811,292.0
696,1437233626829,301.0
697,1437233626848,301.0
698,1437233626869,310.0
699,1437233626889,310.0
700,1437233626909,314.0
701,1437233626938,314.0
702,1437233626950,300.0
703,1437233626971,300.0
704,1437233626992,290.0
705,1437233627011,290.0
706,1437233627031,286.0
707,1437233627052,286.0
708,1437233627072,288.0
709,1437233627092,298.0
710,1437233627111,298.0
711,1437233627131,312.0
712,1437233627154,312.0
713,1437233627175,318.0
714,1437233627192,318.0
715,1437233627213,312.0
716,1437233627233,312.0
717,1437233627255,290.0
718,1437233627271,290.0
719,1437233627289,278.0
720,1437233627309,271.0
721,1437233627330,271.0
722,1437233627356,260.0
723,1437233627374,260.0
724,1437233627394,250.0
725,1437233627410,250.0
726,1437233627437,240.0
727,1437233627500,240.0
728,1437233627501,236.0
729,1437233627502,236.0
730,1437233627510,239.0
731,1437233627529,249.0
732,1437233627549,249.0
733,1437233627569,261.0
734,1437233627593,261.0
735,1437233627611,268.0
736,1437233627634,268.0
737,1437233627651,277.0
738,1437233627675,277.0
739,1437233627694,285.0
740,1437233627710,285.0
741,1437233627731,294.0
742,1437233627753,303.0
743,1437233627773,303.0
744,1437233627793,301.0
745,1437233627811,301.0
746,1437233627831,287.0
747,1437233627853,287.0
748,1437233627873,279.0
749,1437233627892,279.0
750,1437233627910,275.0
751,1437233627933,275.0
752,1437233627952,278.0
753,1437233627972,287.0
754,1437233627991,287.0
755,1437233628012,302.0
756,1437233628033,302.0
757,1437233628053,310.0
758,1437233628073,310.0
759,1437233628092,315.0
760,1437233628113,315.0
761,1437233628131,297.0
762,1437233628152,297.0
763,1437233628175,274.0
764,1437233628254,256.0
765,1437233628255,256.0
766,1437233628263,234.0
767,1437233628264,234.0
768,1437233628271,217.0
769,1437233628292,217.0
770,1437233628310,210.0
771,1437233628330,210.0
772,1437233628351,204.0
773,1437233628370,204.0
774,1437233628393,204.0
775,1437233628412,208.0
776,1437233628431,208.0
777,1437233628453,215.0
778,1437233628471,215.0
779,1437233628493,218.0
780,1437233628511,218.0
781,1437233628530,230.0
782,1437233628551,230.0
783,1437233628573,246.0
784,1437233628597,246.0
785,1437233628624,254.0
786,1437233628634,254.0
787,1437233628659,255.0
788,1437233628672,246.0
789,1437233628696,246.0
790,1437233628713,236.0
791,1437233628733,236.0
792,1437233628751,235.0
793,1437233628773,235.0
794,1437233628793,233.0
795,1437233628811,233.0
796,1437233628834,231.0
797,1437233628855,231.0
798,1437233628875,236.0
799,1437233628894,244.0
800,1437233628980,244.0
801,1437233628981,248.0
802,1437233628982,248.0
803,1437233628983,256.0
804,1437233628991,256.0
805,1437233629014,248.0
806,1437233629031,248.0
807,1437233629051,227.0
808,1437233629073,227.0
809,1437233629091,212.0
810,1437233629112,197.0
811,1437233629138,197.0
812,1437233629152,185.0
813,1437233629171,185.0
814,1437233629192,183.0
815,1437233629214,183.0
816,1437233629232,179.0
817,1437233629252,179.0
818,1437233629275,179.0
819,1437233629292,179.0
820,1437233629314,184.0
821,1437233629335,190.0
822,1437233629352,190.0
823,1437233629377,194.0
824,1437233629395,194.0
825,1437233629416,203.0
826,1437233629437,203.0
827,1437233629461,215.0
828,1437233629473,215.0
829,1437233629492,227.0
830,1437233629512,227.0
831,1437233629531,237.0
832,1437233629552,245.0
833,1437233629578,245.0
834,1437233629600,237.0
835,1437233629612,237.0
836,1437233629743,229.0
