id,attr_time,attr_db
1,1436980334275,37.0485470925883
2,1436980335002,37.1947609334248
3,1436980335710,41.0767726723595
4,1436980336444,42.3508784448844
5,1436980337185,46.0483508336213
6,1436980337924,59.8612176486137
7,1436980338652,62.6855155121134
8,1436980339406,69.2363120851684
9,1436980340114,49.3918019803226
10,1436980340843,67.0435301996194
11,1436980341583,46.7747849106635
12,1436980342334,56.5165456326687
13,1436980343140,51.2206345338302
14,1436980343839,40.3920207934541
15,1436980344581,58.5998376851076
16,1436980345336,52.0308221029319
17,1436980346128,47.312819628485
18,1436980346791,57.1340837531523
19,1436980347498,45.1431094926366
20,1436980348275,40.5706063553921
21,1436980349011,36.0058448380015
22,1436980349735,51.6628032622989
23,1436980350425,46.1236350540933
24,1436980351267,58.6607510037818
25,1436980351994,51.2907074852457
26,1436980352715,49.3184813787025
27,1436980353416,47.0500060304927
28,1436980354151,42.3011447866649
29,1436980354817,45.6671711823172
30,1436980355585,48.9166178742234
31,1436980356309,49.171757773292
32,1436980357034,54.815093375041
33,1436980357751,37.9126799648851
34,1436980358462,35.0098182296434
35,1436980359216,43.334912169995
36,1436980359954,44.0566945073016
37,1436980360729,45.9701422530765
38,1436980361472,41.5365582935034
39,1436980362181,40.2583621258375
40,1436980362907,39.7402216543471
41,1436980363649,43.910950188848
42,1436980364374,44.0552611928589
43,1436980365097,43.7407114222282
44,1436980365870,48.6863059154798
45,1436980366493,32.4356625274464
46,1436980367197,37.8813284635903
47,1436980367914,44.6546486362935
48,1436980368639,48.4444047047161
49,1436980369369,44.1699213512693
50,1436980370112,29.2265973745457
51,1436980370771,58.2093651883446
52,1436980371394,46.4401892210243
53,1436980372116,35.8779376538614
54,1436980372813,32.6115896282472
55,1436980373532,33.2803875786827
56,1436980374313,41.3504401329125
57,1436980375028,46.2230962083955
58,1436980375757,47.4464564630518
59,1436980376488,37.406577405826
60,1436980377162,36.3343056331682
61,1436980377860,40.607021198181
62,1436980378594,40.6428726924852
63,1436980379357,46.2296993860885
64,1436980380090,46.3100579660638
65,1436980380809,42.7871638589474
66,1436980381544,58.9133535983833
67,1436980382241,44.8037418665889
68,1436980382963,16.7495768605754
69,1436980383689,43.0474525138855
70,1436980384413,48.9353608281922
71,1436980385209,40.1108170190531
72,1436980385957,26.192523615289
73,1436980386660,49.6439211421954
74,1436980387361,40.2416491453051
75,1436980388011,36.0375166603532
76,1436980388750,38.9867729112776
77,1436980389494,61.1828555319613
78,1436980390284,54.2666514854171
79,1436980391067,61.2398314931543
80,1436980391733,63.7427540447223
81,1436980392447,50.5469023665793
82,1436980393204,46.0826657322136
83,1436980393919,45.9277550557292
84,1436980394651,44.8356151230227
85,1436980395467,54.4124033798946
86,1436980396215,48.0048763805517
87,1436980396919,57.280497512531
88,1436980397563,45.4945561097004
89,1436980398223,31.7627748517814
90,1436980398930,58.6918789850211
91,1436980399673,37.5631286440642
92,1436980400440,20.8401029836913
93,1436980401176,41.128320615008
94,1436980401789,34.7308910348721
95,1436980402475,42.6182907268799
96,1436980403201,41.4741175185897
97,1436980403933,49.2312163116819
98,1436980404657,41.7177056445998
99,1436980405481,40.2978885974328
100,1436980406202,24.4155959976008
101,1436980406931,16.1044047862628
102,1436980407672,32.2141287339148
103,1436980408446,15.2313036729285
104,1436980409172,46.4179067731662
105,1436980409887,48.7879369452433
106,1436980410682,45.789557094112
107,1436980411336,41.8172684763481
108,1436980412043,14.8944399853208
109,1436980412781,37.8662799330498
110,1436980413500,53.160231113508
111,1436980414217,44.4131745042999
112,1436980414947,43.5110603063865
113,1436980415674,21.2524196141392
114,1436980416400,40.2916886532845
115,1436980417135,14.7211917956621
116,1436980417862,46.4162525302183
117,1436980418601,45.909211691318
118,1436980419366,42.210810740818
119,1436980420102,38.5538718501138
120,1436980420823,38.9022492301875
121,1436980421540,41.6178090450436
122,1436980422325,48.1685603890756
123,1436980423045,40.8339382309579
124,1436980423767,48.9870126363909
125,1436980424484,44.6563440982163
126,1436980425087,43.9622480205667
127,1436980425812,45.5623777672249
128,1436980426535,35.1445422089778
129,1436980427290,42.9857202271497
130,1436980427995,40.5069726827294
131,1436980428716,16.9297587926033
132,1436980429453,43.821158098034
133,1436980430172,45.6514510027564
134,1436980430870,45.2384776317012
135,1436980431555,34.2573492121792
136,1436980432299,44.3027671621198
137,1436980433035,42.9846233051959
138,1436980433758,32.9155323602124
139,1436980434487,45.4673869646829
140,1436980435236,44.7097985585132
141,1436980435901,44.7979538273368
142,1436980436625,57.4460264016732
143,1436980437367,32.4758116398675
144,1436980438112,20.8288118813326
145,1436980438822,56.8450246529602
146,1436980439529,45.9099798264244
147,1436980440333,33.9696230227459
148,1436980441057,18.7861745957328
149,1436980441771,47.9489974315228
150,1436980442436,50.0533717326011
151,1436980443144,39.8838110880453
152,1436980443891,44.1621168889159
153,1436980444577,33.8569055099883
154,1436980445210,20.0292503909137
155,1436980445883,45.3803168458903
156,1436980446621,45.3604933501037
157,1436980447372,38.5518580797708
158,1436980448081,37.602684071486
159,1436980448781,52.9910444057275
160,1436980449495,46.0393106231188
161,1436980450201,37.5352817643409
162,1436980450878,18.7369587649106
163,1436980451495,41.4335709059382
164,1436980452191,41.2061761662948
165,1436980452915,39.9694716710089
166,1436980453630,39.5183628057109
167,1436980454346,14.6243768227864
168,1436980455063,20.5627338530732
169,1436980456687,50.1060370279599
170,1436980457411,39.7934518144545
171,1436980458127,11.1471370275743
172,1436980458858,20.7496134999661
173,1436980459562,13.1266682342651
174,1436980460283,9.44772541367989
175,1436980460937,11.2667969236483
176,1436980461599,48.4557137026823
177,1436980462314,23.4411633661717
178,1436980463046,7.53543155020284
179,1436980463775,23.297811225426
180,1436980464521,33.7883559689696
181,1436980465255,11.1749181817135
182,1436980465954,36.1462532332596
183,1436980467815,19.1329335881514
184,1436980468496,47.9620067404175
185,1436980469276,29.3878314003489
186,1436980470018,42.1240613515012
187,1436980470785,7.8695772175213
188,1436980471520,49.1537168351421
189,1436980472195,41.2977412985276
190,1436980472924,18.0690423388126
191,1436980473608,12.0516360460541
192,1436980474335,35.0499305564495
193,1436980475075,28.3183332097296
194,1436980475852,38.7073521388033
195,1436980476521,46.7295679783013
196,1436980477234,54.2660965147656
197,1436980477944,47.2416586175367
198,1436980478676,39.0687799401801
199,1436980479407,7.92541664714513
200,1436980480120,37.3943667581717
201,1436980482282,12.0930962185114
202,1436980482961,17.9486720615841
203,1436980483684,37.6546988133962
204,1436980484422,42.4275182414541
205,1436980485163,38.1286403896262
206,1436980485937,29.660965427807
207,1436980486689,40.2491922799175
208,1436980487427,48.3677456766078
209,1436980488132,49.4034259835355
210,1436980488850,58.1886258428634
211,1436980489504,11.0133467566382
212,1436980490848,47.5596923659217
213,1436980491511,19.0276243383414
214,1436980492202,52.0555240801752
215,1436980492935,36.7098942885535
216,1436980493666,9.79985564068447
217,1436980494404,11.9688464122356
218,1436980495091,10.3196336961102
219,1436980495810,58.6279820343891
220,1436980496542,57.4977589279205
221,1436980497232,47.4285475049539
222,1436980497964,41.4911839573378
223,1436980498691,46.1678347960701
224,1436980499403,30.643058162075
225,1436980500061,10.6874130320136
226,1436980500793,26.9013879454392
227,1436980501572,48.0688322423115
228,1436980502240,40.6394088804918
229,1436980502940,47.0433864554179
230,1436980503651,48.9320775096023
231,1436980504394,34.7532533511067
232,1436980505148,44.509499810225
233,1436980505886,8.74658494723773
234,1436980506627,58.6641952778781
235,1436980507323,41.3128764832116
236,1436980508024,42.8197697651331
237,1436980508750,55.4839560506331
238,1436980509459,37.8762643970182
239,1436980510282,46.8781847275702
240,1436980511034,28.720973726581
241,1436980511750,41.3566455439566
242,1436980512414,11.0000535379698
243,1436980513108,11.5504699516572
244,1436980513813,12.0224036872839
245,1436980514538,37.3454308482212
246,1436980515281,42.9136412776023
247,1436980516081,44.6746974606831
248,1436980516793,56.5327835553459
249,1436980517538,44.5629913651793
250,1436980518297,17.4542282582164
251,1436980519019,13.7885180477339
252,1436980519725,12.979294879136
253,1436980520511,14.5021790655789
254,1436980521281,12.6283318875104
255,1436980521998,55.2724921652816
256,1436980522733,48.503491293303
257,1436980523486,17.5477818453176
258,1436980524058,44.7201898893582
259,1436980524761,26.4436945273097
260,1436980525448,43.4002565116504
261,1436980526295,28.0226913002855
262,1436980526994,28.9930045923549
263,1436980527675,39.5276940622569
264,1436980528415,36.6904888560615
265,1436980529157,19.9673082297889
266,1436980529860,44.6207832516667
267,1436980530495,35.1525835332258
268,1436980531177,41.9491899383995
269,1436980531873,40.2902985284856
270,1436980532476,34.3220888449764
271,1436980533122,32.1097274081977
272,1436980533844,23.9734599974562
273,1436980534499,39.685886731196
274,1436980535125,34.580751760634
275,1436980535846,38.467093735382
276,1436980536509,20.3587848471748
277,1436980537271,12.13319557941
278,1436980537975,45.225100493737
279,1436980538712,24.4980875915244
280,1436980539451,13.366796792401
281,1436980540133,25.0378654482656
282,1436980540833,37.4199466545394
283,1436980541551,42.1907467345393
284,1436980542291,45.9743057410828
285,1436980543012,47.8741334877539
286,1436980543763,35.4482770042578
287,1436980544483,39.2643967608751
288,1436980545255,31.3722388675279
289,1436980545958,45.8069926466129
290,1436980546695,40.291577193227
291,1436980547416,39.6156871082997
292,1436980548134,46.8806857390978
293,1436980548854,31.8845952915016
294,1436980549653,36.9494651018239
295,1436980550429,41.3569578945355
296,1436980551143,45.0674604811293
297,1436980551859,48.8390592986672
298,1436980552613,56.5985950535346
299,1436980553347,41.266391626937
300,1436980554060,58.8689741994185
301,1436980554852,52.1684782902725
302,1436980555577,14.4880022264618
303,1436980556340,24.2408949840011
304,1436980557042,40.3707486105599
305,1436980557749,48.9116616509383
306,1436980558466,42.8071654572076
307,1436980559226,39.9112065641669
308,1436980559925,27.9452153386316
309,1436980560624,34.5764085279092
310,1436980561264,42.3273041600021
311,1436980561955,49.2393933002866
312,1436980562687,20.3340511972296
313,1436980563414,31.6934792314694
314,1436980564129,39.0040085928755
315,1436980564907,53.1951225554453
316,1436980565634,47.2676710687306
317,1436980566516,45.6861384632201
318,1436980567243,35.1226207456908
319,1436980567964,44.3930160327017
320,1436980568691,24.7088269761765
321,1436980569429,27.9740159428264
322,1436980570155,26.51092897135
323,1436980570884,17.9338479083155
324,1436980571620,43.7510611185474
325,1436980572344,41.5000838859509
326,1436980572986,13.914994645009
327,1436980573662,52.770422732693
328,1436980574398,52.5434511087394
329,1436980575114,43.0649858746275
330,1436980575827,38.4059255225217
331,1436980576554,34.3062995765955
332,1436980577297,44.1087518602802
333,1436980578020,16.1930304366174
334,1436980578743,32.3385520419093
335,1436980579468,42.1310110384077
336,1436980580252,39.6254191245283
337,1436980580961,34.0857025363281
338,1436980581677,29.1027586148443
339,1436980582434,39.8630694502513
340,1436980583144,44.1225355642527
341,1436980583862,11.6338084962416
342,1436980584595,43.3959588359447
343,1436980585357,50.8246206072185
344,1436980586083,27.6246238875275
345,1436980586862,44.3197957678892
346,1436980587584,32.2060040267817
347,1436980588344,30.0363590446187
348,1436980589047,40.1321810354958
349,1436980589786,26.7917851928615
350,1436980590590,35.7289469111376
351,1436980591329,36.8885969307748
352,1436980592087,44.2322218528804
353,1436980592827,46.8111641283565
354,1436980593571,41.3502817515901
355,1436980594341,47.7487136694914
356,1436980595059,38.3267684566335
357,1436980595786,48.7442486490434
358,1436980596530,44.7953304364445
359,1436980597221,18.0395310045602
360,1436980597948,34.4356414120224
361,1436980598665,37.6543801268089
362,1436980599406,15.2760455229159
363,1436980600151,47.7367165821513
364,1436980600867,35.9609935429054
365,1436980601574,45.0277750929046
366,1436980602290,38.9106404697233
367,1436980603027,44.9712811940684
368,1436980603771,20.778589834662
369,1436980604537,44.2924392617254
370,1436980605253,26.5830441339205
371,1436980605898,54.9275100274232
372,1436980606611,37.5878297843008
373,1436980607358,42.61615569204
374,1436980608106,40.9153252608099
375,1436980608817,8.84581674424578
376,1436980609567,45.474546124036
377,1436980610321,42.9813333987846
378,1436980610968,45.5385579327459
379,1436980611679,37.2087583139344
380,1436980612391,42.4528966679541
381,1436980613135,14.0993641384922
382,1436980613856,42.6588236657781
383,1436980614579,25.1049697533088
384,1436980615253,34.2173799991477
385,1436980615873,25.3018205466353
386,1436980616584,38.2822395603634
387,1436980617311,25.5756445048009
388,1436980618009,18.8892641465075
389,1436980618730,45.3573322134729
390,1436980619466,8.03906880813695
391,1436980620150,38.2100149299641
392,1436980620881,38.3298794226178
393,1436980621613,39.9423769971831
394,1436980622329,43.4427435845608
395,1436980623069,14.5207531218454
396,1436980623807,33.1813870346639
397,1436980624540,32.9711016140051
398,1436980625258,43.5332818601978
399,1436980625962,38.0741571298401
400,1436980626644,38.8676926762084
401,1436980627375,14.4601110649567
402,1436980628097,15.0644042077048
403,1436980628828,44.3745209935864
404,1436980629585,10.3693171572777
405,1436980630354,8.04828464310743
406,1436980631108,9.98534120695228
407,1436980631780,45.3044093296512
408,1436980632504,31.3325136596624
409,1436980633201,15.7601063185517
410,1436980633864,26.5096925863025
411,1436980634568,12.1974304773607
412,1436980635297,39.1598298322895
413,1436980635981,27.5244864608791
414,1436980636605,38.8937353196801
415,1436980637291,9.13615546481171
416,1436980638012,13.7735082178259
417,1436980638717,31.2985137190853
418,1436980639430,35.189540534707
419,1436980640109,44.6608490958957
420,1436980640787,27.037614686039
421,1436980641506,43.3514417677829
422,1436980642241,33.7962102526034
423,1436980642982,50.4180701488243
424,1436980643707,29.3527094946267
425,1436980644440,44.6969598649806
426,1436980645220,43.5009983356695
427,1436980645934,43.2462501989173
428,1436980646657,41.3255231976993
429,1436980647371,58.2544199675143
430,1436980648123,43.7509029685166
431,1436980648822,37.1144035578665
432,1436980649548,37.9494945725372
433,1436980650316,10.3620932827876
434,1436980651033,37.2063918411841
435,1436980651756,45.6170273728606
436,1436980652489,54.5704851589797
437,1436980653202,44.0514294804819
438,1436980653867,50.0856242786404
439,1436980654537,32.7243133880511
440,1436980655331,33.6319617048909
441,1436980656060,26.6474062749849
442,1436980656777,9.47057292046079
443,1436980657511,33.9248416883049
444,1436980658187,22.4323812743565
445,1436980658913,21.784958362195
446,1436980659604,14.2955716445395
447,1436980661346,13.8612885600606
448,1436980662032,17.220696902142
449,1436980662747,26.3422059443251
450,1436980663463,48.4952969940378
451,1436980664197,36.241662743558
452,1436980664942,30.5659275386719
453,1436980665670,10.5268456126956
454,1436980666383,46.1047095193768
455,1436980667053,52.9475720747396
456,1436980667712,37.4596872845749
457,1436980668421,14.1380306350697
458,1436980669159,39.8692375559005
459,1436980669886,48.2827780984538
460,1436980670618,38.2870476168883
461,1436980671397,55.7384793043823
462,1436980672109,42.8668439027083
463,1436980672803,44.6421343639244
464,1436980673426,37.4376086706915
465,1436980674061,43.2245356924388
466,1436980675679,42.8540760086641
467,1436980676395,41.1602578342916
468,1436980677125,36.4844331523105
469,1436980677713,44.7053808266833
470,1436980678410,40.6398012313518
471,1436980679113,36.353989302969
472,1436980679829,15.5924851168624
473,1436980680546,39.807250792301
474,1436980681332,49.2331009269505
475,1436980682051,13.3385348054239
476,1436980682746,46.6296574663332
477,1436980683502,12.641609096306
478,1436980684154,19.0675595334629
479,1436980684872,36.2720341863152
480,1436980685584,33.2862868680069
481,1436980686311,13.4608415335223
482,1436980687041,11.2650369550678
483,1436980687749,13.2904648331038
484,1436980688506,41.5359247568552
485,1436980689237,40.8609538830796
486,1436980689963,30.6354872683702
487,1436980690753,12.7422896880981
488,1436980691478,49.8152259244206
489,1436980692226,22.3317681098428
490,1436980692932,43.3129238161414
491,1436980693597,38.7302871938724
492,1436980694191,44.1019267190121
493,1436980694875,28.3466226413676
494,1436980695602,49.2529473271487
495,1436980696374,29.4952693557741
496,1436980698373,18.6382548821481
497,1436980699091,45.9764958267699
498,1436980699791,44.5303066471868
499,1436980700538,42.1956259723754
500,1436980701228,17.695643533332
501,1436980701900,49.8591580659058
502,1436980702632,34.9723975532931
503,1436980703354,38.7564652547871
504,1436980704066,24.7567861803181
505,1436980704775,38.2747092763986
506,1436980705506,60.5892856635288
507,1436980706237,11.3858728028176
508,1436980706962,45.4270124464924
509,1436980707678,36.1613447828416
510,1436980708356,48.7458056319499
511,1436980709101,43.1732798358433
512,1436980711059,35.5197421861219
513,1436980711747,43.1874418000025
514,1436980712523,38.6573806127866
515,1436980713243,37.484895227723
516,1436980713957,10.5198955710413
517,1436980714621,54.941059903165
518,1436980715322,45.8867757042435
519,1436980716095,38.1191350907204
520,1436980716827,40.3559642489496
521,1436980717573,22.2098619746164
522,1436980718247,16.1385388738587
523,1436980718960,36.3995779726073
524,1436980719692,12.984309747725
525,1436980720429,31.2955221133963
526,1436980721147,26.866968168223
527,1436980721873,16.2458626142903
528,1436980722589,47.5697585063955
529,1436980723310,37.0897373544534
530,1436980724047,40.0016947197368
531,1436980724765,11.0424734211514
532,1436980725492,42.2201600577043
533,1436980726219,45.4088162643477
534,1436980726947,48.0718493732201
535,1436980727704,47.1950894630905
536,1436980728393,32.9332459209533
537,1436980729040,27.0606502525203
538,1436980729769,33.3336048425712
539,1436980730482,38.8015492753657
540,1436980731293,32.7565852591458
541,1436980732022,11.9116477208764
542,1436980732740,30.4356702733391
543,1436980733462,40.502071333268
544,1436980734202,29.5311176426762
545,1436980734876,36.1565116749713
546,1436980735573,46.3020866218448
547,1436980736422,49.4745292549186
548,1436980737127,38.1317317701841
549,1436980737857,34.2641750725663
550,1436980738581,40.675325082429
551,1436980739235,39.7542681028099
552,1436980739972,15.1738464307674
553,1436980740687,40.1634070973897
554,1436980741497,33.8821803298171
555,1436980742227,14.5957013406249
556,1436980742873,27.5822707159288
557,1436980743477,26.131181258408
558,1436980744101,18.3137896373539
559,1436980744791,45.9976416481173
560,1436980745507,20.2098512255857
561,1436980746231,35.6354320922105
562,1436980746976,34.4562698972455
563,1436980747693,38.2298446446751
564,1436980748436,41.0266085213773
565,1436980749093,45.2766426258918
566,1436980749846,49.0322962497485
567,1436980750573,19.5957149869275
568,1436980751403,45.1981952158701
569,1436980752117,43.5089477133033
570,1436980752835,43.4914453734551
571,1436980753519,36.4149261268298
572,1436980754199,47.3931169830137
573,1436980754901,39.4432611037117
574,1436980755472,45.661199024242
575,1436980756192,23.3796115238697
