id,attr_time,attr_db
1,1436980333697,34.8713040792921
2,1436980334345,51.0395418141002
3,1436980335074,40.092481386046
4,1436980335812,49.9235139482098
5,1436980336546,49.265777468223
6,1436980337283,34.9768099611857
7,1436980338015,40.7510039519653
8,1436980338748,50.8800338052152
9,1436980339475,54.9116145874263
10,1436980340226,57.9062177880927
11,1436980340869,65.6546780306691
12,1436980341574,61.1129053381419
13,1436980342286,54.9315425056332
14,1436980343022,45.3295679712186
15,1436980343733,56.6289303872578
16,1436980344369,66.1348967569293
17,1436980345102,49.0318675979617
18,1436980345814,64.7910737738477
19,1436980346592,45.2255137159194
20,1436980347314,58.7445987451758
21,1436980348051,52.4430209094116
22,1436980348788,56.8152109122386
23,1436980349519,62.3633310409558
24,1436980350251,48.7278688427255
25,1436980350887,60.0322641158577
26,1436980351608,58.3250541071665
27,1436980352332,57.5953925837124
28,1436980353109,41.5397414160765
29,1436980353872,48.6204295177124
30,1436980354608,46.4084843416867
31,1436980355281,52.4659932339701
32,1436980356019,39.2850381824598
33,1436980356747,53.0867468220774
34,1436980357477,38.899817851309
35,1436980358199,40.7569368828712
36,1436980358943,54.1753607688368
37,1436980359701,48.0250548065782
38,1436980360456,55.0497173980097
39,1436980361200,40.4815953934742
40,1436980361888,44.3699295068471
41,1436980362632,64.4073187474322
42,1436980363354,63.0339940062156
43,1436980364074,57.5420416657019
44,1436980364785,37.1776273361521
45,1436980365433,61.1472324802583
46,1436980366134,39.6666595649113
47,1436980366861,60.1162793477327
48,1436980367591,44.3919136155787
49,1436980368337,56.4796256460322
50,1436980369083,32.6246717593906
51,1436980369806,33.6204028535953
52,1436980370535,34.9698511550462
53,1436980371267,42.2638531949685
54,1436980371993,37.6010448300502
55,1436980372665,49.0782542482904
56,1436980373410,36.3593955313965
57,1436980374133,59.080973370473
58,1436980374948,47.6650516756611
59,1436980375726,46.5975100652192
60,1436980376447,38.6430869029509
61,1436980377190,37.7472837652784
62,1436980377904,38.3289214301511
63,1436980378630,42.7228517325241
64,1436980379383,57.4132779900712
65,1436980380179,39.9996445753863
66,1436980380909,46.6179106338349
67,1436980381633,17.3749208331053
68,1436980382361,56.2256359280847
69,1436980383065,59.8347007139639
70,1436980383737,46.6716085815384
71,1436980384467,37.4978288535503
72,1436980385203,32.4462467669725
73,1436980385804,30.8519499227853
74,1436980386540,42.5358352726107
75,1436980387203,43.0361118011121
76,1436980387910,41.1740823212332
77,1436980388629,42.5176660482262
78,1436980389372,45.8938826607556
79,1436980390150,54.7525949915595
80,1436980390867,66.2812768824734
81,1436980391517,60.978045402072
82,1436980392239,46.9202601707967
83,1436980392950,57.5680587837797
84,1436980393676,36.1223720149196
85,1436980394407,37.9651620372615
86,1436980395149,55.4252692878411
87,1436980396018,39.2717259430669
88,1436980396713,33.2052555988567
89,1436980397384,36.9007600655075
90,1436980398111,52.0089389209585
91,1436980398849,49.1713738270894
92,1436980399565,47.9995725449459
93,1436980400343,58.0129419017015
94,1436980401068,48.86133795603
95,1436980401795,55.0907791719462
96,1436980402526,34.1698488997628
97,1436980403268,46.8461734737955
98,1436980404002,40.3155839062282
99,1436980404717,35.5622404923105
100,1436980405414,46.7147606770732
101,1436980406085,55.4614440770242
102,1436980406860,24.8007705279897
103,1436980407599,46.5436693786302
104,1436980408324,34.1193593390661
105,1436980409033,55.2263512647134
106,1436980410551,31.8161059207832
107,1436980411239,68.8969433556493
108,1436980411986,33.9529818662939
109,1436980412742,48.6153673315738
110,1436980413487,48.5263138551049
111,1436980414229,33.5877136946666
112,1436980414887,43.5193346715109
113,1436980415569,54.6237137991497
114,1436980416224,44.5753069817745
115,1436980416909,53.5231061546962
116,1436980417628,23.8646159422193
117,1436980418351,63.8530461000618
118,1436980419008,56.2619811745532
119,1436980420482,47.2482807173291
120,1436980421165,56.0006774289645
121,1436980421888,57.1296141779757
122,1436980422611,46.9963880148558
123,1436980423333,58.526844789417
124,1436980424088,42.6667257080215
125,1436980424821,47.2238486567891
126,1436980425504,49.9903476254528
127,1436980426194,42.8362814065196
128,1436980426951,42.165714211582
129,1436980427697,46.2701984519779
130,1436980428450,28.258789827541
131,1436980429145,58.8883044796283
132,1436980429881,20.0431002840994
133,1436980430608,35.3199796203891
134,1436980431345,18.5244222591248
135,1436980432053,37.5930564388307
136,1436980432800,38.9696462812835
137,1436980433539,45.4488273581322
138,1436980434197,28.5552811031072
139,1436980435742,39.3201251247622
140,1436980436426,55.1644997764428
141,1436980437060,26.9693337703927
142,1436980437812,27.250744665429
143,1436980438532,57.629562504675
144,1436980439284,47.7259288333951
145,1436980440124,46.0100912027665
146,1436980440808,47.1009051487623
147,1436980441529,42.8536702820715
148,1436980442268,37.9089677693112
149,1436980442989,39.4001755264998
150,1436980444530,46.1069627789141
151,1436980445240,42.1341115602933
152,1436980446055,45.1356799952138
153,1436980446739,36.1776921008765
154,1436980447445,13.9611504745702
155,1436980448194,51.2631951074603
156,1436980448924,43.219166996664
157,1436980449596,37.7275881956249
158,1436980450416,43.8104032260419
159,1436980451196,49.3394663701926
160,1436980451943,44.6373595470418
161,1436980452678,58.8899478197091
162,1436980453411,30.229924604558
163,1436980454146,30.3393427313073
164,1436980454886,35.8762031988489
165,1436980455640,53.4045524017627
166,1436980456367,49.0583562957652
167,1436980457092,35.9237285515918
168,1436980457819,15.0349130690101
169,1436980458545,42.4398090211088
170,1436980459285,16.3248725400153
171,1436980460016,29.9192590334101
172,1436980460747,33.4137067627998
173,1436980461437,35.0513864885735
174,1436980462173,38.4728224734666
175,1436980462894,31.9624857714996
176,1436980463630,64.460763324795
177,1436980464367,39.0160942777311
178,1436980465110,63.1636937473936
179,1436980465860,50.506384269791
180,1436980466481,40.6650991751322
181,1436980467173,22.4488028000574
182,1436980467918,57.4175000803841
183,1436980468648,43.5323972713733
184,1436980469390,35.6531891670504
185,1436980470151,33.2279623701417
186,1436980470940,37.3051933669504
187,1436980471620,53.1505743357853
188,1436980472341,33.4407985518574
189,1436980473072,10.0225508981332
190,1436980473804,26.0014244351806
191,1436980474530,49.8919234579089
192,1436980475244,36.4181866157543
193,1436980475927,29.1589590072049
194,1436980476657,49.8715222632917
195,1436980477386,36.8035277366651
196,1436980478017,49.5289895224649
197,1436980478755,11.2404336434679
198,1436980479494,21.610555060739
199,1436980480243,51.5292585196108
200,1436980481023,22.423236498952
201,1436980481686,9.56062395040585
202,1436980482407,55.1898012011309
203,1436980483123,22.4712686875196
204,1436980483864,38.4315657871713
205,1436980484660,45.3881444654444
206,1436980485407,37.3453719633124
207,1436980486155,47.3972965798294
208,1436980486894,48.9711964855699
209,1436980487620,33.0574418566221
210,1436980488323,46.8517013382476
211,1436980489062,12.1919929045841
212,1436980489815,37.012635037072
213,1436980490574,13.4547951718113
214,1436980491328,15.9841584668138
215,1436980492051,40.7447806197351
216,1436980492802,38.6665282047474
217,1436980493541,57.5452417630963
218,1436980494294,9.88503178010385
219,1436980495030,34.6520862742106
220,1436980495765,8.65616268250329
221,1436980496516,9.57424814987327
222,1436980497249,45.9368360475808
223,1436980497884,11.5139090866684
224,1436980498569,12.7491411779289
225,1436980499285,22.3182034595244
226,1436980500063,54.1422529662055
227,1436980500805,8.1533069302341
228,1436980501475,54.4056790921419
229,1436980502211,40.9163286852984
230,1436980502951,52.372852655682
231,1436980503687,12.0490832165683
232,1436980504424,28.3868246032399
233,1436980505160,7.61765996485436
234,1436980505836,44.8590212396708
235,1436980506460,43.1126235515655
236,1436980507200,37.1910510219759
237,1436980507922,21.7998730471521
238,1436980508655,32.0715162360779
239,1436980509310,25.1221562751248
240,1436980510062,28.5016880247377
241,1436980510803,35.2557442952377
242,1436980511535,32.6540757545008
243,1436980512240,10.9259497070819
244,1436980512960,22.6116146550448
245,1436980513707,11.8688238677499
246,1436980514453,43.5018980507709
247,1436980515197,41.7704036234722
248,1436980515937,45.3693668663893
249,1436980516677,48.8627174770182
250,1436980517386,34.211599046471
251,1436980518082,12.8823887500704
252,1436980518731,13.7288713216714
253,1436980519474,15.313687197587
254,1436980520228,11.1521282108316
255,1436980520990,11.5776901017743
256,1436980521728,59.7881375038627
257,1436980522462,51.0125972812219
258,1436980523208,19.4228650985622
259,1436980523947,47.9798350218055
260,1436980524680,40.1364820297311
261,1436980525446,41.9861970648884
262,1436980526144,42.142947955558
263,1436980526841,42.1252051619842
264,1436980527632,33.8898134155375
265,1436980528362,15.3500245942865
266,1436980529057,46.6704155011551
267,1436980529695,46.3996138282006
268,1436980530500,56.9667935338676
269,1436980531255,55.8312870947933
270,1436980531979,54.3317361526499
271,1436980532705,38.7978614380471
272,1436980533436,25.1986634317704
273,1436980534171,53.7029530772046
274,1436980534988,58.6963945629221
275,1436980535718,54.3438867410915
276,1436980536455,59.0571457566307
277,1436980537207,59.2697991748571
278,1436980537951,48.0434829836064
279,1436980538670,25.4091981483069
280,1436980539351,48.4421907018754
281,1436980540074,43.2130432584676
282,1436980540871,49.88701998217
283,1436980541612,40.8715739927654
284,1436980542336,48.9138392144639
285,1436980543091,47.6442408572921
286,1436980543834,50.3213098345015
287,1436980544570,36.9138145574404
288,1436980545298,58.5285711970759
289,1436980546030,55.9252621913851
290,1436980546724,49.7176090660433
291,1436980547468,29.7683311399764
292,1436980548193,43.4376943015573
293,1436980548922,26.2125754476631
294,1436980549648,44.2427256328525
295,1436980550389,37.4542362726322
296,1436980551117,34.2289939484624
297,1436980551885,36.5824924147361
298,1436980552577,58.3936244374583
299,1436980553212,29.9127384867887
300,1436980553912,57.2794154427983
301,1436980554653,51.7409586932921
302,1436980555377,13.5727255111196
303,1436980556098,58.0656232205418
304,1436980556773,46.1390436040225
305,1436980557416,40.5489064928815
306,1436980558058,38.689592168976
307,1436980558657,34.0013230929227
308,1436980559318,57.8004567970121
309,1436980560052,36.2192396166263
310,1436980560671,54.4370823803111
311,1436980561362,19.6880766272455
312,1436980562082,14.076266562694
313,1436980562799,52.2203686254591
314,1436980563547,48.9400076795422
315,1436980564291,43.2353955569392
316,1436980565087,29.1931071091794
317,1436980565835,47.085344789322
318,1436980566565,47.8856857322507
319,1436980567240,46.1028855553128
320,1436980567971,19.3344590146031
321,1436980568709,50.4509175693576
322,1436980569442,56.8577891738926
323,1436980570140,27.6644576327021
324,1436980570850,47.5794985174713
325,1436980571583,40.6916708923613
326,1436980572302,34.7445182853795
327,1436980573032,39.0932174386711
328,1436980573714,67.163715673324
329,1436980574454,32.6905241825535
330,1436980575198,50.0787426776915
331,1436980575924,38.0975182358479
332,1436980576659,31.2713545768276
333,1436980577399,32.1827978211331
334,1436980578127,36.8547373939047
335,1436980578863,12.3664521436741
336,1436980579594,50.9084060052806
337,1436980580308,11.5433619270954
338,1436980581022,39.6546330216332
339,1436980581771,47.9017319186515
340,1436980582498,40.3797312799751
341,1436980583198,40.8314316486065
342,1436980583868,39.6122335467099
343,1436980584612,25.1273730031108
344,1436980585348,58.7350439781274
345,1436980586087,37.3727203165597
346,1436980586940,46.1985066226804
347,1436980587715,44.9394508971184
348,1436980588447,43.6191781312939
349,1436980589199,46.121369815405
350,1436980589934,48.7564611683559
351,1436980590666,41.2081521749523
352,1436980591312,63.1718558578347
353,1436980592057,39.4564290551928
354,1436980592822,57.5086608259087
355,1436980593553,56.3138878086702
356,1436980594241,40.3531761745998
357,1436980594916,53.6726915910303
358,1436980595631,37.4366975628575
359,1436980596380,57.2996285573958
360,1436980597104,56.7958802850133
361,1436980597831,41.2522556816002
362,1436980598574,51.3091183974626
363,1436980599316,58.490641276499
364,1436980600051,33.2821718828167
365,1436980600814,43.8744898227013
366,1436980601473,46.1451713816945
367,1436980602169,48.9370661316242
368,1436980602854,40.9210779417713
369,1436980603549,24.0465679987629
370,1436980604267,26.2039185189147
371,1436980604988,14.7218581725574
372,1436980605721,39.4116755764506
373,1436980606456,48.4078913430367
374,1436980607194,33.8383262887779
375,1436980607933,46.0384342828667
376,1436980608664,10.4999388655907
377,1436980609402,37.6601332249238
378,1436980610141,51.0421183824651
379,1436980610956,45.1270501537662
380,1436980611611,43.881294728501
381,1436980612322,13.1312227504102
382,1436980613054,40.8420270047253
383,1436980615355,39.4297672810044
384,1436980616116,31.0360882778841
385,1436980616897,21.4739758029747
386,1436980617624,44.7539105273099
387,1436980618366,44.6385257339707
388,1436980619097,7.64664572305835
389,1436980619832,44.7021325739094
390,1436980620588,48.2578773399511
391,1436980621282,49.3439295974962
392,1436980621931,46.9574937911651
393,1436980622654,31.1301819747547
394,1436980623364,40.7142494000148
395,1436980624099,27.4988401121616
396,1436980624826,43.2361761891014
397,1436980625570,39.0012605006875
398,1436980626305,47.8489873315962
399,1436980627021,18.7730638624415
400,1436980629206,5.97288717344319
401,1436980629922,11.6529053664584
402,1436980630672,15.9525386493229
403,1436980631391,31.9855523709077
404,1436980632069,41.6578436767679
405,1436980632820,21.087931592941
406,1436980633532,39.2042813805599
407,1436980634251,12.6468694217902
408,1436980635000,36.8641508492931
409,1436980635698,15.7561928255009
410,1436980636418,49.0404884483786
411,1436980637151,32.1772382709013
412,1436980637874,46.1201582561748
413,1436980638594,28.2409542099936
414,1436980639317,15.5923491415444
415,1436980640052,31.7798512167063
416,1436980640761,10.600087704829
417,1436980641427,17.7200054995109
418,1436980642058,38.5833980504034
419,1436980642754,44.6013820652438
420,1436980643485,50.1702479325259
421,1436980644188,48.4009258776818
422,1436980644908,48.7203251908552
423,1436980645631,38.3320876106313
424,1436980646346,22.3627660107676
425,1436980647054,57.8766813390879
426,1436980647770,42.9853019638365
427,1436980648491,47.33593977392
428,1436980649224,41.6009684000586
429,1436980649919,23.0705600113065
430,1436980651817,47.0695389335876
431,1436980652501,42.6174872219857
432,1436980653235,46.4105352296056
433,1436980653973,26.1034579455115
434,1436980654712,45.2145453630206
435,1436980655541,20.1414035831747
436,1436980656254,9.6368512315453
437,1436980656966,20.1809305058511
438,1436980657700,49.2534957674353
439,1436980658428,40.427499457233
440,1436980659159,30.4521443967074
441,1436980659895,61.9606771155372
442,1436980660646,38.9880148169804
443,1436980661386,12.271853722802
444,1436980662094,37.299073688681
445,1436980662778,20.3471817510952
446,1436980663430,30.1933799200026
447,1436980664714,30.1555494667939
448,1436980665556,11.388267174066
449,1436980666190,40.7831866816371
450,1436980666874,32.4655664170487
451,1436980667563,46.0381150995278
452,1436980668279,25.198297758194
453,1436980669007,37.5038762687612
454,1436980669731,42.6760783419288
455,1436980670441,46.7780570333842
456,1436980671260,36.7545471245763
457,1436980671989,40.5070338276988
458,1436980672676,20.6435659856316
459,1436980673382,38.8474627407243
460,1436980674111,16.2618949202298
461,1436980674881,37.5560679718688
462,1436980675611,47.6680316643786
463,1436980676341,35.5715088010984
464,1436980677072,42.4161896955804
465,1436980677823,44.0968738697526
466,1436980678522,47.6950427530082
467,1436980679207,49.9388797015063
468,1436980679936,34.0562191315276
469,1436980680702,28.1107448098713
470,1436980681445,29.6482189274103
471,1436980682143,34.153523905837
472,1436980682806,11.755206553972
473,1436980683541,53.9697718476588
474,1436980684291,32.1730407266231
475,1436980685019,17.6116879875019
476,1436980685748,13.536826638381
477,1436980686475,8.87414934903162
478,1436980687179,34.7209418911453
479,1436980687828,30.5442019950328
480,1436980688550,43.4832963245149
481,1436980689299,32.309230029158
482,1436980690028,13.048117507226
483,1436980690775,23.0167750663846
484,1436980691495,60.6305591942918
485,1436980692233,56.2650931802408
486,1436980692912,40.565980938486
487,1436980693687,37.3892793590715
488,1436980694403,12.0083825066872
489,1436980695091,55.605130685802
490,1436980695776,13.1632774830765
491,1436980696480,55.5795751100385
492,1436980697221,47.357095305667
493,1436980697974,22.0030724639501
494,1436980698692,50.0181474248744
495,1436980699412,57.8807338703576
496,1436980700161,43.4630380229176
497,1436980700893,50.6486396009672
498,1436980701639,47.6178041574592
499,1436980702383,56.4735753648471
500,1436980703101,67.9202927423389
501,1436980703766,66.3698056507106
502,1436980704505,66.499581094482
503,1436980705240,38.3976837538342
504,1436980706000,18.6329276287375
505,1436980706673,33.5357606505371
506,1436980707375,22.8396922681021
507,1436980708027,56.6282162597603
508,1436980708748,46.9851028775507
509,1436980709472,53.9164844447669
510,1436980710210,26.3790783071111
511,1436980710944,55.4040122499822
512,1436980711674,54.9313909410033
513,1436980712399,30.8750879816599
514,1436980713119,35.8330118245524
515,1436980713727,34.3248102382281
516,1436980714419,32.2872098419791
517,1436980715153,41.7728690736189
518,1436980715879,40.8537658640916
519,1436980716551,29.3260677910982
520,1436980717268,34.8145065753961
521,1436980717975,19.9187833048787
522,1436980718715,20.2519182466918
523,1436980719430,14.1539507413681
524,1436980720188,52.4678365274586
525,1436980720916,17.9681541079877
526,1436980721641,24.3078338580362
527,1436980722368,51.5803551369362
528,1436980723040,48.8006768105734
529,1436980723698,19.1377512524925
530,1436980724400,11.7294142725919
531,1436980725128,33.3877107308425
532,1436980725887,38.9547346692927
533,1436980726612,52.8151584445385
534,1436980727262,55.6800303232735
535,1436980727931,48.2550971380297
536,1436980728661,38.8975927729344
537,1436980729383,37.3563096116968
538,1436980730130,37.5645172094288
539,1436980730866,38.5020013775136
540,1436980731615,11.3348961432589
541,1436980732325,41.0544550127536
542,1436980733021,27.5212387665509
543,1436980733714,52.0776913423771
544,1436980734407,40.6937045222163
545,1436980735169,27.2882970979867
546,1436980735955,39.3615763356838
547,1436980736679,44.0257388953429
548,1436980737421,54.6711438782871
549,1436980738174,45.7167817810428
550,1436980738903,43.1473122141943
551,1436980739652,38.4175034725098
552,1436980740399,45.2739313658534
553,1436980741139,49.1381742709055
554,1436980741854,36.151480483866
555,1436980742585,47.9738594614339
556,1436980743309,41.6921817306807
557,1436980744012,49.4970381160569
558,1436980744678,30.2773360270052
559,1436980745403,45.5646836911616
560,1436980746131,39.2551427345785
561,1436980746943,43.6369633163661
562,1436980747645,38.7103450990312
563,1436980748294,44.5610693001236
564,1436980749022,28.2977979636208
565,1436980749764,38.3541389540228
566,1436980750587,43.5754188439344
567,1436980751223,38.4323144516635
568,1436980751948,34.846796406345
569,1436980752685,43.6437960273396
570,1436980753407,38.4492839070982
571,1436980754154,39.3462063690207
572,1436980754829,39.5363093828735
573,1436980755605,45.1322605767746
574,1436980756316,48.6819869379293
575,1436980757048,54.9478502095674
