id,attr_time,attr_db
1,1436980333679,54.287210716673
2,1436980334422,65.1333614822486
3,1436980335136,52.292674031196
4,1436980335854,54.0722873184111
5,1436980336599,37.519159401313
6,1436980337413,37.1707467551647
7,1436980338136,55.6869243362987
8,1436980338839,46.1191130790725
9,1436980339568,42.7127865199437
10,1436980340277,53.9146295824639
11,1436980340907,65.6626877346088
12,1436980342228,62.1420760266329
13,1436980342880,39.9339948480381
14,1436980343557,64.3408311013156
15,1436980344239,64.8161878713331
16,1436980344948,57.6930440342472
17,1436980345666,60.3427438144793
18,1436980346365,40.2846607987711
19,1436980347054,58.9427287463355
20,1436980347755,63.8463787343215
21,1436980348409,55.6503576489884
22,1436980349129,51.5202603872351
23,1436980349849,57.2371404808434
24,1436980350582,52.9254830375712
25,1436980351306,59.0643374794531
26,1436980352023,61.6659952825052
27,1436980352759,42.1771354761286
28,1436980353482,56.4581286168572
29,1436980354189,36.004050633093
30,1436980354872,44.6022503468636
31,1436980355610,40.7021333404929
32,1436980356286,60.5608491563838
33,1436980357953,44.514568184773
34,1436980358689,56.6581334759599
35,1436980359432,45.469622894637
36,1436980360112,56.7587022655876
37,1436980360828,34.365518783049
38,1436980361618,41.1591604516161
39,1436980362358,58.7117482615189
40,1436980363077,60.7027856383609
41,1436980363791,56.797379711815
42,1436980364467,35.7013620713562
43,1436980365925,38.0966632255162
44,1436980366650,57.4151414699306
45,1436980367436,41.3906470826454
46,1436980368113,56.3334577543004
47,1436980368768,28.9431407146737
48,1436980369465,29.1518550529096
49,1436980370191,28.3566420791171
50,1436980370921,36.0458408029415
51,1436980371632,37.1951199731499
52,1436980372344,48.42853856281
53,1436980373076,36.8720625040225
54,1436980373805,56.8335821386015
55,1436980374509,55.5038845626846
56,1436980375181,46.9777971590027
57,1436980375913,35.0430759884625
58,1436980376648,33.2660901939529
59,1436980377471,38.4918144236178
60,1436980378251,47.0006302702638
61,1436980378931,43.1221642365157
62,1436980379585,42.9675671163655
63,1436980380341,44.9553396086672
64,1436980381063,48.6153306767896
65,1436980381789,43.0784216728698
66,1436980382516,54.1847398786049
67,1436980383240,35.7085621618543
68,1436980383972,48.7956298501194
69,1436980384681,42.8003660235466
70,1436980385386,28.1278254528143
71,1436980386122,32.5697574505778
72,1436980386850,43.9210527712095
73,1436980387588,35.4444928017587
74,1436980388313,39.3589530905347
75,1436980388981,47.8495196601099
76,1436980389719,53.6896901151918
77,1436980390409,55.5513105295282
78,1436980391152,58.3138593219037
79,1436980391890,44.1157089609109
80,1436980392625,46.2942137058441
81,1436980393377,33.6864431236761
82,1436980394105,32.0007706101531
83,1436980394826,48.3721889864702
84,1436980395541,40.8902527569903
85,1436980396286,47.1568290935543
86,1436980397019,41.6471354725947
87,1436980397747,48.5779364751643
88,1436980398489,43.501707921661
89,1436980399200,55.7482802457335
90,1436980399896,60.0885573078788
91,1436980400640,25.8478199821042
92,1436980401220,56.493914139145
93,1436980401905,41.8190587342376
94,1436980402634,51.9020639883327
95,1436980403353,50.4253138667518
96,1436980404034,57.1355623607573
97,1436980404769,48.3080541684544
98,1436980405462,49.6300318786062
99,1436980406126,26.3539060367485
100,1436980406846,50.0030204960858
101,1436980407601,10.7425376036597
102,1436980408297,53.4162572336496
103,1436980408971,55.7134296164694
104,1436980409578,53.465544652958
105,1436980410270,34.5871372993565
106,1436980411009,64.3055057754052
107,1436980411807,32.811287645614
108,1436980412544,66.3030877455316
109,1436980413264,61.3278903324605
110,1436980413991,46.7953239930385
111,1436980414721,45.7384704963455
112,1436980415416,48.7167664728392
113,1436980416143,45.1961033857055
114,1436980416866,49.1862851623039
115,1436980417620,45.5384233147353
116,1436980418310,54.0699387770519
117,1436980418999,35.3990506149722
118,1436980419731,40.4366142642762
119,1436980420393,23.3045994580284
120,1436980421115,49.3396731017471
121,1436980421832,55.0790056699542
122,1436980422550,47.3403530725604
123,1436980423264,46.4037491949826
124,1436980424008,56.5308059185424
125,1436980424757,52.1656924244089
126,1436980425484,61.5343074854028
127,1436980426203,28.0273617928073
128,1436980426884,52.7575310025392
129,1436980427609,57.0748445431989
130,1436980428285,28.330238356023
131,1436980428949,53.3726026160987
132,1436980429641,40.1093019952644
133,1436980430341,44.238166138525
134,1436980431008,20.5452828842239
135,1436980431704,33.2205651561845
136,1436980432442,35.5927844687359
137,1436980433164,52.0064298265413
138,1436980433880,32.6778340571241
139,1436980434632,18.5661058929126
140,1436980435355,52.4363356555058
141,1436980436077,47.9874633357828
142,1436980436878,10.9069436728963
143,1436980437612,50.7074356833602
144,1436980438329,24.2061463525923
145,1436980439053,35.7073567643076
146,1436980439762,40.0890619892146
147,1436980440467,47.0725405797673
148,1436980441153,56.5964173721849
149,1436980441956,46.1308843107017
150,1436980442677,55.2510673498657
151,1436980443402,43.0463204285481
152,1436980444136,58.0280993115895
153,1436980444881,48.9591023502981
154,1436980445596,46.6458531714576
155,1436980446284,52.1806287749724
156,1436980446935,41.4735982359313
157,1436980447645,54.3217821181157
158,1436980448355,62.961435901243
159,1436980449092,47.4580100595531
160,1436980449727,22.6137756134327
161,1436980450409,55.1784077897831
162,1436980451145,53.9677588914585
163,1436980451933,40.2325452467905
164,1436980452665,36.4807886451251
165,1436980453392,23.1437771533258
166,1436980454125,19.1104559526614
167,1436980454857,60.4971086792953
168,1436980455602,46.7981753302577
169,1436980456334,40.6952102542415
170,1436980456967,30.5873307946042
171,1436980457665,30.6805302268435
172,1436980458373,37.8608742408621
173,1436980459079,14.0634746619456
174,1436980459801,33.6043752480208
175,1436980460548,36.2416094184621
176,1436980461183,36.3532827564529
177,1436980461855,30.9422668800431
178,1436980462602,50.4451270823061
179,1436980463337,48.5391852342911
180,1436980464048,28.5795953537767
181,1436980464774,61.5089271150655
182,1436980465494,33.7349282578604
183,1436980466220,50.4033254478942
184,1436980467023,22.7079038613934
185,1436980467691,29.0767690628483
186,1436980468444,13.615148424167
187,1436980469159,31.9597753508729
188,1436980469871,36.0181887482308
189,1436980470681,42.1920299829875
190,1436980471385,34.9852364615809
191,1436980472209,10.8699385462696
192,1436980472951,16.1081771052693
193,1436980473683,39.525710955058
194,1436980474404,23.0760867690217
195,1436980475129,23.9846459302013
196,1436980475879,44.2469817189208
197,1436980476606,39.9835727010813
198,1436980477330,35.7860262635056
199,1436980478023,9.7366594557711
200,1436980478709,6.82963332289299
201,1436980479453,19.8379176210248
202,1436980480299,38.4286204699504
203,1436980481031,44.9871471238181
204,1436980481741,30.3834683068344
205,1436980482477,40.8005721091879
206,1436980483192,16.6288440123163
207,1436980483913,17.8350516658902
208,1436980484622,35.5891892064932
209,1436980485364,34.765450220722
210,1436980486095,26.6594168006684
211,1436980486795,9.87834693031172
212,1436980487547,31.2814129777734
213,1436980488212,26.114192825212
214,1436980488943,9.50820425285737
215,1436980489654,43.6292474318221
216,1436980490407,36.2486759497163
217,1436980491079,51.9887271213141
218,1436980491712,44.3652907938669
219,1436980492406,42.6132714912798
220,1436980493149,45.4623735224413
221,1436980493884,17.2280183760075
222,1436980494604,43.0755794803994
223,1436980495344,7.47374960993614
224,1436980496073,11.4610462604891
225,1436980496807,35.5542368568595
226,1436980497512,9.3249158341328
227,1436980498191,14.6756281492799
228,1436980498908,17.0912970954606
229,1436980499641,43.1801128917739
230,1436980500395,3.98488373507736
231,1436980501105,46.4849839073118
232,1436980501812,34.4451401555655
233,1436980502472,50.0190960089312
234,1436980503198,40.5827721306522
235,1436980503937,16.4090913542609
236,1436980504676,11.5195301602181
237,1436980505404,39.259818842233
238,1436980506138,45.6194044970372
239,1436980506873,39.3693896203177
240,1436980507595,39.3006640547097
241,1436980508285,32.0827745678662
242,1436980508942,28.3642660498707
243,1436980509610,28.2234767459728
244,1436980510189,35.9421289145598
245,1436980510875,11.0536320797223
246,1436980511690,9.84660478819149
247,1436980512283,27.9905285070489
248,1436980513007,10.8916637894978
249,1436980513737,50.0395822295476
250,1436980514440,49.5224512579094
251,1436980515152,26.089542145032
252,1436980515873,30.8076627346498
253,1436980516607,29.2335431971599
254,1436980517338,45.3199323003368
255,1436980518054,7.33128843708799
256,1436980518731,8.57265021078435
257,1436980519498,5.79480829748961
258,1436980520237,9.19406634615929
259,1436980520965,58.2889533567441
260,1436980521761,56.5784305535612
261,1436980522471,49.6721206855144
262,1436980523178,28.2863963525723
263,1436980523913,43.220762077822
264,1436980524637,49.4098784170274
265,1436980525333,46.4455514389284
266,1436980526077,38.6888991649275
267,1436980526814,38.0581535083215
268,1436980527520,17.4224100293441
269,1436980528237,19.3169797956642
270,1436980528927,54.2799251615292
271,1436980529645,57.6417238701967
272,1436980530352,56.6151949363895
273,1436980531070,48.3559556635321
274,1436980531780,48.9952420127558
275,1436980532500,33.3671010288401
276,1436980533179,52.0206750290705
277,1436980533917,61.6878598516911
278,1436980534664,55.9853930327723
279,1436980535368,57.8817100405285
280,1436980536838,60.6587052060201
281,1436980537556,51.1237902968703
282,1436980538277,45.995054592158
283,1436980538999,53.1163752896558
284,1436980539788,44.8267336607756
285,1436980540530,48.1605438404844
286,1436980541277,46.3345298618563
287,1436980542002,48.5458648103803
288,1436980542736,48.4415107973106
289,1436980543502,49.1594000275996
290,1436980544219,42.1854848597072
291,1436980544948,62.1838339667389
292,1436980545675,56.1497045273881
293,1436980546394,51.9481447527375
294,1436980547128,26.5560614179848
295,1436980547864,47.0855218879772
296,1436980548591,41.319654930195
297,1436980550451,41.1186754387753
298,1436980551173,39.4654355096716
299,1436980551920,45.3024122939143
300,1436980552638,46.7589272640254
301,1436980553375,58.860543696493
302,1436980554105,55.3465252373726
303,1436980554831,20.9231870138751
304,1436980555579,38.9120214787903
305,1436980556303,55.4581891388993
306,1436980557047,53.1024178770186
307,1436980557786,46.7611700718844
308,1436980558514,34.5832456273963
309,1436980559255,30.0186610767587
310,1436980559979,52.6849167974759
311,1436980560708,53.6327712974693
312,1436980561441,61.1773214595194
313,1436980562162,48.9395097942455
314,1436980562856,58.5602972376674
315,1436980563632,47.0681408361783
316,1436980564317,51.7603973176107
317,1436980565041,40.5740808937006
318,1436980565776,49.2021430495452
319,1436980566508,49.364096793334
320,1436980567223,49.6008665396492
321,1436980567956,18.6557604671716
322,1436980568664,32.8589156675297
323,1436980569331,17.7683762276545
324,1436980569932,18.0669889280854
325,1436980570539,57.6679777573659
326,1436980571252,48.1486578992658
327,1436980571964,28.6361337676233
328,1436980574062,44.9130262164358
329,1436980574779,44.8088728322642
330,1436980575524,41.7575311581789
331,1436980576258,30.6742571381542
332,1436980576985,22.4742732479106
333,1436980577708,16.9416860356877
334,1436980578439,43.2189467682094
335,1436980579167,12.6993619134761
336,1436980579845,8.19676314587232
337,1436980580551,55.256452102611
338,1436980581285,52.750527066821
339,1436980581996,59.0562335215281
340,1436980582723,47.5183034266677
341,1436980583477,48.6669656804172
342,1436980584189,22.8295429516304
343,1436980584894,54.8561982038037
344,1436980586398,47.8601230402195
345,1436980587104,24.6358697767039
346,1436980587833,59.1026993198033
347,1436980588563,21.8726765687939
348,1436980589286,55.9575802486799
349,1436980589986,55.1893609829478
350,1436980590596,49.3443481803551
351,1436980591292,54.4004300974058
352,1436980592011,59.6723601530608
353,1436980592742,49.1868916742767
354,1436980593455,62.2797806617295
355,1436980594144,16.5033462870515
356,1436980594856,57.6819667873476
357,1436980595601,29.7303705752023
358,1436980596336,31.3321428493474
359,1436980597038,62.4318820731337
360,1436980597770,48.5860782670956
361,1436980598506,21.6490940541529
362,1436980599241,50.8626880235062
363,1436980599912,37.600169071317
364,1436980600526,48.6161749810444
365,1436980601201,13.4597023921536
366,1436980601970,50.5918594876627
367,1436980602696,32.8618341107112
368,1436980603413,45.8736862159471
369,1436980604123,47.2000695018962
370,1436980604835,31.9352505625451
371,1436980605557,26.4239846166725
372,1436980606293,44.8297089454422
373,1436980607011,57.7264715975735
374,1436980607763,48.0376270486021
375,1436980608499,61.3376065526624
376,1436980609266,39.6486218928019
377,1436980609967,51.1101360986122
378,1436980610685,34.865896158427
379,1436980611305,46.1583633053868
380,1436980611919,17.8337834612044
381,1436980612607,9.46607398211383
382,1436980613346,26.7403862733059
383,1436980614049,40.2585260280889
384,1436980614744,20.8656004360629
385,1436980615425,59.1803084617011
386,1436980616150,58.019530775571
387,1436980616886,49.5481228096816
388,1436980617609,59.1626058083875
389,1436980618343,47.9876660133005
390,1436980619061,59.8396664069059
391,1436980619777,55.9774658143903
392,1436980620526,46.0231427426075
393,1436980621259,48.133682524388
394,1436980621981,47.0445580263855
395,1436980622703,36.9760472562092
396,1436980623451,10.4446494398953
397,1436980624181,32.3609310375871
398,1436980624843,46.3610500063694
399,1436980625437,9.30966826432043
400,1436980626136,49.162215298876
401,1436980626872,9.95689394471846
402,1436980627596,9.48167169955878
403,1436980628298,47.9265396950677
404,1436980629013,5.28869099219421
405,1436980629737,69.5663244398352
406,1436980630427,22.0687357779752
407,1436980631055,55.2934175323111
408,1436980631725,42.5011362266673
409,1436980632482,27.516826246406
410,1436980633190,41.1346431954986
411,1436980633928,12.5474745228408
412,1436980634827,51.3862093213866
413,1436980635521,34.5080818878043
414,1436980636250,45.8534092348735
415,1436980636986,14.5490254147394
416,1436980637725,45.5893465601083
417,1436980638459,13.5914171340352
418,1436980639184,36.6392777395612
419,1436980639925,42.1797945852119
420,1436980640636,31.8351514033819
421,1436980641302,54.8914799135741
422,1436980641961,30.0285210942644
423,1436980642679,45.948342464768
424,1436980643412,40.4880881432804
425,1436980644117,50.3486309951368
426,1436980644829,46.3779769541239
427,1436980645559,35.4424595084061
428,1436980646251,27.0634620506924
429,1436980646981,52.8553388871606
430,1436980647716,18.2381731909337
431,1436980648437,29.8717819806713
432,1436980649174,51.3854125329519
433,1436980649909,33.8861431635416
434,1436980650621,27.914887039566
435,1436980651284,59.812538734027
436,1436980651916,57.8259025708955
437,1436980652636,56.230291522225
438,1436980653356,51.203883302795
439,1436980654071,43.2068768072017
440,1436980654821,44.8054486665393
441,1436980655648,37.6773121333129
442,1436980656379,10.9508565328188
443,1436980657118,63.7725159835684
444,1436980657844,53.3286660804554
445,1436980658591,50.7646114898675
446,1436980659317,47.4375939053815
447,1436980660039,41.9458118423308
448,1436980660715,35.9601175539759
449,1436980661345,54.0366450029207
450,1436980662015,19.4000857394161
451,1436980662662,57.0989333064445
452,1436980663314,38.9360604941611
453,1436980664017,12.3765098694272
454,1436980664733,6.99107479952567
455,1436980665457,19.146906956718
456,1436980666205,30.244434360183
457,1436980666933,32.1330931042824
458,1436980667654,20.0826224262407
459,1436980668378,25.2537121747975
460,1436980669100,41.1335884716817
461,1436980669838,44.7919809215998
462,1436980670581,45.8519402436837
463,1436980671259,20.0066793078187
464,1436980671878,18.6876052633565
465,1436980672567,44.2272082757304
466,1436980673280,40.0685467041488
467,1436980673992,45.1646517359753
468,1436980674725,39.7306558786601
469,1436980675434,27.4688100958711
470,1436980676121,46.2503339400483
471,1436980676927,39.2064191022866
472,1436980677609,44.9221853365181
473,1436980678314,41.5691900965645
474,1436980679051,11.6828692925206
475,1436980679768,37.8993476028553
476,1436980680482,31.5448353638333
477,1436980681213,35.8315826811953
478,1436980681971,39.265619797969
479,1436980682645,24.9731348501568
480,1436980683369,11.2369964246066
481,1436980684104,29.8971607309527
482,1436980684839,27.475198747604
483,1436980685633,8.15714849449437
484,1436980686318,13.8254685861468
485,1436980687056,10.5228146683735
486,1436980687794,48.7238817843059
487,1436980688536,46.6639534666243
488,1436980689268,47.015720665413
489,1436980689968,23.1495521002152
490,1436980690719,58.9756948770325
491,1436980691404,24.6743262532484
492,1436980692030,38.3769345123504
493,1436980692736,54.6185245824952
494,1436980693502,52.3147457830587
495,1436980694227,38.6382524450979
496,1436980694939,49.2221241481093
497,1436980695627,49.0315581987964
498,1436980696326,54.7242189463636
499,1436980697041,58.9872385265695
500,1436980697750,29.2166829343355
501,1436980698490,53.5163499379065
502,1436980699226,53.8274554924917
503,1436980699947,61.6922293306329
504,1436980700687,37.9069920249302
505,1436980701425,32.0429222625279
506,1436980702136,25.5297499206644
507,1436980702841,27.7837613460564
508,1436980703558,60.942152076047
509,1436980704278,62.7831024029546
510,1436980705006,59.4520749531651
511,1436980705727,41.4299943138111
512,1436980706494,54.9676515670903
513,1436980707216,52.4031890249394
514,1436980707897,53.916236845651
515,1436980708592,58.9591591226923
516,1436980709315,49.8505127491714
517,1436980710041,20.5463664471476
518,1436980710763,52.4048698661673
519,1436980711485,59.8548858886988
520,1436980712171,47.697666273406
521,1436980712803,40.0870113380407
522,1436980713483,52.5956611228707
523,1436980714191,51.0505422776792
524,1436980714935,50.0749203150784
525,1436980715649,29.5126025397329
526,1436980716405,42.7578400920638
527,1436980717109,34.3712343123978
528,1436980717846,17.2133964720479
529,1436980718582,24.5057188672136
530,1436980719291,14.136272947386
531,1436980720011,55.4038807516931
532,1436980720805,14.6147428419653
533,1436980721539,32.4993098978929
534,1436980722265,36.1152222392537
535,1436980722940,24.4556767804865
536,1436980723589,41.9499253955386
537,1436980724298,7.18105531676364
538,1436980725014,40.927788243664
539,1436980725729,7.96126298658869
540,1436980726428,54.033103236136
541,1436980727138,32.5008657561086
542,1436980727869,46.0784639872904
543,1436980728593,50.9296695680763
544,1436980729334,48.1931372265385
545,1436980730054,39.4704503770542
546,1436980730767,47.7716846190246
547,1436980731517,21.8492085794327
548,1436980732231,11.9423103028696
549,1436980732940,7.88878963001813
550,1436980733606,36.7101664963261
551,1436980734335,30.1955997847188
552,1436980735066,18.8290520437119
553,1436980735782,58.1973896405214
554,1436980736543,47.7794501538045
555,1436980737276,57.9116184494798
556,1436980737956,29.6937980107924
557,1436980738628,48.903581384571
558,1436980739354,50.6714205807322
559,1436980741079,34.3492233232855
560,1436980741804,56.4269194414408
561,1436980742524,52.7593962629931
562,1436980743225,46.1091525892588
563,1436980743905,35.1037274269099
564,1436980744616,25.0274617501728
565,1436980745357,36.7663059807095
566,1436980746074,41.7182416300995
567,1436980746814,16.7074774005958
568,1436980747609,48.8713372941454
569,1436980748316,46.2374693787618
570,1436980749059,43.1969928804152
571,1436980749761,14.9364427460428
572,1436980750495,17.0389266188656
573,1436980751227,48.4550772476291
574,1436980751918,31.3772624931069
575,1436980752598,29.7840830062042
