id,attr_time,attr_light
1,1437230989515,539.0
2,1437230989536,539.0
3,1437230989555,539.0
4,1437230989575,539.0
5,1437230989594,540.0
6,1437230989615,540.0
7,1437230989653,542.0
8,1437230989654,542.0
9,1437230989675,544.0
10,1437230989695,544.0
11,1437230989716,547.0
12,1437230989734,547.0
13,1437230989756,547.0
14,1437230989775,547.0
15,1437230989796,547.0
16,1437230989818,549.0
17,1437230989838,549.0
18,1437230989855,551.0
19,1437230989876,551.0
20,1437230989899,553.0
21,1437230989919,553.0
22,1437230989935,555.0
23,1437230989959,555.0
24,1437230989974,558.0
25,1437230989995,558.0
26,1437230990019,560.0
27,1437230990035,560.0
28,1437230990057,559.0
29,1437230990075,558.0
30,1437230990096,558.0
31,1437230990119,559.0
32,1437230990137,559.0
33,1437230990158,560.0
34,1437230990178,560.0
35,1437230990197,557.0
36,1437230990218,557.0
37,1437230990236,556.0
38,1437230990255,556.0
39,1437230990338,557.0
40,1437230990339,557.0
41,1437230990340,558.0
42,1437230990341,559.0
43,1437230990355,559.0
44,1437230990378,560.0
45,1437230990395,560.0
46,1437230990415,560.0
47,1437230990435,560.0
48,1437230990456,559.0
49,1437230990477,559.0
50,1437230990496,560.0
51,1437230990519,560.0
52,1437230990539,562.0
53,1437230990556,562.0
54,1437230990579,560.0
55,1437230990596,560.0
56,1437230990616,561.0
57,1437230990639,562.0
58,1437230990656,562.0
59,1437230990675,561.0
60,1437230990695,561.0
61,1437230990716,560.0
62,1437230990735,560.0
63,1437230990756,560.0
64,1437230990777,560.0
65,1437230990797,559.0
66,1437230990817,559.0
67,1437230990836,559.0
68,1437230990856,559.0
69,1437230990877,560.0
70,1437230990898,560.0
71,1437230990918,561.0
72,1437230990938,561.0
73,1437230990957,561.0
74,1437230990985,561.0
75,1437230991058,561.0
76,1437230991059,561.0
77,1437230991060,561.0
78,1437230991061,557.0
79,1437230991079,557.0
80,1437230991104,556.0
81,1437230991116,556.0
82,1437230991136,558.0
83,1437230991160,558.0
84,1437230991176,561.0
85,1437230991201,560.0
86,1437230991217,560.0
87,1437230991238,558.0
88,1437230991260,558.0
89,1437230991278,557.0
90,1437230991301,557.0
91,1437230991317,554.0
92,1437230991338,554.0
93,1437230991360,551.0
94,1437230991378,551.0
95,1437230991400,548.0
96,1437230991418,548.0
97,1437230991438,539.0
98,1437230991463,539.0
99,1437230991479,523.0
100,1437230991500,511.0
101,1437230991518,511.0
102,1437230991539,505.0
103,1437230991560,505.0
104,1437230991576,512.0
105,1437230991598,512.0
106,1437230991617,538.0
107,1437230991639,538.0
108,1437230991664,573.0
109,1437230991679,573.0
110,1437230991699,614.0
111,1437230991727,614.0
112,1437230991782,658.0
113,1437230991783,658.0
114,1437230991784,702.0
115,1437230991806,736.0
116,1437230991817,736.0
117,1437230991837,746.0
118,1437230991858,746.0
119,1437230991877,722.0
120,1437230991901,722.0
121,1437230991917,677.0
122,1437230991940,677.0
123,1437230991960,621.0
124,1437230991977,621.0
125,1437230991997,565.0
126,1437230992018,565.0
127,1437230992040,530.0
128,1437230992060,530.0
129,1437230992081,520.0
130,1437230992100,511.0
131,1437230992120,511.0
132,1437230992139,509.0
133,1437230992161,509.0
134,1437230992182,555.0
135,1437230992197,555.0
136,1437230992221,674.0
137,1437230992239,674.0
138,1437230992261,788.0
139,1437230992281,788.0
140,1437230992300,797.0
141,1437230992322,797.0
142,1437230992340,731.0
143,1437230992361,675.0
144,1437230992381,675.0
145,1437230992401,624.0
146,1437230992421,624.0
147,1437230992440,571.0
148,1437230992460,571.0
149,1437230992513,522.0
150,1437230992518,522.0
151,1437230992519,516.0
152,1437230992537,516.0
153,1437230992559,493.0
154,1437230992581,493.0
155,1437230992597,510.0
156,1437230992619,510.0
157,1437230992637,551.0
158,1437230992661,597.0
159,1437230992683,597.0
160,1437230992698,631.0
161,1437230992718,631.0
162,1437230992741,587.0
163,1437230992761,587.0
164,1437230992781,477.0
165,1437230992801,477.0
166,1437230992821,458.0
167,1437230992841,458.0
168,1437230992861,461.0
169,1437230992881,461.0
170,1437230992902,475.0
171,1437230992918,475.0
172,1437230992938,488.0
173,1437230992961,551.0
174,1437230992981,551.0
175,1437230993001,680.0
176,1437230993021,680.0
177,1437230993039,697.0
178,1437230993061,697.0
179,1437230993081,677.0
180,1437230993102,677.0
181,1437230993122,594.0
182,1437230993142,594.0
183,1437230993158,784.0
184,1437230993179,784.0
185,1437230993235,847.0
186,1437230993236,754.0
187,1437230993239,754.0
188,1437230993261,612.0
189,1437230993278,612.0
190,1437230993299,639.0
191,1437230993318,639.0
192,1437230993344,716.0
193,1437230993360,716.0
194,1437230993379,610.0
195,1437230993400,610.0
196,1437230993422,760.0
197,1437230993445,760.0
198,1437230993458,859.0
199,1437230993482,859.0
200,1437230993502,652.0
201,1437230993522,521.0
202,1437230993542,521.0
203,1437230993563,672.0
204,1437230993584,672.0
205,1437230993600,758.0
206,1437230993621,758.0
207,1437230993640,669.0
208,1437230993659,669.0
209,1437230993681,652.0
210,1437230993700,652.0
211,1437230993720,654.0
212,1437230993740,654.0
213,1437230993760,631.0
214,1437230993781,631.0
215,1437230993801,622.0
216,1437230993821,688.0
217,1437230993841,688.0
218,1437230993862,673.0
219,1437230993881,673.0
220,1437230993901,803.0
221,1437230993920,803.0
222,1437230993993,792.0
223,1437230993994,792.0
224,1437230993995,689.0
225,1437230994003,689.0
226,1437230994021,618.0
227,1437230994045,618.0
228,1437230994059,625.0
229,1437230994080,625.0
230,1437230994101,771.0
231,1437230994119,630.0
232,1437230994140,630.0
233,1437230994161,580.0
234,1437230994185,580.0
235,1437230994201,524.0
236,1437230994221,524.0
237,1437230994241,503.0
238,1437230994262,503.0
239,1437230994281,497.0
240,1437230994302,497.0
241,1437230994322,503.0
242,1437230994342,503.0
243,1437230994361,548.0
244,1437230994381,612.0
245,1437230994403,612.0
246,1437230994422,521.0
247,1437230994442,521.0
248,1437230994467,503.0
249,1437230994491,503.0
250,1437230994502,504.0
251,1437230994522,504.0
252,1437230994542,508.0
253,1437230994563,508.0
254,1437230994581,511.0
255,1437230994599,511.0
256,1437230994621,518.0
257,1437230994640,518.0
258,1437230994660,526.0
259,1437230994735,535.0
260,1437230994739,535.0
261,1437230994740,547.0
262,1437230994741,547.0
263,1437230994762,547.0
264,1437230994783,547.0
265,1437230994800,540.0
266,1437230994825,540.0
267,1437230994841,529.0
268,1437230994861,529.0
269,1437230994885,524.0
270,1437230994900,524.0
271,1437230994923,518.0
272,1437230994943,518.0
273,1437230994963,513.0
274,1437230994983,526.0
275,1437230995003,526.0
276,1437230995023,545.0
277,1437230995043,545.0
278,1437230995063,559.0
279,1437230995083,559.0
280,1437230995103,564.0
281,1437230995121,564.0
282,1437230995143,565.0
283,1437230995163,565.0
284,1437230995183,565.0
285,1437230995202,565.0
286,1437230995222,572.0
287,1437230995243,571.0
288,1437230995264,571.0
289,1437230995283,568.0
290,1437230995305,568.0
291,1437230995320,567.0
292,1437230995342,567.0
293,1437230995362,566.0
294,1437230995389,566.0
295,1437230995448,568.0
296,1437230995449,568.0
297,1437230995450,566.0
298,1437230995468,566.0
299,1437230995480,560.0
300,1437230995509,560.0
301,1437230995524,553.0
302,1437230995540,546.0
303,1437230995563,546.0
304,1437230995581,539.0
305,1437230995602,539.0
306,1437230995626,525.0
307,1437230995641,525.0
308,1437230995661,528.0
309,1437230995684,528.0
310,1437230995704,540.0
311,1437230995724,540.0
312,1437230995744,554.0
313,1437230995764,554.0
314,1437230995781,568.0
315,1437230995801,568.0
316,1437230995824,572.0
317,1437230995844,578.0
318,1437230995886,578.0
319,1437230995887,580.0
320,1437230995918,580.0
321,1437230995920,587.0
322,1437230995941,587.0
323,1437230995961,578.0
324,1437230995981,578.0
325,1437230996001,577.0
326,1437230996021,577.0
327,1437230996041,583.0
328,1437230996061,583.0
329,1437230996081,586.0
330,1437230996103,591.0
331,1437230996121,591.0
332,1437230996163,591.0
333,1437230996164,591.0
334,1437230996187,586.0
335,1437230996202,586.0
336,1437230996221,578.0
337,1437230996241,578.0
338,1437230996267,578.0
339,1437230996281,578.0
340,1437230996303,571.0
341,1437230996321,571.0
342,1437230996341,558.0
343,1437230996361,558.0
344,1437230996380,568.0
345,1437230996400,582.0
346,1437230996422,582.0
347,1437230996440,598.0
348,1437230996461,598.0
349,1437230996482,608.0
350,1437230996505,608.0
351,1437230996524,613.0
352,1437230996542,613.0
353,1437230996561,619.0
354,1437230996582,619.0
355,1437230996605,623.0
356,1437230996624,623.0
357,1437230996644,631.0
358,1437230996664,631.0
359,1437230996682,621.0
360,1437230996701,621.0
361,1437230996722,621.0
362,1437230996744,618.0
363,1437230996764,618.0
364,1437230996784,614.0
365,1437230996804,614.0
366,1437230996823,615.0
367,1437230996844,615.0
368,1437230996886,614.0
369,1437230996887,614.0
370,1437230996907,612.0
371,1437230996922,612.0
372,1437230996945,609.0
373,1437230996968,609.0
374,1437230997014,605.0
375,1437230997015,576.0
376,1437230997042,576.0
377,1437230997043,559.0
378,1437230997077,559.0
379,1437230997083,551.0
380,1437230997108,551.0
381,1437230997125,547.0
382,1437230997143,547.0
383,1437230997162,546.0
384,1437230997182,546.0
385,1437230997202,545.0
386,1437230997222,545.0
387,1437230997242,544.0
388,1437230997262,536.0
389,1437230997282,536.0
390,1437230997302,532.0
391,1437230997322,532.0
392,1437230997345,529.0
393,1437230997363,529.0
394,1437230997385,523.0
395,1437230997406,523.0
396,1437230997422,534.0
397,1437230997443,534.0
398,1437230997463,541.0
399,1437230997483,541.0
400,1437230997505,553.0
401,1437230997524,553.0
402,1437230997544,559.0
403,1437230997563,561.0
404,1437230997585,561.0
405,1437230997603,557.0
406,1437230997622,557.0
407,1437230997644,557.0
408,1437230997663,557.0
409,1437230997682,555.0
410,1437230997703,555.0
411,1437230997726,537.0
412,1437230997746,537.0
413,1437230997762,542.0
414,1437230997784,542.0
415,1437230997806,556.0
416,1437230997826,556.0
417,1437230997846,576.0
418,1437230997862,587.0
419,1437230997886,587.0
420,1437230997906,590.0
421,1437230997926,590.0
422,1437230997944,590.0
423,1437230997970,590.0
424,1437230997985,579.0
425,1437230998003,579.0
426,1437230998023,577.0
427,1437230998048,577.0
428,1437230998068,557.0
429,1437230998088,557.0
430,1437230998137,563.0
431,1437230998138,567.0
432,1437230998144,567.0
433,1437230998163,576.0
434,1437230998183,576.0
435,1437230998251,580.0
436,1437230998252,580.0
437,1437230998253,578.0
438,1437230998277,578.0
439,1437230998283,577.0
440,1437230998303,577.0
441,1437230998324,569.0
442,1437230998343,569.0
443,1437230998364,571.0
444,1437230998383,571.0
445,1437230998406,555.0
446,1437230998427,550.0
447,1437230998444,550.0
448,1437230998465,547.0
449,1437230998484,547.0
450,1437230998505,555.0
451,1437230998526,555.0
452,1437230998545,559.0
453,1437230998566,559.0
454,1437230998583,550.0
455,1437230998606,550.0
456,1437230998626,546.0
457,1437230998645,546.0
458,1437230998665,539.0
459,1437230998683,539.0
460,1437230998705,529.0
461,1437230998726,535.0
462,1437230998746,535.0
463,1437230998765,514.0
464,1437230998787,514.0
465,1437230998806,522.0
466,1437230998826,522.0
467,1437230998847,544.0
468,1437230998867,544.0
469,1437230998885,524.0
470,1437230998904,524.0
471,1437230999039,517.0
472,1437230999056,517.0
473,1437230999057,512.0
474,1437230999058,512.0
475,1437230999059,498.0
476,1437230999060,493.0
477,1437230999061,493.0
478,1437230999093,477.0
479,1437230999094,477.0
480,1437230999191,472.0
481,1437230999198,472.0
482,1437230999210,482.0
483,1437230999211,482.0
484,1437230999212,500.0
485,1437230999213,500.0
486,1437230999224,515.0
487,1437230999244,515.0
488,1437230999264,517.0
489,1437230999284,514.0
490,1437230999304,514.0
491,1437230999324,507.0
492,1437230999355,507.0
493,1437230999364,497.0
494,1437230999383,497.0
495,1437230999404,499.0
496,1437230999423,499.0
497,1437230999444,496.0
498,1437230999464,496.0
499,1437230999484,513.0
500,1437230999504,513.0
501,1437230999525,524.0
502,1437230999544,524.0
503,1437230999563,538.0
504,1437230999584,544.0
505,1437230999603,544.0
506,1437230999624,545.0
507,1437230999644,545.0
508,1437230999664,543.0
509,1437230999684,543.0
510,1437230999703,536.0
511,1437230999723,536.0
512,1437230999743,534.0
513,1437230999764,534.0
514,1437230999784,523.0
515,1437230999804,523.0
516,1437230999824,529.0
517,1437230999848,529.0
518,1437230999868,541.0
519,1437230999885,557.0
520,1437230999906,557.0
521,1437230999925,565.0
522,1437230999946,565.0
523,1437230999968,561.0
524,1437230999986,561.0
525,1437231000007,559.0
526,1437231000025,559.0
527,1437231000047,544.0
528,1437231000068,544.0
529,1437231000085,538.0
530,1437231000109,538.0
531,1437231000126,519.0
532,1437231000145,520.0
533,1437231000168,520.0
534,1437231000188,523.0
535,1437231000221,523.0
536,1437231000225,525.0
537,1437231000245,525.0
538,1437231000265,527.0
539,1437231000285,527.0
540,1437231000316,522.0
541,1437231000387,522.0
542,1437231000388,514.0
543,1437231000389,514.0
544,1437231000390,503.0
545,1437231000407,503.0
546,1437231000431,500.0
547,1437231000445,489.0
548,1437231000465,489.0
549,1437231000486,474.0
550,1437231000507,474.0
551,1437231000526,472.0
552,1437231000546,472.0
553,1437231000566,474.0
554,1437231000589,474.0
555,1437231000606,475.0
556,1437231000628,475.0
557,1437231000646,471.0
558,1437231000666,471.0
559,1437231000689,468.0
560,1437231000706,468.0
561,1437231000729,463.0
562,1437231000746,455.0
563,1437231000768,455.0
564,1437231000788,452.0
565,1437231000809,452.0
566,1437231000827,439.0
567,1437231000845,439.0
568,1437231000867,437.0
569,1437231000889,437.0
570,1437231000910,436.0
571,1437231000929,436.0
572,1437231000948,437.0
573,1437231000966,437.0
574,1437231000986,443.0
575,1437231001007,443.0
576,1437231001026,457.0
577,1437231001095,448.0
578,1437231001096,448.0
579,1437231001097,527.0
580,1437231001114,527.0
581,1437231001126,592.0
582,1437231001152,592.0
583,1437231001168,540.0
584,1437231001188,540.0
585,1437231001210,477.0
586,1437231001227,477.0
587,1437231001247,460.0
588,1437231001267,460.0
589,1437231001290,421.0
590,1437231001306,424.0
591,1437231001327,424.0
592,1437231001348,429.0
593,1437231001368,429.0
594,1437231001388,430.0
595,1437231001409,430.0
596,1437231001430,430.0
597,1437231001448,430.0
598,1437231001468,426.0
599,1437231001489,426.0
600,1437231001506,433.0
601,1437231001530,433.0
602,1437231001546,434.0
603,1437231001567,434.0
604,1437231001586,458.0
605,1437231001608,463.0
606,1437231001630,463.0
607,1437231001648,474.0
608,1437231001670,474.0
609,1437231001688,469.0
610,1437231001709,469.0
611,1437231001726,469.0
612,1437231001748,469.0
613,1437231001771,467.0
614,1437231001824,467.0
615,1437231001828,460.0
616,1437231001829,460.0
617,1437231001846,462.0
618,1437231001871,462.0
619,1437231001890,451.0
620,1437231001907,487.0
621,1437231001927,487.0
622,1437231001947,506.0
623,1437231001966,506.0
624,1437231001992,471.0
625,1437231002006,471.0
626,1437231002027,474.0
627,1437231002047,474.0
628,1437231002067,553.0
629,1437231002087,553.0
630,1437231002107,494.0
631,1437231002127,494.0
632,1437231002147,468.0
633,1437231002167,471.0
634,1437231002189,471.0
635,1437231002212,461.0
636,1437231002236,461.0
637,1437231002248,452.0
638,1437231002267,452.0
639,1437231002291,455.0
640,1437231002311,455.0
641,1437231002327,458.0
642,1437231002347,458.0
643,1437231002367,463.0
644,1437231002386,463.0
645,1437231002406,464.0
646,1437231002426,464.0
647,1437231002446,462.0
648,1437231002467,472.0
649,1437231002488,472.0
650,1437231002506,459.0
651,1437231002526,459.0
652,1437231002546,456.0
653,1437231002566,456.0
654,1437231002593,429.0
655,1437231002606,429.0
656,1437231002626,476.0
657,1437231002646,476.0
658,1437231002666,837.0
659,1437231002686,837.0
660,1437231002706,948.0
661,1437231002726,948.0
662,1437231002746,955.0
663,1437231002766,957.0
664,1437231002786,957.0
665,1437231002806,956.0
666,1437231002826,956.0
667,1437231002846,948.0
668,1437231002866,948.0
669,1437231002887,946.0
670,1437231002910,946.0
671,1437231002931,941.0
672,1437231002951,941.0
673,1437231002970,939.0
674,1437231002988,939.0
675,1437231003008,944.0
676,1437231003029,949.0
677,1437231003049,949.0
678,1437231003068,958.0
679,1437231003097,958.0
680,1437231003113,959.0
681,1437231003128,959.0
682,1437231003147,822.0
683,1437231003169,822.0
684,1437231003189,634.0
685,1437231003209,634.0
686,1437231003228,614.0
687,1437231003251,614.0
688,1437231003271,513.0
689,1437231003291,513.0
690,1437231003307,474.0
691,1437231003331,456.0
692,1437231003351,456.0
693,1437231003371,443.0
694,1437231003389,443.0
695,1437231003411,445.0
696,1437231003429,445.0
697,1437231003448,447.0
698,1437231003472,447.0
699,1437231003491,442.0
700,1437231003511,442.0
701,1437231003531,443.0
702,1437231003551,443.0
703,1437231003571,433.0
704,1437231003589,433.0
705,1437231003611,433.0
706,1437231003634,422.0
707,1437231003652,422.0
708,1437231003672,432.0
709,1437231003690,432.0
710,1437231003713,443.0
711,1437231003762,443.0
712,1437231003763,454.0
713,1437231003770,454.0
714,1437231003788,432.0
715,1437231003808,432.0
716,1437231003832,436.0
717,1437231003848,436.0
718,1437231003870,429.0
719,1437231003888,426.0
720,1437231003912,426.0
721,1437231003933,430.0
722,1437231003949,430.0
723,1437231003973,422.0
724,1437231003991,422.0
725,1437231004012,423.0
726,1437231004032,423.0
727,1437231004051,430.0
728,1437231004071,430.0
729,1437231004092,440.0
730,1437231004112,440.0
731,1437231004134,502.0
732,1437231004152,502.0
733,1437231004172,546.0
734,1437231004192,611.0
735,1437231004209,611.0
736,1437231004229,511.0
737,1437231004251,511.0
738,1437231004272,788.0
739,1437231004294,788.0
740,1437231004315,906.0
741,1437231004332,906.0
742,1437231004353,929.0
743,1437231004369,929.0
744,1437231004389,937.0
745,1437231004411,937.0
746,1437231004429,956.0
747,1437231004484,956.0
748,1437231004485,974.0
749,1437231004514,975.0
750,1437231004515,975.0
751,1437231004529,974.0
752,1437231004569,974.0
753,1437231004570,946.0
754,1437231004624,946.0
755,1437231004625,655.0
756,1437231004630,655.0
757,1437231004662,485.0
758,1437231004683,485.0
759,1437231004693,500.0
760,1437231004712,500.0
761,1437231004731,573.0
762,1437231004753,573.0
763,1437231004773,481.0
764,1437231004792,475.0
765,1437231004813,475.0
766,1437231004833,489.0
767,1437231004853,489.0
768,1437231004874,495.0
769,1437231004892,495.0
770,1437231004913,507.0
771,1437231004933,507.0
772,1437231004951,641.0
773,1437231004973,641.0
774,1437231004992,513.0
775,1437231005012,513.0
776,1437231005033,492.0
777,1437231005053,497.0
778,1437231005072,497.0
779,1437231005093,503.0
780,1437231005113,503.0
781,1437231005133,505.0
782,1437231005153,505.0
783,1437231005173,509.0
784,1437231005190,509.0
785,1437231005218,507.0
786,1437231005292,507.0
787,1437231005293,503.0
788,1437231005294,503.0
789,1437231005295,493.0
790,1437231005314,493.0
791,1437231005336,482.0
792,1437231005351,487.0
793,1437231005370,487.0
794,1437231005392,476.0
795,1437231005411,476.0
796,1437231005432,483.0
797,1437231005452,483.0
798,1437231005473,493.0
799,1437231005491,493.0
800,1437231005513,501.0
801,1437231005533,501.0
802,1437231005553,504.0
803,1437231005573,504.0
804,1437231005591,507.0
805,1437231005613,507.0
806,1437231005633,512.0
807,1437231005653,510.0
808,1437231005675,510.0
809,1437231005693,512.0
810,1437231005714,512.0
811,1437231005731,507.0
812,1437231005751,507.0
813,1437231005772,543.0
814,1437231005796,543.0
815,1437231005815,525.0
816,1437231005835,525.0
817,1437231005854,515.0
818,1437231005873,515.0
819,1437231005893,517.0
820,1437231005912,514.0
821,1437231005932,514.0
822,1437231005996,511.0
823,1437231005997,511.0
824,1437231005998,505.0
825,1437231006022,505.0
826,1437231006031,498.0
827,1437231006062,498.0
828,1437231006071,495.0
829,1437231006091,495.0
830,1437231006113,487.0
831,1437231006131,487.0
832,1437231006152,492.0
833,1437231006174,492.0
834,1437231006191,562.0
835,1437231006211,577.0
836,1437231006234,577.0
