id,attr_time,attr_x,attr_y,attr_z
1,1438260082017,44.021,-5.862,21.464
2,1438260082037,44.021,-5.862,21.464
3,1438260082057,44.343,-5.862,21.464
4,1438260082077,44.343,-6.199,21.464
5,1438260082098,44.343,-6.199,21.464
6,1438260082118,44.343,-6.199,21.464
7,1438260082138,44.343,-6.199,21.8
8,1438260082158,44.343,-6.199,21.8
9,1438260082178,44.343,-6.199,21.8
10,1438260082200,44.343,-6.199,21.8
11,1438260082218,44.343,-6.199,21.8
12,1438260082238,44.343,-6.199,21.8
13,1438260082258,44.343,-6.199,21.8
14,1438260082278,44.343,-6.199,21.8
15,1438260082298,44.343,-6.199,21.8
16,1438260082318,44.343,-6.199,21.8
17,1438260082338,44.343,-6.199,21.8
18,1438260082358,44.343,-6.199,21.8
19,1438260082378,44.343,-6.199,21.8
20,1438260082398,44.343,-6.199,21.8
21,1438260082418,44.343,-6.199,21.8
22,1438260082438,44.343,-6.199,21.8
23,1438260082458,44.343,-6.199,21.8
24,1438260082478,44.343,-6.199,21.8
25,1438260082498,44.343,-6.199,21.8
26,1438260082522,44.343,-6.199,21.8
27,1438260082538,44.343,-6.199,21.8
28,1438260082558,44.343,-6.199,21.8
29,1438260082578,44.343,-6.199,21.8
30,1438260082598,44.343,-6.199,21.8
31,1438260082618,44.343,-6.199,21.8
32,1438260082638,44.343,-6.199,21.8
33,1438260082658,44.343,-6.199,21.8
34,1438260082678,44.343,-6.199,21.8
35,1438260082698,44.343,-6.199,21.8
36,1438260082718,44.343,-6.506,21.8
37,1438260082739,44.343,-6.506,21.8
38,1438260082758,44.343,-6.506,21.8
39,1438260082778,44.343,-6.506,21.8
40,1438260082798,44.343,-6.506,22.122
41,1438260082818,44.343,-6.506,22.122
42,1438260082838,44.343,-6.506,22.122
43,1438260082858,44.343,-6.506,22.122
44,1438260082878,44.343,-6.506,22.122
45,1438260082898,44.343,-6.506,22.122
46,1438260082918,44.343,-6.506,22.122
47,1438260082938,44.343,-6.506,22.122
48,1438260082958,44.343,-6.506,22.122
49,1438260082978,44.343,-6.506,22.122
50,1438260082998,44.343,-6.506,22.122
51,1438260083018,44.343,-6.506,22.122
52,1438260083038,44.343,-6.506,22.122
53,1438260083058,44.343,-6.506,22.122
54,1438260083078,44.343,-6.506,22.122
55,1438260083098,44.343,-6.506,22.122
56,1438260083119,44.343,-6.506,22.122
57,1438260083139,44.343,-6.506,22.122
58,1438260083159,44.343,-6.506,22.122
59,1438260083179,44.343,-6.506,22.122
60,1438260083199,44.343,-6.506,22.122
61,1438260083219,44.343,-6.506,22.122
62,1438260083239,44.343,-6.506,22.122
63,1438260083259,44.343,-6.506,22.122
64,1438260083279,44.343,-6.506,22.122
65,1438260083299,44.343,-6.506,22.122
66,1438260083319,44.343,-6.506,22.122
67,1438260083339,44.343,-6.506,22.122
68,1438260083359,44.343,-6.506,22.122
69,1438260083379,44.343,-6.506,22.122
70,1438260083399,44.343,-6.506,22.122
71,1438260083419,44.343,-6.506,22.122
72,1438260083439,44.343,-6.506,22.122
73,1438260083459,44.343,-6.506,22.436
74,1438260083479,44.343,-6.506,22.436
75,1438260083499,44.343,-6.506,22.436
76,1438260083519,44.343,-6.506,22.436
77,1438260083539,44.343,-6.506,22.436
78,1438260083559,44.343,-6.506,22.436
79,1438260083579,44.343,-6.506,22.436
80,1438260083599,44.343,-6.506,22.436
81,1438260083619,44.343,-6.506,22.436
82,1438260083639,44.343,-6.506,22.436
83,1438260083659,44.343,-6.506,22.436
84,1438260083679,44.343,-6.506,22.436
85,1438260083699,44.343,-6.506,22.436
86,1438260083719,44.343,-6.506,22.436
87,1438260083739,44.343,-6.506,22.436
88,1438260083759,44.343,-6.187,22.436
89,1438260083779,44.343,-6.187,22.436
90,1438260083799,44.343,-6.187,22.436
91,1438260083819,44.042,-6.187,22.436
92,1438260083839,44.042,-6.187,22.436
93,1438260083859,44.042,-5.822,22.436
94,1438260083879,44.042,-5.822,22.436
95,1438260083899,44.042,-5.822,22.436
96,1438260083919,44.042,-5.822,22.436
97,1438260083939,44.042,-5.822,22.436
98,1438260083959,44.042,-5.508,22.436
99,1438260083979,44.042,-5.508,22.436
100,1438260083999,43.734,-5.508,22.117
101,1438260084019,43.734,-5.508,22.117
102,1438260084039,43.734,-5.508,22.117
103,1438260084060,43.734,-5.508,22.117
104,1438260084080,43.734,-5.508,22.117
105,1438260084100,43.734,-5.508,22.117
106,1438260084120,43.734,-5.508,22.117
107,1438260084140,43.734,-5.508,22.117
108,1438260084160,43.734,-5.508,22.117
109,1438260084180,43.734,-5.508,21.772
110,1438260084200,43.734,-5.508,21.772
111,1438260084220,43.734,-5.508,21.772
112,1438260084240,44.09,-5.508,21.772
113,1438260084260,44.09,-5.508,21.772
114,1438260084280,44.09,-5.508,21.772
115,1438260084300,44.09,-5.508,21.772
116,1438260084320,44.09,-5.508,21.772
117,1438260084340,44.09,-5.508,21.772
118,1438260084360,44.09,-5.508,21.772
119,1438260084380,44.425,-5.508,21.772
120,1438260084400,44.425,-5.508,21.772
121,1438260084420,44.425,-5.508,21.772
122,1438260084440,44.425,-5.508,21.772
123,1438260084460,44.425,-5.508,21.772
124,1438260084480,44.425,-5.508,21.772
125,1438260084500,44.425,-5.508,21.772
126,1438260084520,44.425,-5.508,21.772
127,1438260084540,44.425,-5.508,21.772
128,1438260084560,44.425,-5.508,21.772
129,1438260084580,44.113,-5.508,22.073
130,1438260084600,44.113,-5.508,22.073
131,1438260084620,44.113,-5.508,22.073
132,1438260084640,44.113,-5.508,22.444
133,1438260084660,44.113,-5.508,22.908
134,1438260084680,43.774,-5.928,23.538
135,1438260084700,43.774,-5.928,24.284
136,1438260084720,43.774,-7.225,24.789
137,1438260084740,43.437,-8.747,26.124
138,1438260084760,43.437,-9.515,26.495
139,1438260084780,43.437,-10.464,27.955
140,1438260084800,43.017,-10.464,27.955
141,1438260084820,43.017,-11.735,29.414
142,1438260084840,42.657,-12.298,30.094
143,1438260084860,42.083,-12.989,31.004
144,1438260084881,40.905,-13.671,31.663
145,1438260084900,40.208,-14.587,32.048
146,1438260084920,39.576,-15.702,32.505
147,1438260084940,37.924,-15.702,32.884
148,1438260084960,37.379,-16.14,33.413
149,1438260084980,36.486,-17.036,33.413
150,1438260085000,36.486,-17.662,34.152
151,1438260085020,35.607,-18.473,34.152
152,1438260085040,35.191,-19.462,34.716
153,1438260085060,34.356,-19.813,34.004
154,1438260085081,33.355,-20.465,34.938
155,1438260085101,32.588,-21.179,34.938
156,1438260085121,31.936,-21.905,35.745
157,1438260085141,32.24,-23.516,35.745
158,1438260085161,31.442,-24.09,35.745
159,1438260085181,31.01,-24.836,35.745
160,1438260085201,30.038,-25.579,35.398
161,1438260085221,30.038,-26.765,35.398
162,1438260085241,29.527,-27.403,35.398
163,1438260085261,28.926,-28.318,35.398
164,1438260085281,29.248,-30.233,35.398
165,1438260085301,28.651,-31.552,35.398
166,1438260085322,28.265,-32.51,35.398
167,1438260085341,27.391,-33.435,35.398
168,1438260085362,27.391,-34.428,35.398
169,1438260085381,27.391,-35.258,35.398
170,1438260085401,26.188,-35.716,35.398
171,1438260085421,25.216,-36.718,34.6
172,1438260085441,24.423,-37.553,33.695
173,1438260085461,23.724,-38.531,31.756
174,1438260085481,23.12,-39.144,30.79
175,1438260085501,22.261,-39.584,30.49
176,1438260085521,22.261,-40.353,29.843
177,1438260085541,21.82,-40.757,29.243
178,1438260085562,21.083,-41.348,27.96
179,1438260085581,21.083,-42.314,27.96
180,1438260085601,21.083,-43.406,26.107
181,1438260085621,21.083,-43.888,25.421
182,1438260085641,21.083,-43.888,24.562
183,1438260085661,20.462,-44.622,23.646
184,1438260085681,20.022,-44.622,22.659
185,1438260085701,20.022,-45.549,21.331
186,1438260085721,20.022,-46.087,20.646
187,1438260085741,20.022,-46.087,18.632
188,1438260085761,20.356,-46.528,18.232
189,1438260085781,20.356,-46.972,17.092
190,1438260085801,20.356,-46.972,15.676
191,1438260085821,20.356,-47.294,13.558
192,1438260085841,20.356,-47.642,12.425
193,1438260085861,20.356,-47.988,12.046
194,1438260085881,19.949,-48.533,9.571
195,1438260085901,19.949,-48.21,7.099
196,1438260085921,19.949,-47.653,5.281
197,1438260085941,19.502,-47.653,4.527
198,1438260085961,19.502,-47.653,2.427
199,1438260085981,19.502,-47.653,1.47
200,1438260086001,19.09,-47.653,0.34
201,1438260086021,19.09,-47.653,-1.048
202,1438260086041,19.09,-47.653,-2.551
203,1438260086061,19.09,-47.653,-2.551
204,1438260086081,19.09,-47.653,-3.976
205,1438260086101,19.09,-47.653,-4.481
206,1438260086121,19.09,-47.653,-5.331
207,1438260086142,20.309,-47.653,-5.331
208,1438260086162,21.815,-47.653,-6.044
209,1438260086182,22.39,-47.653,-6.736
210,1438260086202,22.979,-46.644,-7.052
211,1438260086222,23.309,-45.956,-7.846
212,1438260086242,24.096,-45.458,-7.302
213,1438260086262,23.738,-44.877,-8.496
214,1438260086282,24.554,-44.34,-7.852
215,1438260086302,25.012,-43.766,-7.852
216,1438260086322,25.527,-43.447,-8.622
217,1438260086342,25.115,-42.297,-8.622
218,1438260086362,25.57,-42.297,-9.161
219,1438260086382,25.57,-41.502,-9.161
220,1438260086402,25.148,-40.667,-9.161
221,1438260086422,25.543,-40.248,-10.113
222,1438260086442,25.979,-40.248,-9.169
223,1438260086462,25.979,-39.532,-9.169
224,1438260086482,26.313,-38.986,-9.169
225,1438260086502,25.944,-38.664,-8.802
226,1438260086522,26.409,-38.664,-9.127
227,1438260086542,27.024,-38.664,-9.127
228,1438260086562,27.789,-38.046,-9.127
229,1438260086582,28.338,-37.738,-9.127
230,1438260086602,29.603,-38.284,-9.483
231,1438260086622,29.975,-37.683,-9.483
232,1438260086642,30.398,-37.304,-9.483
233,1438260086662,31.393,-36.915,-9.483
234,1438260086682,31.393,-36.915,-9.483
235,1438260086702,31.773,-36.238,-9.483
236,1438260086722,31.773,-36.238,-9.483
237,1438260086742,32.409,-35.717,-9.483
238,1438260086762,32.409,-35.008,-9.483
239,1438260086782,32.74,-34.707,-9.483
240,1438260086802,33.283,-33.834,-9.483
241,1438260086822,33.283,-33.038,-9.483
242,1438260086842,34.085,-32.302,-9.483
243,1438260086863,34.085,-31.674,-9.483
244,1438260086883,34.085,-30.793,-9.483
245,1438260086903,34.695,-30.088,-9.817
246,1438260086922,35.02,-29.222,-9.817
247,1438260086942,35.02,-28.263,-9.817
248,1438260086962,36.366,-26.928,-9.817
249,1438260086985,37.002,-26.293,-9.817
250,1438260087002,37.649,-24.632,-9.817
251,1438260087022,37.649,-23.583,-9.817
252,1438260087042,37.957,-22.441,-9.817
253,1438260087062,38.851,-21.368,-9.817
254,1438260087082,39.352,-20.706,-9.817
255,1438260087102,39.352,-19.868,-9.817
256,1438260087122,40.307,-18.269,-9.817
257,1438260087142,40.307,-16.77,-10.183
258,1438260087162,40.307,-14.985,-10.183
259,1438260087182,40.307,-13.664,-10.183
260,1438260087202,40.989,-11.672,-10.183
261,1438260087222,40.989,-9.397,-10.183
262,1438260087242,41.427,-7.681,-10.498
263,1438260087263,41.984,-6.462,-10.498
264,1438260087283,41.984,-4.861,-10.498
265,1438260087303,41.375,-2.798,-10.498
266,1438260087323,41.375,-1.298,-10.498
267,1438260087343,41.375,0.181,-10.498
268,1438260087363,41.375,1.887,-10.498
269,1438260087383,41.375,3.285,-10.498
270,1438260087403,41.375,5.131,-10.498
271,1438260087423,41.708,6.443,-10.498
272,1438260087443,41.708,7.054,-10.498
273,1438260087463,42.169,7.572,-10.498
274,1438260087483,42.169,8.75,-10.498
275,1438260087503,42.582,10.224,-9.899
276,1438260087523,42.582,11.486,-8.58
277,1438260087544,42.965,12.956,-8.58
278,1438260087563,42.965,14.212,-7.87
279,1438260087583,43.336,15.185,-7.29
280,1438260087603,43.336,16.468,-6.581
281,1438260087623,43.807,18.19,-5.506
282,1438260087643,43.807,19.563,-5.506
283,1438260087663,43.807,21.38,-4.621
284,1438260087683,44.23,23.149,-3.849
285,1438260087703,44.23,23.149,-3.849
286,1438260087723,44.23,23.149,-3.372
287,1438260087743,44.566,23.663,-2.687
288,1438260087763,44.566,24.432,-3.688
289,1438260087783,44.566,25.205,-3.266
290,1438260087803,44.566,25.205,-2.514
291,1438260087823,44.894,25.205,-2.83
292,1438260087843,44.894,25.805,-2.83
293,1438260087863,44.894,25.805,-2.153
294,1438260087883,44.894,25.805,-2.153
295,1438260087903,44.894,26.161,-2.153
296,1438260087923,44.894,26.161,-1.521
297,1438260087943,44.894,26.161,-1.135
298,1438260087963,44.894,26.161,-1.135
299,1438260087983,44.894,26.576,-1.135
300,1438260088003,44.894,26.576,-1.135
301,1438260088023,44.894,26.576,-0.772
302,1438260088043,44.894,26.576,-1.287
303,1438260088063,44.894,26.576,-1.287
304,1438260088084,44.894,26.576,-1.287
305,1438260088104,44.894,26.576,-1.287
306,1438260088124,44.894,26.576,-1.287
307,1438260088143,44.894,26.576,-1.287
308,1438260088164,45.233,26.907,-1.676
309,1438260088184,45.233,26.907,-2.32
310,1438260088204,45.233,28.318,-2.658
311,1438260088224,45.233,29.396,-3.248
312,1438260088244,45.233,30.537,-4.08
313,1438260088264,45.233,31.199,-5.021
314,1438260088284,45.233,32.824,-5.021
315,1438260088304,45.233,34.559,-5.021
316,1438260088324,45.233,36.065,-5.746
317,1438260088344,45.233,37.667,-5.746
318,1438260088364,45.233,38.96,-6.825
319,1438260088384,45.233,39.599,-8.013
320,1438260088404,45.233,39.147,-9.088
321,1438260088424,44.917,38.488,-10.264
322,1438260088444,44.917,38.165,-10.719
323,1438260088464,44.917,37.733,-11.143
324,1438260088484,44.57,37.026,-11.737
325,1438260088504,44.57,36.578,-11.737
326,1438260088524,44.265,36.083,-12.747
327,1438260088544,44.265,36.083,-13.421
328,1438260088564,44.265,35.063,-13.421
329,1438260088584,43.798,34.501,-14.602
330,1438260088604,43.798,34.501,-15.39
331,1438260088624,43.45,33.779,-15.39
332,1438260088644,43.09,33.779,-16.322
333,1438260088664,42.645,33.779,-17.105
334,1438260088684,42.303,33.779,-16.571
335,1438260088704,42.303,33.779,-16.139
336,1438260088724,42.303,33.351,-16.139
337,1438260088744,42.303,33.708,-16.729
338,1438260088765,41.943,34.223,-15.556
339,1438260088784,41.943,34.223,-15.556
340,1438260088804,41.943,34.793,-15.045
341,1438260088824,41.943,34.793,-14.207
342,1438260088844,41.943,34.793,-14.523
343,1438260088865,41.943,34.793,-13.645
344,1438260088884,41.943,34.793,-13.645
345,1438260088904,41.943,34.793,-12.129
346,1438260088924,41.943,35.537,-10.568
347,1438260088944,42.835,36.05,-9.408
348,1438260088964,43.771,36.622,-7.945
349,1438260088984,44.581,36.991,-7.359
350,1438260089004,45.085,36.991,-6.736
351,1438260089024,45.568,37.336,-6.736
352,1438260089045,46.166,37.336,-5.834
353,1438260089064,45.359,37.821,-5.834
354,1438260089084,45.933,37.481,-5.506
355,1438260089104,46.54,37.481,-5.506
356,1438260089124,46.54,37.481,-5.506
357,1438260089144,46.919,37.481,-5.506
358,1438260089165,46.919,37.481,-5.506
359,1438260089185,47.326,37.481,-4.539
360,1438260089205,46.647,37.481,-4.539
361,1438260089224,46.647,37.481,-4.882
362,1438260089244,46.647,37.481,-4.882
363,1438260089264,47.171,37.481,-4.882
364,1438260089285,47.171,37.481,-5.354
365,1438260089305,47.171,37.481,-5.354
366,1438260089325,47.171,37.481,-5.354
367,1438260089345,47.171,37.481,-4.995
368,1438260089365,47.633,37.481,-4.995
369,1438260089385,47.633,37.135,-4.682
370,1438260089405,47.633,37.135,-4.682
371,1438260089425,47.938,37.135,-4.682
372,1438260089445,47.938,36.766,-4.331
373,1438260089465,47.938,36.766,-4.331
374,1438260089485,47.938,36.766,-4.331
375,1438260089505,47.938,36.402,-4.331
376,1438260089525,48.249,36.402,-4.331
377,1438260089545,48.249,36.402,-3.977
378,1438260089565,48.249,36.402,-3.977
379,1438260089585,48.249,36.08,-3.977
380,1438260089605,48.249,36.08,-3.977
381,1438260089625,48.249,36.08,-3.977
382,1438260089645,48.249,36.08,-3.637
383,1438260089665,48.249,36.08,-3.637
384,1438260089685,48.249,36.08,-3.637
385,1438260089705,48.249,35.76,-3.637
386,1438260089725,48.249,35.76,-3.283
387,1438260089745,48.249,35.76,-3.283
388,1438260089765,48.249,35.76,-3.283
389,1438260089785,48.611,35.76,-3.283
390,1438260089805,48.611,35.76,-3.283
391,1438260089825,48.611,35.76,-2.975
392,1438260089845,48.611,35.76,-2.975
393,1438260089865,48.611,35.76,-2.975
394,1438260089885,48.611,35.76,-2.975
395,1438260089905,48.985,35.76,-2.656
396,1438260089925,48.985,35.76,-2.656
397,1438260089945,48.985,35.76,-2.656
398,1438260089965,49.298,35.76,-2.333
399,1438260089985,49.298,35.76,-2.333
400,1438260090005,49.298,35.76,-2.333
401,1438260090025,49.298,35.76,-2.333
402,1438260090045,49.298,35.76,-2.333
403,1438260090065,49.298,36.062,-2.333
404,1438260090085,49.298,36.062,-2.333
405,1438260090105,49.298,36.062,-2.333
406,1438260090125,49.298,36.364,-2.333
407,1438260090145,49.298,36.364,-2.333
408,1438260090165,49.298,36.364,-2.333
409,1438260090185,49.298,36.364,-2.333
410,1438260090205,49.298,36.701,-2.333
411,1438260090225,49.298,36.701,-2.333
412,1438260090246,49.298,36.701,-2.333
413,1438260090266,49.298,36.701,-2.333
414,1438260090286,48.992,37.03,-2.333
415,1438260090306,48.992,37.03,-2.333
416,1438260090326,48.992,37.03,-2.658
417,1438260090346,48.992,37.03,-2.658
418,1438260090366,48.666,37.03,-2.658
419,1438260090386,48.666,37.356,-2.658
420,1438260090406,48.666,37.356,-2.658
421,1438260090426,48.666,37.356,-2.658
422,1438260090448,48.666,37.356,-2.658
423,1438260090466,48.666,37.356,-2.658
424,1438260090486,48.666,37.356,-2.658
425,1438260090506,48.666,37.356,-2.658
426,1438260090526,48.666,37.356,-2.658
427,1438260090546,48.666,37.356,-2.658
428,1438260090566,48.666,37.356,-2.658
429,1438260090586,48.666,37.356,-2.658
430,1438260090606,48.666,37.672,-2.658
431,1438260090626,48.666,37.672,-2.658
432,1438260090646,48.666,37.672,-2.658
433,1438260090666,48.666,37.672,-2.658
434,1438260090686,48.666,37.672,-2.658
435,1438260090706,48.666,37.672,-2.658
436,1438260090726,48.666,37.672,-2.658
437,1438260090746,48.666,37.672,-2.658
438,1438260090767,48.666,37.672,-2.658
439,1438260090786,48.364,37.672,-2.658
440,1438260090806,48.364,37.672,-2.658
441,1438260090826,48.364,37.672,-2.658
442,1438260090846,48.364,37.672,-2.658
443,1438260090866,48.364,37.672,-2.658
444,1438260090886,48.364,37.672,-2.658
445,1438260090906,48.364,37.672,-2.658
446,1438260090926,48.364,37.672,-2.658
447,1438260090946,48.364,37.672,-2.658
448,1438260090966,48.364,37.672,-2.658
449,1438260090986,48.364,37.672,-2.658
450,1438260091018,48.364,37.672,-2.658
451,1438260091026,48.364,37.672,-2.658
452,1438260091046,48.364,37.672,-2.972
453,1438260091066,48.043,38.002,-2.972
454,1438260091086,48.043,38.002,-2.972
455,1438260091106,48.043,38.002,-2.972
456,1438260091126,48.043,38.002,-2.972
457,1438260091146,48.043,38.002,-2.972
458,1438260091166,48.043,38.002,-2.972
459,1438260091186,48.043,38.002,-2.972
460,1438260091206,48.043,38.002,-2.972
461,1438260091226,48.043,38.002,-2.972
462,1438260091246,48.043,38.002,-3.279
463,1438260091266,48.043,38.002,-3.279
464,1438260091287,48.043,38.002,-3.279
465,1438260091307,47.712,38.002,-3.279
466,1438260091327,47.712,38.002,-3.279
467,1438260091347,47.712,38.002,-3.279
468,1438260091367,47.712,38.002,-3.279
469,1438260091387,47.712,38.002,-3.279
470,1438260091407,47.712,38.002,-3.591
471,1438260091427,47.712,38.002,-3.591
472,1438260091447,47.712,38.002,-3.591
473,1438260091467,47.712,38.002,-3.591
474,1438260091487,47.712,38.002,-3.591
475,1438260091507,47.712,38.304,-3.591
476,1438260091527,47.396,38.304,-3.591
477,1438260091547,47.396,38.304,-3.591
478,1438260091567,47.396,38.304,-3.591
479,1438260091587,47.396,38.304,-3.591
480,1438260091607,47.396,38.304,-3.591
481,1438260091627,47.396,38.304,-3.591
482,1438260091647,47.396,38.304,-3.28
483,1438260091667,47.396,38.304,-3.28
484,1438260091687,47.396,38.304,-3.28
485,1438260091707,47.396,38.639,-3.28
486,1438260091727,47.396,38.639,-2.946
487,1438260091747,47.396,38.639,-2.946
488,1438260091767,47.396,38.639,-2.946
489,1438260091787,47.396,38.639,-2.946
490,1438260091807,47.396,38.639,-2.946
491,1438260091828,47.396,38.639,-2.6
492,1438260091847,47.711,38.639,-2.6
493,1438260091867,47.711,38.639,-2.6
494,1438260091887,47.711,38.639,-2.6
495,1438260091907,47.711,38.639,-2.6
496,1438260091927,47.711,38.639,-2.6
497,1438260091947,48.078,38.327,-2.6
498,1438260091967,48.078,38.327,-2.6
499,1438260091987,48.078,38.327,-2.284
500,1438260092007,48.078,38.327,-2.284
501,1438260092027,48.078,38.327,-2.284
502,1438260092047,48.078,38.327,-2.284
503,1438260092067,48.382,38.327,-2.284
504,1438260092087,48.382,38.327,-2.284
505,1438260092107,48.382,38.327,-2.284
506,1438260092127,48.382,38.327,-2.284
507,1438260092147,48.382,38.327,-2.284
508,1438260092167,48.382,38.327,-2.284
509,1438260092187,48.382,38.327,-2.284
510,1438260092207,48.382,38.327,-2.284
511,1438260092227,48.382,38.327,-2.284
512,1438260092247,48.382,38.327,-2.284
513,1438260092267,48.382,38.327,-2.284
514,1438260092287,48.382,38.327,-2.284
515,1438260092308,48.382,38.327,-2.284
