id,attr_time,attr_x,attr_y,attr_z
1,1436281856015,27.1896,10.1593,12.2589
2,1436281856036,25.4364,10.5103,11.9217
3,1436281856055,27.0142,11.7416,13.0997
4,1436281856077,27.0142,11.7416,13.0997
5,1436281856094,25.7874,12.2681,11.2488
6,1436281856114,27.3636,9.63135,13.0997
7,1436281856135,27.3636,9.63135,13.0997
8,1436281856154,26.1383,11.2137,12.2589
9,1436281856176,26.3123,10.6873,12.4268
10,1436281856192,26.3123,10.6873,12.4268
11,1436281856212,25.6119,11.0382,12.7625
12,1436281856233,27.1896,9.80835,11.9217
13,1436281856252,27.1896,9.80835,11.9217
14,1436281856275,27.5391,11.2137,12.2589
15,1436281856290,27.0142,11.3892,12.0895
16,1436281856311,27.0142,11.3892,12.0895
17,1436281856331,25.9628,12.0926,12.0895
18,1436281856351,27.0142,11.3892,10.7452
19,1436281856373,27.0142,11.3892,10.7452
20,1436281856390,27.3636,10.3348,12.7625
21,1436281856410,27.3636,10.3348,12.7625
22,1436281856430,27.3636,10.3348,12.7625
23,1436281856450,25.4364,11.2137,12.9318
24,1436281856469,26.4877,10.1593,12.5946
25,1436281856489,26.4877,10.1593,12.5946
26,1436281856510,26.6632,9.63135,13.4354
27,1436281856529,27.0142,9.98383,13.7726
28,1436281856548,27.0142,9.98383,13.7726
29,1436281856569,25.4364,11.2137,12.5946
30,1436281856588,25.9628,10.3348,13.4354
31,1436281856610,25.9628,10.3348,13.4354
32,1436281856627,26.1383,10.8627,13.6032
33,1436281856646,26.3123,9.2804,11.4182
34,1436281856667,26.3123,9.2804,11.4182
35,1436281856686,25.7874,12.2681,13.2675
36,1436281856709,25.6119,12.0926,11.7538
37,1436281856726,25.6119,12.0926,11.7538
38,1436281856746,27.0142,10.3348,12.4268
39,1436281856766,26.8387,9.80835,12.2589
40,1436281856783,26.8387,9.80835,12.2589
41,1436281856807,25.7874,10.8627,13.6032
42,1436281856825,26.4877,9.80835,13.2675
43,1436281856844,26.4877,9.80835,13.2675
44,1436281856864,26.1383,11.2137,14.2761
45,1436281856883,26.3123,10.6873,12.0895
46,1436281856906,26.3123,10.6873,12.0895
47,1436281856923,27.5391,11.2137,11.9217
48,1436281856943,26.6632,9.63135,12.0895
49,1436281856962,26.6632,9.63135,12.0895
50,1436281856982,26.3123,9.98383,13.0997
51,1436281857003,27.1896,9.45587,12.2589
52,1436281857022,27.1896,9.45587,12.2589
53,1436281857042,27.89,11.5662,13.2675
54,1436281857062,24.9115,8.92944,14.1083
55,1436281857081,24.9115,8.92944,14.1083
56,1436281857101,27.1896,12.2681,12.9318
57,1436281857121,27.0142,9.2804,12.4268
58,1436281857140,27.0142,9.2804,12.4268
59,1436281857161,27.1896,11.5662,12.5946
60,1436281857179,26.1383,9.45587,12.9318
61,1436281857200,26.1383,9.45587,12.9318
62,1436281857219,26.6632,10.3348,12.7625
63,1436281857239,26.3123,9.2804,11.7538
64,1436281857259,26.3123,9.2804,11.7538
65,1436281857277,26.8387,10.8627,12.2589
66,1436281857300,26.1383,9.80835,11.586
67,1436281857317,26.1383,9.80835,11.586
68,1436281857338,25.6119,11.7416,12.7625
69,1436281857357,26.6632,10.3348,11.7538
70,1436281857379,26.6632,10.3348,11.7538
71,1436281857396,25.7874,11.5662,12.5946
72,1436281857416,26.6632,9.2804,12.4268
73,1436281857437,26.6632,9.2804,12.4268
74,1436281857454,25.7874,11.2137,13.2675
75,1436281857478,27.3636,9.2804,12.7625
76,1436281857494,27.3636,9.2804,12.7625
77,1436281857515,25.4364,11.9171,12.2589
78,1436281857536,27.5391,11.2137,12.9318
79,1436281857554,27.5391,11.2137,12.9318
80,1436281857577,26.3123,12.0926,12.7625
81,1436281857594,27.1896,9.45587,12.2589
82,1436281857614,27.1896,9.45587,12.2589
83,1436281857634,26.4877,11.2137,11.9217
84,1436281857653,26.1383,11.9171,12.5946
85,1436281857675,26.1383,11.9171,12.5946
86,1436281857692,27.0142,10.6873,13.7726
87,1436281857713,26.8387,10.8627,12.9318
88,1436281857733,26.8387,10.8627,12.9318
89,1436281857752,26.6632,11.3892,13.7726
90,1436281857770,25.9628,10.3348,11.4182
91,1436281857792,25.9628,10.3348,11.4182
92,1436281857810,26.1383,10.5103,13.6032
93,1436281857832,26.8387,11.2137,12.5946
94,1436281857851,26.8387,11.2137,12.5946
95,1436281857873,26.6632,11.0382,14.444
96,1436281857889,27.89,12.6205,13.6032
97,1436281857910,27.89,12.6205,13.6032
98,1436281857930,27.0142,11.7416,12.0895
99,1436281857947,26.1383,10.8627,11.9217
100,1436281857970,26.1383,10.8627,11.9217
101,1436281857988,26.6632,9.2804,12.7625
102,1436281858009,28.2394,11.2137,12.5946
103,1436281858029,28.2394,11.2137,12.5946
104,1436281858048,25.6119,11.7416,12.0895
105,1436281858070,26.6632,10.3348,13.7726
106,1436281858087,26.6632,10.3348,13.7726
107,1436281858107,27.3636,11.7416,12.0895
108,1436281858127,26.3123,9.63135,12.7625
109,1436281858147,26.3123,9.63135,12.7625
110,1436281858167,25.087,11.5662,13.2675
111,1436281858186,25.9628,10.3348,12.4268
112,1436281858206,25.9628,10.3348,12.4268
113,1436281858225,27.1896,11.9171,12.5946
114,1436281858245,27.5391,10.5103,12.5946
115,1436281858263,27.5391,10.5103,12.5946
116,1436281858285,25.9628,11.3892,14.1083
117,1436281858303,26.1383,10.8627,11.9217
118,1436281858324,26.1383,10.8627,11.9217
119,1436281858344,24.5605,11.3892,13.4354
120,1436281858364,27.3636,9.98383,12.0895
121,1436281858383,27.3636,9.98383,12.0895
122,1436281858403,26.8387,9.80835,12.9318
123,1436281858423,26.6632,11.0382,13.7726
124,1436281858442,26.6632,11.0382,13.7726
125,1436281858463,28.0655,11.7416,12.7625
126,1436281858481,27.0142,9.98383,12.4268
127,1436281858504,27.0142,9.98383,12.4268
128,1436281858522,26.4877,12.6205,12.2589
129,1436281858541,26.3123,9.98383,13.0997
130,1436281858561,26.3123,9.98383,13.0997
131,1436281858580,25.9628,11.3892,12.4268
132,1436281858601,26.6632,10.3348,12.4268
133,1436281858620,26.6632,10.3348,12.4268
134,1436281858640,27.5391,11.9171,14.2761
135,1436281858660,26.1383,10.1593,12.5946
136,1436281858680,26.1383,10.1593,12.5946
137,1436281858700,26.4877,11.9171,12.5946
138,1436281858719,27.3636,10.3348,11.4182
139,1436281858739,27.3636,10.3348,11.4182
140,1436281858758,26.6632,12.796,11.4182
141,1436281858778,25.9628,9.63135,12.4268
142,1436281858798,25.9628,9.63135,12.4268
143,1436281858818,26.4877,12.2681,13.2675
144,1436281858836,27.7145,9.63135,12.0895
145,1436281858858,27.7145,9.63135,12.0895
146,1436281858877,27.0142,11.3892,12.4268
147,1436281858896,26.1383,10.1593,13.2675
148,1436281858916,26.1383,10.1593,13.2675
149,1436281858936,26.6632,12.796,13.0997
150,1436281858956,27.3636,9.98383,12.0895
151,1436281858974,27.3636,9.98383,12.0895
152,1436281858998,27.7145,10.6873,12.4268
153,1436281859015,27.0142,11.3892,11.4182
154,1436281859035,27.0142,11.3892,11.4182
155,1436281859055,27.7145,11.3892,12.0895
156,1436281859073,26.3123,10.3348,10.7452
157,1436281859096,26.3123,10.3348,10.7452
158,1436281859113,27.0142,11.7416,13.7726
159,1436281859133,26.8387,11.2137,13.2675
160,1436281859154,26.8387,11.2137,13.2675
161,1436281859173,26.3123,12.0926,13.0997
162,1436281859195,26.4877,12.6205,11.9217
163,1436281859212,26.4877,12.6205,11.9217
164,1436281859231,25.7874,10.8627,11.9217
165,1436281859251,27.89,11.5662,11.586
166,1436281859271,27.89,11.5662,11.586
167,1436281859293,26.3123,11.0382,13.0997
168,1436281859311,27.89,9.10492,13.2675
169,1436281859333,27.89,9.10492,13.2675
170,1436281859350,25.6119,11.3892,12.7625
171,1436281859370,27.7145,10.3348,12.0895
172,1436281859390,27.7145,10.3348,12.0895
173,1436281859409,25.9628,10.6873,12.4268
174,1436281859432,25.7874,10.1593,11.586
175,1436281859449,25.7874,10.1593,11.586
176,1436281859468,28.2394,10.8627,14.2761
177,1436281859489,27.0142,12.796,12.0895
178,1436281859508,27.0142,12.796,12.0895
179,1436281859530,26.4877,11.2137,12.5946
180,1436281859548,26.1383,11.2137,13.2675
181,1436281859566,26.1383,11.2137,13.2675
182,1436281859588,27.89,12.2681,12.9318
183,1436281859606,26.8387,9.80835,12.2589
184,1436281859629,26.8387,9.80835,12.2589
185,1436281859646,26.8387,13.324,11.586
186,1436281859665,26.8387,10.5103,11.9217
187,1436281859686,26.8387,10.5103,11.9217
188,1436281859705,25.6119,11.3892,11.7538
189,1436281859727,25.9628,8.92944,11.0809
190,1436281859744,25.9628,8.92944,11.0809
191,1436281859765,27.89,10.8627,13.6032
192,1436281859784,26.4877,7.34711,12.5946
193,1436281859804,26.4877,7.34711,12.5946
194,1436281859825,26.4877,8.40149,11.586
195,1436281859844,27.7145,7.17163,10.7452
196,1436281859863,27.7145,7.17163,10.7452
197,1436281859883,27.5391,8.05054,11.586
198,1436281859902,27.1896,6.99463,10.2402
199,1436281859925,27.1896,6.99463,10.2402
200,1436281859942,28.9413,6.99463,11.2488
201,1436281859961,28.5904,4.18243,11.586
202,1436281859982,28.5904,4.18243,11.586
203,1436281860031,28.9413,5.94025,11.9217
204,1436281860032,28.7659,4.00696,11.4182
205,1436281860037,28.7659,4.00696,11.4182
206,1436281860071,28.5904,4.53491,10.9131
207,1436281860077,28.5904,4.53491,10.2402
208,1436281860099,28.5904,4.53491,10.2402
209,1436281860117,30.1666,4.00696,11.4182
210,1436281860136,28.9413,2.7771,11.9217
211,1436281860156,28.9413,2.7771,11.9217
212,1436281860187,29.1168,5.06134,10.7452
213,1436281860196,28.4149,3.30353,12.7625
214,1436281860219,28.4149,3.30353,12.7625
215,1436281860235,29.8172,2.6001,12.7625
216,1436281860260,30.6931,-0.387573,13.2675
217,1436281860276,30.6931,-0.387573,13.2675
218,1436281860296,28.9413,3.12805,14.6133
219,1436281860317,30.8685,2.24915,14.444
220,1436281860336,30.8685,2.24915,14.444
221,1436281860359,28.2394,1.72119,15.6219
222,1436281860375,28.7659,2.95258,15.1169
223,1436281860395,28.7659,2.95258,15.1169
224,1436281860417,30.8685,3.30353,15.1169
225,1436281860435,28.0655,1.89819,15.4541
226,1436281860457,28.0655,1.89819,15.4541
227,1436281860475,28.0655,4.71039,15.4541
228,1436281860495,28.9413,4.18243,15.9576
229,1436281860515,28.9413,4.18243,15.9576
230,1436281860535,27.0142,4.35791,16.7984
231,1436281860555,27.5391,4.53491,16.6306
232,1436281860575,27.5391,4.53491,16.6306
233,1436281860593,28.9413,4.88586,15.6219
234,1436281860614,29.4662,5.41382,15.4541
235,1436281860633,29.4662,5.41382,15.4541
236,1436281860655,29.8172,5.76477,15.1169
237,1436281860672,29.9927,6.64368,15.2847
238,1436281860692,29.9927,6.64368,15.2847
239,1436281860712,30.8685,9.2804,13.4354
240,1436281860730,29.9927,8.75244,13.2675
241,1436281860754,29.9927,8.75244,13.2675
242,1436281860770,30.6931,7.34711,13.2675
243,1436281860791,30.6931,8.05054,10.9131
244,1436281860811,30.6931,8.05054,10.9131
245,1436281860830,31.3934,8.75244,11.9217
246,1436281860849,32.6202,10.6873,10.408
247,1436281860871,32.6202,10.6873,10.408
248,1436281860889,33.1451,9.80835,10.9131
249,1436281860909,31.044,10.8627,9.23157
250,1436281860929,31.044,10.8627,9.23157
251,1436281860950,31.9199,12.0926,8.05359
252,1436281860968,32.9697,12.796,8.05359
253,1436281860988,32.9697,12.796,8.05359
254,1436281861008,31.9199,13.8504,7.7179
255,1436281861027,30.8685,11.0382,5.02777
256,1436281861046,30.8685,11.0382,5.02777
257,1436281861067,31.218,13.4995,7.04498
258,1436281861086,30.8685,13.4995,5.02777
259,1436281861107,30.8685,13.4995,5.02777
260,1436281861126,31.218,14.9048,7.04498
261,1436281861148,30.6931,16.1362,4.85992
262,1436281861166,30.6931,16.1362,4.85992
263,1436281861185,30.6931,17.1906,5.86853
264,1436281861206,28.2394,18.5974,4.52271
265,1436281861223,28.2394,18.5974,4.52271
266,1436281861244,29.6417,18.2449,5.19562
267,1436281861263,28.9413,19.2993,3.84979
268,1436281861286,28.9413,19.2993,3.84979
269,1436281861303,29.2908,18.9484,6.54144
270,1436281861323,29.2908,18.5974,6.20422
271,1436281861344,29.2908,18.5974,6.20422
272,1436281861363,31.044,20.0027,6.20422
273,1436281861385,29.8172,17.7185,7.04498
274,1436281861402,29.8172,17.7185,7.04498
275,1436281861422,30.1666,18.4204,9.06372
276,1436281861441,30.5176,17.366,7.7179
277,1436281861461,30.5176,17.366,7.7179
278,1436281861484,31.218,19.1238,9.39941
279,1436281861501,31.9199,18.4204,8.05359
280,1436281861521,31.9199,18.4204,8.05359
281,1436281861539,32.7957,18.2449,11.2488
282,1436281861560,31.7444,16.1362,10.2402
283,1436281861579,31.7444,16.1362,10.2402
284,1436281861600,32.4448,20.0027,10.5774
285,1436281861619,32.0938,16.4871,10.5774
286,1436281861640,32.0938,16.4871,10.5774
287,1436281861659,30.8685,18.7729,9.73663
288,1436281861678,31.7444,18.2449,7.88574
289,1436281861698,31.7444,18.2449,7.88574
290,1436281861716,31.7444,18.9484,8.22296
291,1436281861738,31.218,17.366,7.7179
292,1436281861756,31.218,17.366,7.7179
293,1436281861780,31.9199,18.4204,10.0723
294,1436281861797,34.021,18.4204,7.04498
295,1436281861817,34.021,18.4204,7.04498
296,1436281861837,33.847,18.9484,6.20422
297,1436281861856,33.3206,19.1238,5.70068
298,1436281861879,33.3206,19.1238,5.70068
299,1436281861895,34.8969,21.0571,4.85992
300,1436281861914,34.1965,20.3552,3.5141
301,1436281861936,34.1965,20.3552,3.5141
302,1436281861955,35.4233,21.2341,3.00903
303,1436281861977,35.0723,21.936,2.33612
304,1436281861994,35.0723,21.936,2.33612
305,1436281862014,34.021,23.6938,2.33612
306,1436281862032,33.847,23.5184,1.83258
307,1436281862053,33.847,23.5184,1.83258
308,1436281862075,32.9697,23.6938,1.32751
309,1436281862093,35.2478,24.2218,4.52271
310,1436281862112,35.2478,24.2218,4.52271
311,1436281862133,33.4961,24.9252,3.84979
312,1436281862152,33.3206,24.3973,3.34625
313,1436281862174,33.3206,24.3973,3.34625
314,1436281862191,33.6716,25.1007,4.69055
315,1436281862210,33.847,25.2762,3.84979
316,1436281862231,33.847,25.2762,3.84979
317,1436281862249,33.1451,26.3306,5.53131
318,1436281862271,33.1451,24.9252,4.85992
319,1436281862290,33.1451,24.9252,4.85992
320,1436281862312,32.0938,28.4409,4.85992
321,1436281862329,32.9697,27.9129,7.04498
322,1436281862349,32.9697,27.9129,7.04498
323,1436281862370,32.4448,28.7918,6.87714
324,1436281862389,33.3206,27.2095,7.04498
325,1436281862408,33.3206,27.2095,7.04498
326,1436281862428,32.7957,29.8462,8.55865
327,1436281862448,32.2693,28.2654,8.05359
328,1436281862468,32.2693,28.2654,8.05359
329,1436281862487,31.218,29.3198,9.39941
330,1436281862510,33.3206,28.2654,10.0723
331,1436281862526,33.3206,28.2654,10.0723
332,1436281862547,32.0938,31.2531,7.88574
333,1436281862565,32.2693,30.3741,10.408
334,1436281862586,32.2693,30.3741,10.408
335,1436281862608,31.3934,28.4409,11.2488
336,1436281862626,33.847,29.1443,8.89587
337,1436281862645,33.847,29.1443,8.89587
338,1436281862666,34.3719,28.6163,11.7538
339,1436281862684,34.1965,25.9796,10.9131
340,1436281862707,34.1965,25.9796,10.9131
341,1436281862724,33.847,28.0884,12.2589
342,1436281862743,33.4961,24.9252,11.586
343,1436281862764,33.4961,24.9252,11.586
344,1436281862783,34.3719,26.8585,11.4182
345,1436281862806,32.4448,24.9252,12.2589
346,1436281862823,32.4448,24.9252,12.2589
347,1436281862842,34.021,27.5619,10.408
348,1436281862863,34.5474,25.2762,10.2402
349,1436281862882,34.5474,25.2762,10.2402
350,1436281862901,34.5474,25.9796,10.2402
351,1436281862922,35.5988,23.1674,11.586
352,1436281862941,35.5988,23.1674,11.586
353,1436281862962,35.4233,24.7498,10.0723
354,1436281862981,34.7229,20.5307,9.73663
355,1436281863003,34.7229,20.5307,9.73663
356,1436281863019,36.2991,20.7062,10.9131
357,1436281863040,36.2991,19.2993,11.9217
358,1436281863059,36.2991,19.2993,11.9217
359,1436281863079,35.9482,19.6518,13.9404
360,1436281863100,37.175,17.366,13.4354
361,1436281863119,37.175,17.366,13.4354
362,1436281863139,36.824,16.6626,14.7812
363,1436281863158,36.2991,16.4871,14.2761
364,1436281863178,36.2991,16.4871,14.2761
365,1436281863198,35.0723,17.0151,16.1255
366,1436281863217,34.5474,15.0818,13.9404
367,1436281863236,34.5474,15.0818,13.9404
368,1436281863257,34.7229,18.4204,14.444
369,1436281863277,33.3206,19.1238,15.1169
370,1436281863297,33.3206,19.1238,15.1169
371,1436281863316,34.5474,18.5974,14.949
372,1436281863337,34.021,17.366,15.1169
373,1436281863356,34.021,17.366,15.1169
374,1436281863375,33.4961,18.2449,16.2949
375,1436281863395,31.5689,19.1238,17.1356
376,1436281863415,31.5689,19.1238,17.1356
377,1436281863435,30.6931,20.0027,15.9576
378,1436281863454,31.7444,21.4096,15.6219
379,1436281863474,31.7444,21.4096,15.6219
380,1436281863494,31.5689,24.7498,16.4627
381,1436281863512,31.3934,23.8709,15.6219
382,1436281863534,31.3934,23.8709,15.6219
383,1436281863552,30.5176,27.2095,14.444
384,1436281863572,30.3421,26.683,14.6133
385,1436281863592,30.3421,26.683,14.6133
386,1436281863612,30.6931,28.0884,14.949
387,1436281863632,30.1666,27.9129,14.444
388,1436281863652,30.1666,27.9129,14.444
389,1436281863670,28.7659,28.2654,15.1169
390,1436281863691,28.5904,28.4409,14.2761
391,1436281863710,28.5904,28.4409,14.2761
392,1436281863730,28.5904,28.4409,15.6219
393,1436281863750,26.1383,30.1987,15.2847
394,1436281863770,26.1383,30.1987,15.2847
395,1436281863790,26.3123,31.781,15.4541
396,1436281863809,25.6119,33.5388,13.7726
397,1436281863830,25.6119,33.5388,13.7726
398,1436281863849,26.8387,33.7143,13.9404
399,1436281863868,25.6119,33.8898,12.7625
400,1436281863889,25.6119,33.8898,12.7625
401,1436281863907,25.9628,31.4285,13.7726
402,1436281863928,26.4877,31.9565,13.2675
403,1436281863948,26.4877,31.9565,13.2675
404,1436281863967,27.1896,31.9565,16.2949
405,1436281863988,28.0655,29.3198,16.4627
406,1436281864005,28.0655,29.3198,16.4627
407,1436281864027,25.6119,28.9673,16.1255
408,1436281864045,27.3636,28.2654,16.4627
409,1436281864066,27.3636,28.2654,16.4627
410,1436281864086,27.5391,29.1443,16.6306
411,1436281864105,26.8387,29.1443,14.2761
412,1436281864125,26.8387,29.1443,14.2761
413,1436281864145,25.6119,28.6163,16.1255
414,1436281864167,26.1383,29.1443,16.2949
415,1436281864184,26.1383,29.1443,16.2949
416,1436281864204,25.087,29.8462,16.9678
417,1436281864223,23.5092,29.3198,15.4541
418,1436281864243,23.5092,29.3198,15.4541
419,1436281864266,23.1598,30.3741,15.7898
420,1436281864283,23.3353,31.604,16.6306
421,1436281864302,23.3353,31.604,16.6306
422,1436281864321,23.1598,31.781,15.7898
423,1436281864342,23.3353,30.9021,14.949
424,1436281864364,23.3353,30.9021,14.949
425,1436281864381,22.2839,32.3074,17.6392
426,1436281864400,20.7062,31.781,16.1255
427,1436281864422,20.7062,31.781,16.1255
428,1436281864441,21.0571,32.8354,16.1255
429,1436281864463,20.3568,31.4285,15.7898
430,1436281864480,20.3568,31.4285,15.7898
431,1436281864498,20.5322,35.1196,12.5946
432,1436281864520,19.3054,34.5932,12.7625
433,1436281864538,19.3054,34.5932,12.7625
434,1436281864559,17.0273,34.7687,11.2488
435,1436281864579,15.6265,34.7687,8.22296
436,1436281864599,15.6265,34.7687,8.22296
437,1436281864619,15.2756,36.5265,9.56726
438,1436281864638,14.7507,35.9985,9.06372
439,1436281864660,14.7507,35.9985,9.06372
440,1436281864677,14.2242,35.1196,7.21283
441,1436281864697,14.2242,34.7687,8.89587
442,1436281864717,14.2242,34.7687,8.89587
443,1436281864737,14.0488,35.6476,9.73663
444,1436281864759,15.6265,34.7687,8.55865
445,1436281864776,15.6265,34.7687,8.55865
446,1436281864796,14.3997,34.9442,7.3822
447,1436281864815,15.2756,34.7687,8.22296
448,1436281864835,15.2756,34.7687,8.22296
449,1436281864858,14.9246,35.4721,6.87714
450,1436281864875,13.1729,35.1196,5.86853
451,1436281864894,13.1729,35.1196,5.86853
452,1436281864915,14.5752,35.1196,6.54144
453,1436281864934,16.3269,35.1196,7.21283
454,1436281864956,16.3269,35.1196,7.21283
455,1436281864973,16.3269,33.3618,6.87714
456,1436281864991,17.3782,32.6599,8.22296
457,1436281865019,17.3782,32.6599,8.22296
458,1436281865031,17.3782,31.2531,8.22296
459,1436281865055,17.5537,30.0232,8.05359
460,1436281865072,17.5537,30.0232,8.05359
461,1436281865092,18.2541,32.8354,10.7452
462,1436281865112,18.605,31.781,8.05359
463,1436281865131,18.605,31.781,8.05359
464,1436281865152,20.5322,31.604,8.55865
465,1436281865171,21.582,30.1987,5.86853
466,1436281865193,21.582,30.1987,5.86853
467,1436281865209,20.8817,30.1987,7.88574
468,1436281865229,21.2326,29.4952,6.87714
469,1436281865250,21.2326,29.4952,6.87714
470,1436281865269,20.8817,28.0884,8.22296
471,1436281865290,20.8817,30.5496,6.87714
472,1436281865307,20.8817,30.5496,6.87714
473,1436281865329,20.1813,31.2531,5.53131
474,1436281865348,20.1813,30.5496,4.52271
475,1436281865368,20.1813,30.5496,4.52271
476,1436281865390,18.9545,32.8354,5.02777
477,1436281865407,20.0058,31.781,5.36346
478,1436281865427,20.0058,31.781,5.36346
479,1436281865448,19.8303,34.4177,2.16827
480,1436281865466,19.3054,32.132,0.318909
481,1436281865485,19.3054,32.132,0.318909
