id,attr_time,attr_light
1,1436168796316,21.0
2,1436168796317,21.0
3,1436168796318,21.0
4,1436168796328,21.0
5,1436168796348,21.0
6,1436168796421,21.0
7,1436168796422,21.0
8,1436168796423,21.0
9,1436168796426,21.0
10,1436168796459,21.0
11,1436168796468,21.0
12,1436168796486,21.0
13,1436168796508,21.0
14,1436168796526,21.0
15,1436168796550,21.0
16,1436168796569,21.0
17,1436168796589,21.0
18,1436168796610,21.0
19,1436168796628,21.0
20,1436168796649,21.0
21,1436168796670,21.0
22,1436168796689,21.0
23,1436168796709,21.0
24,1436168796728,21.0
25,1436168796747,21.0
26,1436168796770,21.0
27,1436168796789,21.0
28,1436168796806,21.0
29,1436168796826,21.0
30,1436168796847,21.0
31,1436168796872,21.0
32,1436168796888,21.0
33,1436168796912,21.0
34,1436168796928,21.0
35,1436168796946,21.0
36,1436168796967,21.0
37,1436168796987,21.0
38,1436168797007,21.0
39,1436168797079,21.0
40,1436168797080,21.0
41,1436168797081,21.0
42,1436168797088,21.0
43,1436168797108,21.0
44,1436168797129,21.0
45,1436168797146,22.0
46,1436168797166,22.0
47,1436168797188,22.0
48,1436168797208,22.0
49,1436168797227,22.0
50,1436168797247,22.0
51,1436168797266,22.0
52,1436168797290,22.0
53,1436168797309,22.0
54,1436168797330,22.0
55,1436168797350,22.0
56,1436168797371,22.0
57,1436168797389,22.0
58,1436168797409,22.0
59,1436168797426,22.0
60,1436168797449,22.0
61,1436168797470,22.0
62,1436168797490,21.0
63,1436168797510,21.0
64,1436168797530,21.0
65,1436168797550,22.0
66,1436168797570,22.0
67,1436168797590,22.0
68,1436168797610,22.0
69,1436168797630,22.0
70,1436168797650,22.0
71,1436168797670,22.0
72,1436168797690,22.0
73,1436168797709,22.0
74,1436168797737,22.0
75,1436168797792,22.0
76,1436168797793,22.0
77,1436168797794,22.0
78,1436168797816,21.0
79,1436168797827,21.0
80,1436168797857,21.0
81,1436168797868,21.0
82,1436168797889,21.0
83,1436168797908,21.0
84,1436168797927,21.0
85,1436168797950,21.0
86,1436168797969,21.0
87,1436168797990,21.0
88,1436168798009,21.0
89,1436168798030,21.0
90,1436168798050,21.0
91,1436168798070,21.0
92,1436168798088,21.0
93,1436168798111,21.0
94,1436168798130,21.0
95,1436168798150,21.0
96,1436168798170,21.0
97,1436168798188,21.0
98,1436168798208,21.0
99,1436168798230,21.0
100,1436168798249,21.0
101,1436168798268,22.0
102,1436168798287,22.0
103,1436168798316,22.0
104,1436168798328,22.0
105,1436168798355,22.0
106,1436168798367,22.0
107,1436168798388,22.0
108,1436168798411,22.0
109,1436168798427,22.0
110,1436168798456,22.0
111,1436168798480,22.0
112,1436168798511,23.0
113,1436168798512,23.0
114,1436168798528,23.0
115,1436168798548,23.0
116,1436168798568,23.0
117,1436168798588,23.0
118,1436168798608,23.0
119,1436168798636,23.0
120,1436168798660,23.0
121,1436168798668,23.0
122,1436168798689,23.0
123,1436168798713,23.0
124,1436168798728,23.0
125,1436168798751,23.0
126,1436168798771,23.0
127,1436168800075,23.0
128,1436168800076,23.0
129,1436168800077,22.0
130,1436168800078,22.0
131,1436168800079,22.0
132,1436168800080,22.0
133,1436168800081,22.0
134,1436168800082,22.0
135,1436168800083,22.0
136,1436168800084,22.0
137,1436168800085,22.0
138,1436168800086,22.0
139,1436168800087,22.0
140,1436168800088,23.0
141,1436168800089,23.0
142,1436168800090,23.0
143,1436168800091,23.0
144,1436168800092,23.0
145,1436168800093,23.0
146,1436168800094,23.0
147,1436168800095,24.0
148,1436168800096,24.0
149,1436168800097,24.0
150,1436168800098,24.0
151,1436168800099,26.0
152,1436168800100,26.0
153,1436168800101,26.0
154,1436168800102,26.0
155,1436168800103,26.0
156,1436168800104,26.0
157,1436168800105,26.0
158,1436168800106,26.0
159,1436168800107,25.0
160,1436168800108,24.0
161,1436168800109,24.0
162,1436168800110,24.0
163,1436168800111,24.0
164,1436168800112,27.0
165,1436168800113,27.0
166,1436168800114,64.0
167,1436168800115,64.0
168,1436168800116,93.0
169,1436168800117,93.0
170,1436168800118,83.0
171,1436168800119,83.0
172,1436168800120,66.0
173,1436168800121,66.0
174,1436168800122,71.0
175,1436168800123,83.0
176,1436168800124,83.0
177,1436168800125,72.0
178,1436168800126,72.0
179,1436168800127,126.0
180,1436168800128,126.0
181,1436168800129,94.0
182,1436168800130,94.0
183,1436168800131,28.0
184,1436168800132,28.0
185,1436168800133,28.0
186,1436168800134,28.0
187,1436168800135,40.0
188,1436168800136,47.0
189,1436168800137,47.0
190,1436168800138,63.0
191,1436168800139,63.0
192,1436168800140,80.0
193,1436168800141,80.0
194,1436168800142,101.0
195,1436168800148,101.0
196,1436168800168,119.0
197,1436168800188,119.0
198,1436168800208,123.0
199,1436168800228,123.0
200,1436168800248,81.0
201,1436168800268,81.0
202,1436168800290,57.0
203,1436168800314,31.0
204,1436168800334,31.0
205,1436168800348,24.0
206,1436168800374,24.0
207,1436168800393,25.0
208,1436168800410,25.0
209,1436168800434,25.0
210,1436168800450,25.0
211,1436168800473,24.0
212,1436168800493,24.0
213,1436168800514,23.0
214,1436168800533,23.0
215,1436168800550,24.0
216,1436168800570,23.0
217,1436168800591,23.0
218,1436168800610,24.0
219,1436168800643,24.0
220,1436168800650,24.0
221,1436168800672,24.0
222,1436168800689,24.0
223,1436168800711,24.0
224,1436168800730,25.0
225,1436168800749,25.0
226,1436168800769,25.0
227,1436168800794,25.0
228,1436168800814,25.0
229,1436168800834,25.0
230,1436168800852,24.0
231,1436168800870,22.0
232,1436168800893,22.0
233,1436168800913,23.0
234,1436168800933,23.0
235,1436168800952,22.0
236,1436168800975,22.0
237,1436168800991,23.0
238,1436168801013,23.0
239,1436168801030,24.0
240,1436168801051,24.0
241,1436168801071,25.0
242,1436168801094,25.0
243,1436168801115,25.0
244,1436168801135,25.0
245,1436168801154,25.0
246,1436168801171,25.0
247,1436168801191,25.0
248,1436168801211,25.0
249,1436168801232,25.0
250,1436168801254,24.0
251,1436168801320,24.0
252,1436168801321,25.0
253,1436168801322,25.0
254,1436168801331,24.0
255,1436168801356,24.0
256,1436168801370,24.0
257,1436168801390,24.0
258,1436168801418,25.0
259,1436168801431,25.0
260,1436168801531,25.0
261,1436168801532,25.0
262,1436168801533,25.0
263,1436168801534,25.0
264,1436168801535,25.0
265,1436168801557,25.0
266,1436168801571,25.0
267,1436168801591,24.0
268,1436168801616,24.0
269,1436168801632,23.0
270,1436168801655,23.0
271,1436168801674,23.0
272,1436168801692,23.0
273,1436168801711,23.0
274,1436168801731,24.0
275,1436168801752,24.0
276,1436168801773,25.0
277,1436168801792,25.0
278,1436168801814,26.0
279,1436168801836,26.0
280,1436168801852,25.0
281,1436168801874,25.0
282,1436168801897,25.0
283,1436168801915,25.0
284,1436168801935,26.0
285,1436168801955,26.0
286,1436168801974,25.0
287,1436168801994,25.0
288,1436168802011,25.0
289,1436168802033,26.0
290,1436168802056,26.0
291,1436168802095,27.0
292,1436168802096,27.0
293,1436168802214,27.0
294,1436168802215,27.0
295,1436168802216,27.0
296,1436168802217,27.0
297,1436168802218,27.0
298,1436168802219,27.0
299,1436168802231,27.0
300,1436168802258,27.0
301,1436168802271,27.0
302,1436168802291,27.0
303,1436168802313,27.0
304,1436168802332,25.0
305,1436168802356,25.0
306,1436168802371,26.0
307,1436168802391,26.0
308,1436168802411,24.0
309,1436168802431,24.0
310,1436168802451,25.0
311,1436168802471,25.0
312,1436168802492,26.0
313,1436168802523,26.0
314,1436168802531,27.0
315,1436168802551,27.0
316,1436168802571,27.0
317,1436168802591,28.0
318,1436168802612,28.0
319,1436168802632,28.0
320,1436168802651,28.0
321,1436168802672,28.0
322,1436168802695,28.0
323,1436168802714,27.0
324,1436168802735,27.0
325,1436168802754,28.0
326,1436168802773,28.0
327,1436168802792,28.0
328,1436168802811,29.0
329,1436168802833,29.0
330,1436168802874,29.0
331,1436168802875,29.0
332,1436168802891,30.0
333,1436168802912,30.0
334,1436168802931,29.0
335,1436168802952,29.0
336,1436168802972,29.0
337,1436168802992,29.0
338,1436168803011,28.0
339,1436168803034,28.0
340,1436168803052,27.0
341,1436168803074,27.0
342,1436168803091,25.0
343,1436168803111,25.0
344,1436168803157,25.0
345,1436168803158,25.0
346,1436168803174,25.0
347,1436168803195,26.0
348,1436168803215,26.0
349,1436168803233,27.0
350,1436168803253,27.0
351,1436168803272,28.0
352,1436168803294,28.0
353,1436168803313,27.0
354,1436168803334,27.0
355,1436168803354,28.0
356,1436168803374,28.0
357,1436168803393,28.0
358,1436168803413,27.0
359,1436168803436,27.0
360,1436168803456,28.0
361,1436168803476,28.0
362,1436168803494,27.0
363,1436168803518,27.0
364,1436168803587,28.0
365,1436168803588,28.0
366,1436168803589,28.0
367,1436168803596,28.0
368,1436168803613,29.0
369,1436168803636,30.0
370,1436168803652,30.0
371,1436168803676,30.0
372,1436168803697,30.0
373,1436168803736,29.0
374,1436168803737,29.0
375,1436168803753,29.0
376,1436168803776,29.0
377,1436168803795,27.0
378,1436168803816,27.0
379,1436168803834,28.0
380,1436168803853,28.0
381,1436168803876,26.0
382,1436168803894,26.0
383,1436168803914,27.0
384,1436168803936,28.0
385,1436168803953,28.0
386,1436168803974,29.0
387,1436168803994,29.0
388,1436168804016,29.0
389,1436168804033,29.0
390,1436168804054,29.0
391,1436168804074,29.0
392,1436168804095,29.0
393,1436168804113,29.0
394,1436168804133,30.0
395,1436168804154,30.0
396,1436168804174,28.0
397,1436168804210,31.0
398,1436168804213,31.0
399,1436168804233,30.0
400,1436168804253,30.0
401,1436168804275,30.0
402,1436168804306,30.0
403,1436168804321,31.0
404,1436168804337,31.0
405,1436168804353,32.0
406,1436168804374,32.0
407,1436168804393,32.0
408,1436168804413,32.0
409,1436168804434,32.0
410,1436168804453,32.0
411,1436168804475,32.0
412,1436168804495,31.0
413,1436168804513,31.0
414,1436168804534,29.0
415,1436168804554,29.0
416,1436168804577,30.0
417,1436168804593,30.0
418,1436168804614,30.0
419,1436168804634,30.0
420,1436168804654,31.0
421,1436168804674,31.0
422,1436168804695,32.0
423,1436168804713,32.0
424,1436168804742,33.0
425,1436168804766,33.0
426,1436168804775,33.0
427,1436168804794,33.0
428,1436168804814,33.0
429,1436168804835,33.0
430,1436168804853,33.0
431,1436168804873,32.0
432,1436168804894,32.0
433,1436168804913,32.0
434,1436168804933,32.0
435,1436168804953,32.0
436,1436168804973,32.0
437,1436168804993,32.0
438,1436168805013,32.0
439,1436168805033,31.0
440,1436168805053,32.0
441,1436168805073,32.0
442,1436168805093,32.0
443,1436168805114,32.0
444,1436168805133,32.0
445,1436168805153,32.0
446,1436168805173,32.0
447,1436168805193,32.0
448,1436168805213,31.0
449,1436168805234,31.0
450,1436168805253,28.0
451,1436168805273,28.0
452,1436168805293,28.0
453,1436168805313,27.0
454,1436168805333,27.0
455,1436168805353,28.0
456,1436168805374,28.0
457,1436168805394,29.0
458,1436168805413,29.0
459,1436168805433,31.0
460,1436168805454,31.0
461,1436168805473,31.0
462,1436168805493,31.0
463,1436168805514,32.0
464,1436168805533,32.0
465,1436168805555,32.0
466,1436168805573,32.0
467,1436168805594,33.0
468,1436168805614,31.0
469,1436168805633,31.0
470,1436168805656,34.0
471,1436168805674,34.0
472,1436168805695,34.0
473,1436168805714,34.0
474,1436168805735,34.0
475,1436168805754,34.0
476,1436168805774,35.0
477,1436168805794,35.0
478,1436168805814,35.0
479,1436168805834,35.0
480,1436168805854,35.0
481,1436168805877,35.0
482,1436168805898,35.0
483,1436168805918,35.0
484,1436168805935,35.0
485,1436168805957,35.0
486,1436168805979,35.0
487,1436168805998,33.0
488,1436168806018,33.0
489,1436168806037,33.0
490,1436168806057,33.0
491,1436168806080,32.0
492,1436168806096,32.0
493,1436168806114,34.0
494,1436168806134,34.0
495,1436168806154,37.0
496,1436168806177,38.0
497,1436168806196,38.0
498,1436168806217,38.0
499,1436168806237,38.0
500,1436168806255,39.0
501,1436168806285,39.0
502,1436168806295,39.0
503,1436168806317,39.0
504,1436168806339,39.0
505,1436168806355,39.0
506,1436168806375,38.0
507,1436168806397,38.0
508,1436168806417,40.0
509,1436168806436,38.0
510,1436168806456,38.0
511,1436168806479,39.0
512,1436168806496,39.0
513,1436168806518,40.0
514,1436168806539,40.0
515,1436168806558,41.0
516,1436168806579,41.0
517,1436168806598,41.0
518,1436168806618,41.0
519,1436168806639,41.0
520,1436168806659,41.0
521,1436168806678,40.0
522,1436168806696,40.0
523,1436168806716,39.0
524,1436168806754,37.0
525,1436168806755,37.0
526,1436168806794,37.0
527,1436168806800,37.0
528,1436168806816,37.0
529,1436168806838,37.0
530,1436168806857,37.0
531,1436168806876,37.0
532,1436168806896,38.0
533,1436168806918,38.0
534,1436168806936,39.0
535,1436168807004,39.0
536,1436168807005,39.0
537,1436168807006,39.0
538,1436168807016,39.0
539,1436168807037,40.0
540,1436168807057,40.0
541,1436168807076,38.0
542,1436168807098,38.0
543,1436168807116,39.0
544,1436168807136,39.0
545,1436168807184,38.0
546,1436168807185,38.0
547,1436168807206,39.0
548,1436168807217,39.0
549,1436168807236,39.0
550,1436168807259,39.0
551,1436168807280,40.0
552,1436168807299,41.0
553,1436168807319,41.0
554,1436168807338,41.0
555,1436168807360,41.0
556,1436168807379,41.0
557,1436168807399,41.0
558,1436168807421,41.0
559,1436168807439,41.0
560,1436168807460,38.0
561,1436168807477,38.0
562,1436168807499,40.0
563,1436168807520,40.0
564,1436168807540,38.0
565,1436168807560,38.0
566,1436168807580,38.0
567,1436168807600,39.0
568,1436168807618,39.0
569,1436168807639,40.0
570,1436168807661,40.0
571,1436168807681,41.0
572,1436168807701,41.0
573,1436168807720,41.0
574,1436168807740,41.0
575,1436168807793,41.0
576,1436168807794,41.0
577,1436168807811,41.0
578,1436168807817,39.0
579,1436168807837,39.0
580,1436168807860,42.0
581,1436168807877,42.0
582,1436168807897,41.0
583,1436168807917,41.0
584,1436168807940,42.0
585,1436168807962,42.0
586,1436168807978,43.0
587,1436168808002,43.0
588,1436168808019,43.0
589,1436168808039,43.0
590,1436168808060,43.0
591,1436168808080,43.0
592,1436168808100,43.0
593,1436168808120,42.0
594,1436168808137,42.0
595,1436168808160,41.0
596,1436168808181,41.0
597,1436168808197,38.0
598,1436168808220,38.0
599,1436168808242,39.0
600,1436168808260,39.0
601,1436168808280,37.0
602,1436168808300,37.0
603,1436168808320,37.0
604,1436168808340,37.0
605,1436168808357,38.0
606,1436168808381,39.0
607,1436168808404,39.0
608,1436168808419,40.0
609,1436168808439,40.0
610,1436168808463,41.0
611,1436168808523,41.0
612,1436168808524,40.0
613,1436168808525,40.0
614,1436168808538,40.0
615,1436168808562,40.0
616,1436168808579,38.0
617,1436168808598,38.0
618,1436168808621,42.0
619,1436168808638,42.0
620,1436168808660,42.0
621,1436168808678,42.0
622,1436168808701,42.0
623,1436168808721,43.0
624,1436168808741,43.0
625,1436168808761,45.0
626,1436168808777,45.0
627,1436168808801,46.0
628,1436168808821,46.0
629,1436168808841,47.0
630,1436168808862,47.0
631,1436168808881,47.0
632,1436168808901,47.0
633,1436168808918,46.0
634,1436168808940,42.0
635,1436168808961,42.0
636,1436168808981,43.0
637,1436168809001,43.0
638,1436168809021,42.0
639,1436168809041,42.0
640,1436168809061,43.0
641,1436168809081,43.0
642,1436168809101,45.0
643,1436168809122,45.0
644,1436168809142,47.0
645,1436168809160,47.0
646,1436168809181,46.0
647,1436168809233,46.0
648,1436168809234,47.0
649,1436168809251,47.0
650,1436168809258,47.0
651,1436168809279,46.0
652,1436168809301,46.0
653,1436168809318,44.0
654,1436168809339,44.0
655,1436168809358,46.0
656,1436168809381,46.0
657,1436168809399,45.0
658,1436168809420,45.0
659,1436168809443,44.0
660,1436168809461,44.0
661,1436168809480,45.0
662,1436168809501,46.0
663,1436168809522,46.0
664,1436168809541,45.0
665,1436168809562,45.0
666,1436168809579,45.0
667,1436168809601,45.0
668,1436168809622,45.0
669,1436168809639,45.0
670,1436168809662,43.0
671,1436168809683,43.0
672,1436168809700,40.0
673,1436168809720,40.0
674,1436168809742,41.0
675,1436168809762,41.0
676,1436168809782,40.0
677,1436168809802,41.0
678,1436168809820,41.0
679,1436168809841,43.0
680,1436168809861,43.0
681,1436168809971,45.0
682,1436168809972,45.0
683,1436168809973,44.0
684,1436168809974,44.0
685,1436168809975,45.0
686,1436168810003,45.0
687,1436168810004,45.0
688,1436168810033,45.0
689,1436168810040,44.0
690,1436168810059,43.0
691,1436168810088,43.0
692,1436168810103,44.0
693,1436168810119,44.0
694,1436168810143,44.0
695,1436168810162,44.0
696,1436168810181,44.0
697,1436168810201,44.0
698,1436168810222,44.0
699,1436168810242,44.0
700,1436168810262,45.0
701,1436168810282,45.0
702,1436168810300,44.0
703,1436168810323,44.0
704,1436168810342,43.0
705,1436168810363,43.0
706,1436168810379,43.0
707,1436168810402,42.0
708,1436168810423,42.0
709,1436168810442,40.0
710,1436168810463,40.0
711,1436168810483,40.0
712,1436168810503,40.0
713,1436168810523,40.0
714,1436168810542,40.0
715,1436168810563,40.0
716,1436168810583,40.0
717,1436168810605,42.0
718,1436168810621,43.0
719,1436168810640,43.0
720,1436168810697,43.0
721,1436168810698,43.0
722,1436168810702,44.0
723,1436168810730,44.0
724,1436168810739,44.0
725,1436168810769,44.0
726,1436168810781,44.0
727,1436168810801,44.0
728,1436168810820,42.0
729,1436168810839,42.0
730,1436168810863,44.0
731,1436168810885,44.0
732,1436168810900,44.0
733,1436168810922,44.0
734,1436168810943,44.0
735,1436168810963,45.0
736,1436168810983,45.0
737,1436168811003,45.0
738,1436168811021,45.0
739,1436168811043,45.0
740,1436168811063,45.0
741,1436168811083,45.0
742,1436168811103,45.0
743,1436168811119,44.0
744,1436168811143,44.0
745,1436168811163,43.0
746,1436168811183,42.0
747,1436168811204,42.0
748,1436168811222,40.0
749,1436168811243,40.0
750,1436168811264,40.0
751,1436168811283,40.0
752,1436168811303,41.0
753,1436168811325,41.0
754,1436168811345,42.0
755,1436168811363,42.0
756,1436168811387,42.0
757,1436168811506,42.0
758,1436168811507,41.0
759,1436168811508,42.0
760,1436168811509,42.0
761,1436168811510,42.0
762,1436168811511,42.0
763,1436168811524,40.0
764,1436168811551,40.0
765,1436168811561,41.0
766,1436168811582,41.0
767,1436168811602,39.0
768,1436168811622,39.0
769,1436168811642,40.0
770,1436168811662,40.0
771,1436168811682,40.0
772,1436168811704,40.0
773,1436168811724,41.0
774,1436168811749,41.0
775,1436168811760,41.0
776,1436168811780,40.0
777,1436168811800,40.0
778,1436168811821,40.0
779,1436168811841,40.0
780,1436168811861,40.0
781,1436168811881,40.0
782,1436168811902,38.0
783,1436168811921,38.0
784,1436168811968,40.0
785,1436168811969,40.0
786,1436168811999,38.0
787,1436168812000,39.0
788,1436168812021,39.0
789,1436168812041,40.0
790,1436168812062,40.0
791,1436168812081,41.0
792,1436168812101,41.0
793,1436168812122,41.0
794,1436168812141,41.0
795,1436168812161,41.0
796,1436168812196,41.0
797,1436168812207,41.0
798,1436168812221,41.0
799,1436168812241,40.0
800,1436168812261,40.0
801,1436168812281,38.0
802,1436168812301,39.0
803,1436168812323,39.0
804,1436168812341,38.0
805,1436168812362,38.0
806,1436168812384,38.0
807,1436168812401,38.0
808,1436168812421,37.0
809,1436168812442,37.0
810,1436168812460,38.0
811,1436168812480,38.0
812,1436168812505,38.0
813,1436168812520,38.0
814,1436168812541,38.0
815,1436168812561,37.0
816,1436168812580,37.0
817,1436168812600,37.0
818,1436168812620,37.0
819,1436168812640,34.0
820,1436168812660,34.0
821,1436168812680,35.0
822,1436168812700,35.0
823,1436168812720,33.0
824,1436168812740,33.0
825,1436168812760,35.0
826,1436168812780,35.0
827,1436168812800,36.0
828,1436168812820,36.0
829,1436168812852,38.0
830,1436168812875,38.0
831,1436168812881,38.0
832,1436168812900,38.0
833,1436168812921,38.0
834,1436168812941,38.0
835,1436168812961,38.0
836,1436168812981,38.0
837,1436168813002,38.0
838,1436168813025,35.0
839,1436168813045,35.0
840,1436168813063,35.0
841,1436168813083,35.0
842,1436168813105,34.0
843,1436168813124,34.0
844,1436168813166,34.0
845,1436168813167,34.0
846,1436168813184,34.0
847,1436168813204,35.0
848,1436168813223,35.0
849,1436168813245,36.0
850,1436168813261,36.0
851,1436168813281,36.0
852,1436168813301,36.0
853,1436168813327,36.0
854,1436168813347,36.0
855,1436168813367,35.0
856,1436168813383,35.0
857,1436168813402,32.0
858,1436168813421,33.0
859,1436168813442,33.0
860,1436168813463,31.0
861,1436168813487,31.0
862,1436168813563,31.0
863,1436168813564,31.0
864,1436168813565,33.0
865,1436168813566,33.0
866,1436168813583,34.0
867,1436168813608,34.0
868,1436168813622,35.0
869,1436168813644,35.0
870,1436168813663,35.0
871,1436168813682,35.0
872,1436168813703,35.0
