id,attr_time,attr_x,attr_y,attr_z
1,1437228625017,-42.378,-11.004,22.413
2,1437228625036,-42.378,-11.004,22.413
3,1437228625056,-42.378,-11.004,22.413
4,1437228625076,-42.378,-11.004,22.413
5,1437228625096,-42.378,-11.004,22.413
6,1437228625116,-42.378,-11.004,22.413
7,1437228625142,-42.378,-11.004,22.413
8,1437228625156,-42.378,-11.004,22.413
9,1437228625179,-42.378,-11.004,22.413
10,1437228625197,-42.378,-11.004,22.413
11,1437228625217,-42.378,-11.004,22.413
12,1437228625236,-42.378,-11.004,22.413
13,1437228625257,-42.378,-11.004,22.413
14,1437228625279,-42.378,-11.004,22.413
15,1437228625299,-42.378,-11.004,22.413
16,1437228625316,-42.378,-11.004,22.413
17,1437228625344,-42.378,-11.004,22.413
18,1437228625356,-42.378,-11.004,22.413
19,1437228625376,-42.378,-11.004,22.413
20,1437228625396,-42.378,-11.004,22.413
21,1437228625418,-42.378,-11.004,22.413
22,1437228625437,-42.378,-11.004,22.413
23,1437228625458,-42.378,-11.004,22.413
24,1437228625479,-42.378,-11.004,22.413
25,1437228625499,-42.378,-11.305,22.72
26,1437228625520,-42.378,-11.305,22.72
27,1437228625537,-42.378,-11.305,22.72
28,1437228625559,-42.378,-11.305,22.72
29,1437228625580,-42.378,-11.305,22.72
30,1437228625599,-42.378,-11.305,22.72
31,1437228625618,-42.378,-11.305,22.72
32,1437228625640,-42.378,-11.305,22.72
33,1437228625703,-42.378,-11.305,22.72
34,1437228625704,-42.378,-11.305,22.72
35,1437228625705,-42.378,-11.305,22.72
36,1437228625716,-42.378,-11.305,22.72
37,1437228625742,-42.378,-11.305,22.72
38,1437228625796,-42.378,-11.305,22.72
39,1437228625797,-42.378,-11.305,22.72
40,1437228625798,-42.378,-11.305,22.72
41,1437228625818,-42.378,-11.305,23.033
42,1437228625839,-42.378,-11.305,23.033
43,1437228625857,-42.378,-11.305,23.033
44,1437228625878,-42.07,-11.305,23.033
45,1437228625897,-42.07,-11.305,23.033
46,1437228625917,-42.07,-11.305,23.033
47,1437228625937,-42.07,-11.305,23.033
48,1437228625956,-42.07,-11.305,23.033
49,1437228625979,-42.07,-11.305,23.033
50,1437228626001,-42.07,-11.305,23.033
51,1437228626019,-42.07,-11.305,23.391
52,1437228626036,-42.07,-11.305,23.391
53,1437228626058,-42.07,-11.305,23.391
54,1437228626079,-42.07,-11.305,23.391
55,1437228626098,-42.07,-11.305,23.391
56,1437228626119,-42.07,-11.305,23.391
57,1437228626137,-42.07,-11.004,23.391
58,1437228626162,-42.07,-11.004,23.391
59,1437228626176,-42.07,-11.004,23.391
60,1437228626203,-42.07,-11.004,23.391
61,1437228626217,-42.07,-11.004,23.391
62,1437228626241,-42.07,-11.004,23.391
63,1437228626257,-42.07,-11.004,23.391
64,1437228626277,-42.07,-11.004,23.709
65,1437228626297,-42.07,-11.004,23.709
66,1437228626316,-42.07,-11.004,23.709
67,1437228626339,-42.07,-11.004,23.709
68,1437228626364,-42.07,-11.004,23.709
69,1437228626448,-42.07,-11.004,23.709
70,1437228626449,-42.07,-11.004,23.709
71,1437228626450,-42.07,-11.004,23.709
72,1437228626451,-42.07,-11.004,23.709
73,1437228626462,-42.07,-11.004,23.709
74,1437228626477,-42.07,-11.004,23.709
75,1437228626505,-42.07,-11.004,23.709
76,1437228626517,-42.07,-11.004,23.709
77,1437228626546,-42.07,-11.004,23.709
78,1437228626564,-42.07,-11.004,23.709
79,1437228626577,-42.07,-11.004,23.709
80,1437228626597,-42.07,-11.004,23.709
81,1437228626617,-42.07,-11.004,23.709
82,1437228626638,-42.07,-11.004,23.709
83,1437228626658,-42.07,-11.004,23.709
84,1437228626678,-42.07,-11.004,23.709
85,1437228626700,-42.07,-11.004,23.709
86,1437228626719,-42.07,-11.004,23.709
87,1437228626740,-42.07,-11.306,23.709
88,1437228626759,-42.07,-11.306,23.709
89,1437228626779,-42.07,-11.306,23.709
90,1437228626801,-42.07,-11.306,23.709
91,1437228626819,-42.07,-11.306,23.709
92,1437228626840,-42.07,-11.306,23.709
93,1437228626860,-42.07,-11.306,23.709
94,1437228626881,-42.07,-11.306,23.709
95,1437228626901,-41.757,-11.306,23.406
96,1437228626919,-41.757,-11.306,23.406
97,1437228626941,-41.757,-11.306,23.406
98,1437228626963,-41.757,-11.306,23.406
99,1437228626985,-41.757,-11.306,23.406
100,1437228627003,-41.757,-11.306,23.406
101,1437228627019,-41.757,-11.306,23.406
102,1437228627041,-41.757,-11.618,23.406
103,1437228627059,-41.757,-11.618,23.406
104,1437228627080,-41.757,-11.618,23.406
105,1437228627164,-41.757,-11.618,23.406
106,1437228627165,-41.757,-11.618,23.406
107,1437228627166,-41.757,-11.618,23.406
108,1437228627167,-41.757,-11.618,23.406
109,1437228627177,-41.757,-11.618,23.406
110,1437228627200,-41.757,-11.618,23.406
111,1437228627221,-41.757,-11.618,23.406
112,1437228627237,-41.757,-11.618,23.406
113,1437228627258,-41.757,-11.618,23.406
114,1437228627279,-41.757,-11.618,23.406
115,1437228627299,-41.757,-11.618,23.406
116,1437228627319,-41.757,-11.618,23.406
117,1437228627338,-41.757,-11.618,23.406
118,1437228627363,-41.757,-11.618,23.406
119,1437228627380,-41.757,-11.618,23.406
120,1437228627400,-41.757,-11.618,23.406
121,1437228627421,-41.757,-11.618,23.406
122,1437228627442,-41.757,-11.618,23.406
123,1437228627460,-41.757,-11.618,23.406
124,1437228627480,-41.757,-11.618,23.406
125,1437228627502,-41.757,-11.618,23.406
126,1437228627520,-41.757,-11.618,23.406
127,1437228627541,-41.757,-11.618,23.406
128,1437228627560,-41.757,-11.618,23.406
129,1437228627578,-41.757,-11.618,23.406
130,1437228627602,-41.757,-11.618,23.406
131,1437228627621,-41.757,-11.618,23.406
132,1437228627638,-41.757,-11.618,23.406
133,1437228627658,-41.757,-11.618,23.406
134,1437228627678,-41.757,-11.618,23.406
135,1437228627698,-41.757,-11.618,23.406
136,1437228627721,-41.757,-11.618,23.718
137,1437228627741,-41.757,-11.618,23.718
138,1437228627758,-41.757,-11.618,23.718
139,1437228627781,-41.757,-11.618,23.718
140,1437228627800,-41.757,-11.618,23.718
141,1437228627820,-41.757,-11.618,23.718
142,1437228627841,-41.757,-11.618,23.718
143,1437228627919,-41.757,-11.618,23.718
144,1437228627920,-41.757,-11.618,23.718
145,1437228627921,-41.757,-11.618,23.718
146,1437228627922,-41.757,-11.618,23.718
147,1437228627944,-41.757,-11.618,23.718
148,1437228627982,-41.757,-11.93,23.718
149,1437228627985,-41.757,-11.93,23.718
150,1437228628044,-41.757,-11.93,23.718
151,1437228628045,-41.757,-11.93,23.382
152,1437228628046,-41.757,-11.93,23.382
153,1437228628072,-41.757,-11.93,23.382
154,1437228628086,-41.757,-11.93,23.382
155,1437228628108,-41.757,-11.93,23.382
156,1437228628119,-41.757,-11.93,23.382
157,1437228628214,-41.757,-11.93,23.382
158,1437228628215,-41.757,-11.93,23.382
159,1437228628216,-41.757,-11.93,23.382
160,1437228628217,-41.757,-11.93,23.382
161,1437228628218,-41.757,-11.93,23.382
162,1437228628238,-41.757,-11.93,23.382
163,1437228628259,-41.757,-11.93,23.382
164,1437228628279,-41.757,-11.93,23.382
165,1437228628300,-41.757,-11.93,23.382
166,1437228628322,-41.757,-11.93,23.382
167,1437228628342,-41.757,-11.93,23.382
168,1437228628365,-41.757,-11.93,23.382
169,1437228628387,-41.757,-11.93,23.382
170,1437228628405,-41.757,-11.93,23.733
171,1437228628423,-41.757,-11.93,23.733
172,1437228628441,-41.757,-11.93,23.733
173,1437228628460,-41.432,-11.93,23.733
174,1437228628479,-41.432,-11.93,23.733
175,1437228628498,-41.432,-11.93,24.089
176,1437228628525,-41.432,-11.93,24.089
177,1437228628545,-41.432,-11.93,24.089
178,1437228628562,-41.432,-11.93,24.089
179,1437228628587,-41.432,-11.93,24.089
180,1437228628639,-41.432,-11.93,24.089
181,1437228628640,-41.432,-11.93,24.089
182,1437228628642,-41.432,-11.93,24.089
183,1437228628659,-41.432,-11.93,24.089
184,1437228628681,-41.432,-11.93,24.089
185,1437228628702,-41.432,-11.93,24.089
186,1437228628719,-41.432,-11.93,24.089
187,1437228628740,-41.432,-11.93,24.089
188,1437228628759,-41.432,-11.93,24.089
189,1437228628783,-41.432,-11.93,24.089
190,1437228628800,-41.432,-11.93,24.089
191,1437228628821,-41.432,-11.93,24.089
192,1437228628845,-41.432,-11.93,24.089
193,1437228628862,-41.432,-11.93,24.089
194,1437228628882,-41.432,-11.93,24.089
195,1437228628902,-41.432,-11.93,24.089
196,1437228628922,-41.432,-11.93,24.089
197,1437228628942,-41.432,-11.93,24.089
198,1437228628962,-41.432,-11.93,24.089
199,1437228628983,-41.432,-11.93,24.089
200,1437228629002,-41.432,-11.93,24.089
201,1437228629023,-41.432,-11.93,24.089
202,1437228629041,-41.432,-11.93,24.089
203,1437228629065,-41.432,-11.93,24.089
204,1437228629083,-41.432,-11.93,24.089
205,1437228629100,-41.432,-11.93,24.089
206,1437228629122,-41.432,-11.93,24.089
207,1437228629142,-41.432,-11.93,24.089
208,1437228629162,-41.432,-11.93,24.089
209,1437228629183,-41.432,-11.93,24.089
210,1437228629203,-41.432,-11.93,24.089
211,1437228629222,-41.432,-11.93,24.089
212,1437228629242,-41.432,-11.93,24.089
213,1437228629262,-41.432,-11.93,24.089
214,1437228629391,-41.432,-11.93,24.089
215,1437228629392,-41.432,-11.93,23.783
216,1437228629393,-41.432,-11.93,23.783
217,1437228629394,-41.432,-11.93,23.783
218,1437228629395,-41.432,-11.93,23.783
219,1437228629396,-41.432,-11.93,23.783
220,1437228629440,-41.432,-11.93,23.783
221,1437228629441,-41.432,-11.93,23.783
222,1437228629442,-41.432,-11.93,23.783
223,1437228629460,-41.432,-11.93,23.783
224,1437228629485,-41.432,-11.93,23.783
225,1437228629500,-41.432,-11.93,23.783
226,1437228629522,-41.432,-11.93,23.783
227,1437228629541,-41.432,-11.93,23.783
228,1437228629563,-41.432,-11.93,23.783
229,1437228629580,-41.432,-11.93,23.783
230,1437228629603,-41.432,-11.93,23.783
231,1437228629623,-41.432,-11.93,23.783
232,1437228629643,-41.432,-11.93,23.783
233,1437228629663,-41.432,-11.93,23.783
234,1437228629683,-41.432,-11.93,23.783
235,1437228629703,-41.432,-11.93,23.783
236,1437228629747,-41.432,-11.93,23.783
237,1437228629748,-41.432,-11.93,23.783
238,1437228629764,-41.432,-11.93,23.783
239,1437228629783,-41.432,-11.93,23.783
240,1437228629803,-41.432,-11.93,23.783
241,1437228629822,-41.432,-11.93,23.783
242,1437228629842,-41.432,-11.93,23.783
243,1437228629862,-41.432,-11.93,23.783
244,1437228629885,-41.432,-11.93,23.783
245,1437228629904,-41.432,-11.93,23.783
246,1437228629925,-41.432,-11.93,23.783
247,1437228629943,-41.432,-11.93,23.783
248,1437228629964,-41.432,-11.93,23.783
249,1437228629981,-41.432,-11.93,23.783
250,1437228630002,-41.432,-11.93,23.783
251,1437228630023,-41.432,-11.93,23.783
252,1437228630041,-41.432,-11.93,23.783
253,1437228630094,-41.432,-11.93,23.783
254,1437228630095,-41.432,-11.93,23.783
255,1437228630111,-41.432,-11.93,23.783
256,1437228630120,-41.432,-11.93,23.783
257,1437228630147,-41.432,-11.93,23.783
258,1437228630161,-41.432,-11.63,23.783
259,1437228630182,-41.432,-11.63,23.783
260,1437228630204,-41.432,-11.63,23.783
261,1437228630221,-41.432,-11.63,23.783
262,1437228630243,-41.432,-11.63,23.783
263,1437228630261,-41.432,-11.63,23.783
264,1437228630283,-41.432,-11.63,23.783
265,1437228630300,-41.432,-11.63,23.783
266,1437228630324,-41.432,-11.63,23.783
267,1437228630345,-41.432,-11.63,23.783
268,1437228630364,-41.432,-11.63,23.783
269,1437228630384,-41.432,-11.63,23.783
270,1437228630404,-41.432,-11.63,23.783
271,1437228630424,-41.432,-11.63,23.783
272,1437228630444,-41.432,-11.63,23.783
273,1437228630464,-41.432,-11.63,23.783
274,1437228630485,-41.432,-11.63,23.783
275,1437228630504,-41.432,-11.63,23.783
276,1437228630524,-41.432,-11.63,23.783
277,1437228630543,-41.432,-11.63,23.783
278,1437228630562,-41.432,-11.63,23.783
279,1437228630582,-41.432,-11.63,23.783
280,1437228630605,-41.432,-11.63,23.783
281,1437228630624,-41.432,-11.63,23.783
282,1437228630645,-41.432,-11.63,23.783
283,1437228630664,-41.432,-11.63,23.783
284,1437228630684,-41.432,-11.63,23.783
285,1437228630703,-41.432,-11.63,23.783
286,1437228630723,-41.432,-11.63,23.783
287,1437228630742,-41.432,-11.63,23.783
288,1437228630761,-41.432,-11.63,23.783
289,1437228630813,-41.432,-11.63,23.783
290,1437228630814,-41.432,-11.63,23.783
291,1437228630832,-41.432,-11.63,23.783
292,1437228630841,-41.432,-11.63,23.783
293,1437228630867,-41.432,-11.63,23.783
294,1437228630882,-41.432,-11.63,23.783
295,1437228630903,-41.432,-11.63,23.783
296,1437228630923,-41.432,-11.63,23.783
297,1437228630942,-41.432,-11.63,23.783
298,1437228630964,-41.432,-11.63,23.783
299,1437228630982,-41.432,-11.63,23.783
300,1437228631004,-41.432,-11.63,23.783
301,1437228631022,-41.432,-11.63,23.783
302,1437228631045,-41.432,-11.63,23.783
303,1437228631065,-41.735,-11.63,23.783
304,1437228631084,-41.735,-11.63,23.783
305,1437228631102,-41.735,-11.63,23.783
306,1437228631125,-41.735,-11.63,23.783
307,1437228631144,-41.735,-11.63,23.783
308,1437228631165,-41.735,-11.63,23.414
309,1437228631184,-41.735,-11.63,23.414
310,1437228631205,-41.735,-11.63,23.414
311,1437228631223,-41.735,-11.63,23.414
312,1437228631245,-41.735,-11.63,23.414
313,1437228631264,-41.735,-11.63,23.414
314,1437228631284,-41.735,-11.63,23.06
315,1437228631304,-41.735,-11.63,23.06
316,1437228631325,-41.735,-11.63,23.06
317,1437228631345,-41.735,-11.63,23.06
318,1437228631365,-41.735,-11.63,23.06
319,1437228631384,-41.735,-11.63,23.06
320,1437228631405,-41.735,-11.63,23.06
321,1437228631426,-42.057,-11.63,22.706
322,1437228631446,-42.057,-11.63,22.706
323,1437228631465,-42.057,-11.63,22.706
324,1437228631489,-42.057,-11.63,22.706
325,1437228631543,-42.057,-11.63,22.706
326,1437228631544,-42.057,-11.63,22.706
327,1437228631545,-42.057,-11.63,22.706
328,1437228631565,-42.057,-11.63,22.37
329,1437228631584,-42.367,-11.63,22.37
330,1437228631603,-42.367,-11.63,22.37
331,1437228631623,-42.367,-11.63,22.37
332,1437228631647,-42.367,-11.63,22.37
333,1437228631663,-42.367,-11.63,22.37
334,1437228631684,-42.367,-11.63,22.37
335,1437228631703,-42.367,-11.63,22.37
336,1437228631723,-42.367,-11.63,22.068
337,1437228631744,-42.367,-11.302,22.068
338,1437228631762,-42.692,-11.302,22.068
339,1437228631783,-42.692,-11.302,22.068
340,1437228631806,-42.692,-11.302,22.068
341,1437228631825,-42.692,-11.302,22.068
342,1437228631845,-42.692,-11.302,22.068
343,1437228631865,-42.692,-11.302,22.068
344,1437228631883,-42.692,-11.302,22.068
345,1437228631906,-42.692,-11.302,21.766
346,1437228631925,-42.692,-11.302,21.766
347,1437228631946,-42.692,-11.302,21.766
348,1437228631964,-42.692,-11.302,21.766
349,1437228631985,-42.692,-11.302,21.766
350,1437228632005,-42.692,-11.302,21.766
351,1437228632024,-42.692,-11.302,21.766
352,1437228632044,-42.692,-11.302,21.766
353,1437228632065,-42.692,-11.302,21.766
354,1437228632086,-42.692,-11.302,21.766
355,1437228632105,-42.692,-11.302,21.766
356,1437228632142,-42.692,-11.302,21.766
357,1437228632143,-42.692,-11.302,21.766
358,1437228632162,-42.692,-11.302,21.766
359,1437228632182,-42.692,-11.302,21.766
360,1437228632203,-42.692,-11.302,21.766
361,1437228632222,-42.692,-11.302,21.766
362,1437228632270,-42.692,-11.302,21.766
363,1437228632271,-42.692,-11.302,21.766
364,1437228632285,-42.692,-11.302,21.766
365,1437228632304,-42.692,-11.302,21.766
366,1437228632322,-42.692,-11.302,21.766
367,1437228632344,-42.692,-11.302,21.766
368,1437228632362,-42.692,-11.302,21.766
369,1437228632382,-42.692,-11.302,21.766
370,1437228632408,-42.692,-11.302,21.766
371,1437228632424,-42.692,-11.302,21.766
372,1437228632444,-42.692,-11.302,21.766
373,1437228632463,-42.692,-11.302,21.766
374,1437228632487,-42.692,-11.302,21.766
375,1437228632504,-42.692,-11.302,21.766
376,1437228632526,-42.692,-11.302,21.766
377,1437228632546,-42.692,-11.302,21.766
378,1437228632566,-42.692,-11.302,21.766
379,1437228632586,-42.692,-11.302,21.766
380,1437228632605,-42.692,-11.302,21.766
381,1437228632627,-42.692,-11.302,21.766
382,1437228632646,-42.692,-11.302,22.077
383,1437228632666,-42.692,-11.302,22.077
384,1437228632686,-42.692,-11.302,22.077
385,1437228632704,-42.692,-11.302,22.077
386,1437228632731,-42.692,-11.302,22.077
387,1437228632743,-42.692,-11.302,22.377
388,1437228632763,-42.692,-11.302,22.377
389,1437228632783,-42.692,-11.302,22.377
390,1437228632805,-42.352,-11.302,22.377
391,1437228632826,-42.352,-11.302,22.798
392,1437228632844,-42.352,-11.302,22.798
393,1437228632864,-42.352,-11.302,22.798
394,1437228632885,-42.352,-11.302,23.1
395,1437228632910,-42.352,-11.302,23.1
396,1437228632927,-42.024,-11.302,23.1
397,1437228632950,-42.024,-11.302,23.431
398,1437228632965,-42.024,-11.302,23.431
399,1437228632990,-42.024,-11.302,23.431
400,1437228633064,-42.024,-11.302,23.431
401,1437228633065,-42.024,-11.302,23.431
402,1437228633066,-42.024,-11.302,23.431
403,1437228633067,-42.024,-11.302,23.431
404,1437228633085,-42.024,-11.302,23.431
405,1437228633113,-42.024,-11.302,23.431
406,1437228633125,-42.024,-11.302,23.431
407,1437228633145,-42.024,-11.302,23.431
408,1437228633165,-42.024,-11.302,23.431
409,1437228633183,-42.024,-11.302,23.431
410,1437228633205,-42.024,-11.302,23.431
411,1437228633224,-42.024,-11.302,23.431
412,1437228633247,-42.024,-11.302,23.431
413,1437228633264,-42.024,-11.302,23.431
414,1437228633287,-42.024,-11.302,23.431
415,1437228633307,-42.024,-11.302,23.431
416,1437228633325,-42.024,-11.302,23.431
417,1437228633347,-42.024,-11.302,23.431
418,1437228633367,-42.024,-11.302,23.431
419,1437228633387,-42.024,-11.302,23.796
420,1437228633407,-42.024,-11.302,23.796
421,1437228633423,-41.7,-11.302,23.796
422,1437228633448,-41.7,-11.302,23.796
423,1437228633465,-41.7,-11.302,24.238
424,1437228633487,-41.7,-11.302,24.238
425,1437228633503,-41.7,-11.302,24.635
426,1437228633524,-41.7,-11.302,24.635
427,1437228633544,-41.7,-11.302,24.966
428,1437228633568,-41.7,-11.302,24.966
429,1437228633588,-41.7,-11.671,25.268
430,1437228633609,-41.299,-11.671,25.268
431,1437228633627,-42.352,-12.174,25.268
432,1437228633644,-41.084,-12.174,25.599
433,1437228633663,-41.084,-12.733,25.599
434,1437228633684,-42.7,-13.073,25.599
435,1437228633705,-40.74,-13.073,25.926
436,1437228633773,-40.74,-13.073,25.926
437,1437228633774,-40.74,-13.073,25.926
438,1437228633775,-40.348,-13.073,26.29
439,1437228633793,-42.851,-13.073,26.29
440,1437228633804,-40.579,-13.073,26.29
441,1437228633830,-40.579,-13.073,26.29
442,1437228633844,-41.018,-13.381,26.29
443,1437228633865,-41.018,-13.381,26.29
444,1437228633886,-41.018,-13.381,26.29
445,1437228633920,-42.941,-13.381,26.29
446,1437228633951,-40.264,-13.381,26.29
447,1437228633952,-40.264,-13.381,26.29
448,1437228633964,-39.862,-13.682,26.29
449,1437228633984,-39.862,-13.682,26.29
450,1437228634004,-39.862,-13.682,26.29
451,1437228634024,-42.243,-13.682,26.29
452,1437228634044,-42.759,-13.682,26.29
453,1437228634064,-40.235,-13.682,26.29
454,1437228634084,-39.927,-13.682,26.29
455,1437228634104,-39.927,-13.682,26.29
456,1437228634124,-39.927,-13.682,26.29
457,1437228634143,-39.566,-14.012,26.605
458,1437228634163,-39.566,-14.012,26.605
459,1437228634183,-39.566,-14.012,26.605
460,1437228634204,-39.566,-14.012,26.605
461,1437228634224,-39.566,-14.012,26.605
462,1437228634243,-39.566,-14.012,26.605
463,1437228634263,-42.291,-14.012,26.98
464,1437228634284,-40.298,-14.012,26.98
465,1437228634306,-40.298,-14.012,26.98
466,1437228634326,-40.298,-14.012,26.98
467,1437228634344,-40.298,-14.012,26.98
468,1437228634364,-39.947,-14.012,26.98
469,1437228634385,-39.564,-13.69,26.98
470,1437228634404,-39.564,-13.69,26.98
471,1437228634425,-39.564,-13.69,26.98
472,1437228634443,-39.564,-13.69,26.98
473,1437228634466,-39.564,-13.69,26.98
474,1437228634495,-39.564,-13.69,26.98
475,1437228634508,-39.869,-13.69,26.98
476,1437228634524,-39.869,-13.69,26.98
477,1437228634544,-40.934,-13.69,26.617
478,1437228634565,-40.151,-13.69,26.617
479,1437228634587,-40.151,-13.69,26.617
480,1437228634605,-40.151,-14.167,26.283
481,1437228634625,-40.151,-14.167,26.283
482,1437228634644,-40.469,-14.167,25.813
483,1437228634667,-40.469,-14.167,25.019
484,1437228634690,-40.469,-14.167,24.275
485,1437228634706,-40.469,-14.494,23.67
486,1437228634727,-40.469,-14.494,23.355
487,1437228634747,-40.469,-14.912,22.958
488,1437228634767,-40.469,-14.912,22.958
489,1437228634788,-40.469,-15.298,22.958
490,1437228634808,-40.469,-15.298,22.958
491,1437228634826,-40.873,-15.65,22.572
492,1437228634848,-40.873,-15.65,22.238
493,1437228634867,-40.873,-16.113,21.794
494,1437228634888,-40.873,-16.879,21.278
495,1437228634906,-40.873,-17.669,20.655
496,1437228634926,-41.191,-18.093,20.063
497,1437228634946,-41.191,-18.647,19.252
498,1437228634968,-41.191,-18.647,19.252
