id,attr_time,attr_x,attr_y,attr_z
1,1437228625014,34.532,-33.705,1.82
2,1437228625035,34.532,-33.705,1.82
3,1437228625055,34.532,-33.705,1.82
4,1437228625077,34.532,-33.705,1.82
5,1437228625101,34.532,-33.705,1.82
6,1437228625115,34.837,-33.705,1.82
7,1437228625135,34.837,-33.705,2.13
8,1437228625154,34.837,-33.705,2.13
9,1437228625174,34.837,-33.705,2.13
10,1437228625194,34.837,-33.705,2.13
11,1437228625215,34.837,-33.705,2.13
12,1437228625235,34.837,-33.705,2.13
13,1437228625256,34.837,-33.705,2.13
14,1437228625275,34.837,-33.705,2.13
15,1437228625296,34.837,-33.705,2.13
16,1437228625319,34.837,-33.705,2.13
17,1437228625390,34.837,-33.705,2.13
18,1437228625391,34.837,-33.705,2.13
19,1437228625393,34.837,-33.705,2.13
20,1437228625394,34.837,-33.338,2.13
21,1437228625416,34.837,-33.338,2.13
22,1437228625438,34.837,-33.338,2.13
23,1437228625455,34.837,-33.338,2.13
24,1437228625475,34.837,-33.338,2.13
25,1437228625495,34.837,-33.038,2.13
26,1437228625517,34.837,-33.038,2.13
27,1437228625538,34.837,-33.038,2.13
28,1437228625555,34.837,-33.038,2.13
29,1437228625577,34.837,-33.038,2.13
30,1437228625598,34.837,-33.038,2.13
31,1437228625616,34.837,-33.038,2.13
32,1437228625638,34.837,-33.038,2.13
33,1437228625655,34.837,-33.038,2.13
34,1437228625677,34.837,-33.038,2.13
35,1437228625698,34.837,-33.038,2.13
36,1437228625745,34.837,-33.038,2.13
37,1437228625746,34.837,-33.038,2.13
38,1437228625757,34.837,-33.038,2.13
39,1437228625776,34.837,-33.038,2.13
40,1437228625796,34.837,-33.038,2.462
41,1437228625818,34.837,-33.038,2.462
42,1437228625835,34.837,-33.038,2.462
43,1437228625855,34.837,-33.038,2.462
44,1437228625875,34.837,-33.038,2.462
45,1437228625897,34.837,-33.354,2.462
46,1437228625918,34.837,-33.354,2.462
47,1437228625938,34.837,-33.354,2.462
48,1437228625957,34.837,-33.354,2.462
49,1437228625978,34.837,-33.354,2.462
50,1437228625997,34.837,-33.354,2.462
51,1437228626026,34.837,-33.354,2.462
52,1437228626101,34.837,-33.354,2.462
53,1437228626103,34.837,-33.354,2.462
54,1437228626160,34.837,-33.354,2.462
55,1437228626161,34.837,-33.354,2.462
56,1437228626162,34.837,-33.354,2.462
57,1437228626163,34.837,-33.354,2.462
58,1437228626164,34.837,-33.354,2.462
59,1437228626193,34.837,-33.354,2.462
60,1437228626195,34.837,-33.354,2.462
61,1437228626225,34.837,-33.354,2.462
62,1437228626235,34.837,-33.354,2.462
63,1437228626255,34.837,-33.354,2.462
64,1437228626275,34.837,-33.354,2.462
65,1437228626299,34.837,-33.354,2.462
66,1437228626324,34.837,-33.666,2.462
67,1437228626351,34.837,-33.666,2.462
68,1437228626358,34.837,-33.666,2.462
69,1437228626376,34.837,-33.666,2.462
70,1437228626395,34.837,-33.666,2.462
71,1437228626416,34.837,-33.666,2.462
72,1437228626442,34.837,-33.666,2.462
73,1437228626456,34.837,-33.666,2.462
74,1437228626476,34.837,-33.666,2.462
75,1437228626496,34.837,-33.666,2.462
76,1437228626519,34.837,-33.666,2.462
77,1437228626538,34.837,-33.666,2.462
78,1437228626558,34.837,-33.666,2.462
79,1437228626577,34.837,-33.666,2.462
80,1437228626598,34.837,-33.666,2.462
81,1437228626620,34.837,-33.666,2.462
82,1437228626640,34.837,-33.666,2.462
83,1437228626657,34.837,-33.358,2.462
84,1437228626676,34.837,-33.358,2.462
85,1437228626697,34.504,-33.358,2.462
86,1437228626719,34.504,-33.358,2.462
87,1437228626739,34.504,-33.358,2.462
88,1437228626759,34.504,-33.358,2.809
89,1437228626778,34.504,-33.006,2.809
90,1437228626799,34.504,-33.006,2.809
91,1437228626819,34.504,-33.006,2.809
92,1437228626836,34.504,-33.006,2.809
93,1437228626865,34.504,-33.006,2.809
94,1437228626881,34.504,-33.006,2.809
95,1437228626899,34.504,-33.006,2.809
96,1437228626915,34.504,-33.006,2.809
97,1437228626939,34.504,-33.006,2.809
98,1437228626958,34.504,-33.006,3.141
99,1437228626977,34.504,-33.006,3.141
100,1437228626996,34.504,-33.006,3.141
101,1437228627020,34.504,-33.006,3.141
102,1437228627040,34.504,-33.006,3.141
103,1437228627060,34.504,-33.006,3.141
104,1437228627075,34.504,-33.006,3.141
105,1437228627100,34.504,-32.679,3.141
106,1437228627120,34.504,-32.679,3.141
107,1437228627136,34.504,-32.679,3.141
108,1437228627160,34.504,-32.679,3.141
109,1437228627177,34.504,-32.679,3.141
110,1437228627199,34.504,-32.679,3.141
111,1437228627217,34.504,-32.679,3.141
112,1437228627240,34.504,-32.679,3.141
113,1437228627259,34.504,-32.679,3.475
114,1437228627277,34.504,-32.679,3.475
115,1437228627299,34.202,-32.679,3.475
116,1437228627320,34.202,-32.679,3.475
117,1437228627340,34.202,-32.679,3.475
118,1437228627359,34.202,-32.679,3.475
119,1437228627380,34.202,-32.679,3.475
120,1437228627399,34.202,-32.679,3.475
121,1437228627421,34.202,-32.679,3.475
122,1437228627439,34.202,-32.679,3.475
123,1437228627459,34.202,-32.679,3.475
124,1437228627481,34.552,-32.679,3.475
125,1437228627497,34.552,-32.679,3.475
126,1437228627550,34.552,-32.98,3.475
127,1437228627551,34.552,-32.98,3.475
128,1437228627568,34.552,-32.98,3.475
129,1437228627577,34.552,-32.98,3.475
130,1437228627604,34.552,-32.98,3.475
131,1437228627619,34.552,-32.98,3.475
132,1437228627638,34.552,-32.98,3.475
133,1437228627661,34.552,-32.98,3.475
134,1437228627677,34.182,-32.98,3.475
135,1437228627698,34.182,-32.98,3.475
136,1437228627718,34.182,-32.664,3.475
137,1437228627740,34.182,-32.664,3.475
138,1437228627757,34.182,-32.664,3.475
139,1437228627780,34.182,-32.664,3.475
140,1437228627800,34.182,-32.664,3.475
141,1437228627820,34.182,-32.664,3.475
142,1437228627840,34.182,-32.664,3.475
143,1437228627870,34.182,-32.664,3.475
144,1437228627877,34.182,-32.664,3.475
145,1437228627897,34.182,-32.664,3.475
146,1437228627917,34.182,-32.664,3.475
147,1437228627937,34.182,-32.664,3.475
148,1437228627957,34.182,-32.975,3.791
149,1437228627980,34.182,-32.975,3.791
150,1437228627999,34.182,-32.975,3.791
151,1437228628018,34.182,-32.975,3.791
152,1437228628039,34.182,-32.975,3.791
153,1437228628062,34.182,-33.338,3.791
154,1437228628081,34.567,-33.338,3.791
155,1437228628100,34.567,-33.338,3.791
156,1437228628120,34.567,-33.338,3.791
157,1437228628138,34.567,-33.338,3.791
158,1437228628158,34.567,-33.338,3.791
159,1437228628178,34.567,-33.338,3.791
160,1437228628199,34.567,-33.338,3.791
161,1437228628217,34.567,-33.338,3.791
162,1437228628270,34.567,-33.338,3.791
163,1437228628271,34.567,-33.338,3.791
164,1437228628288,34.567,-33.338,3.791
165,1437228628299,34.567,-33.338,3.791
166,1437228628324,34.567,-33.338,3.791
167,1437228628338,34.567,-33.338,3.791
168,1437228628359,34.567,-33.338,3.791
169,1437228628378,34.567,-33.338,3.791
170,1437228628398,34.567,-33.338,3.791
171,1437228628417,34.567,-33.338,3.791
172,1437228628441,34.567,-33.338,3.791
173,1437228628457,34.567,-33.338,3.791
174,1437228628477,34.567,-33.338,3.791
175,1437228628498,34.567,-33.338,3.791
176,1437228628520,34.567,-33.338,3.791
177,1437228628541,34.567,-33.338,3.791
178,1437228628561,34.567,-33.338,3.791
179,1437228628581,34.567,-33.338,3.791
180,1437228628601,34.234,-33.338,3.791
181,1437228628618,34.234,-33.338,3.791
182,1437228628641,34.234,-33.338,3.791
183,1437228628661,34.234,-33.338,3.791
184,1437228628681,34.234,-33.338,3.791
185,1437228628698,34.234,-33.338,3.791
186,1437228628721,34.234,-33.338,3.791
187,1437228628741,34.234,-33.338,3.791
188,1437228628761,34.234,-33.338,3.791
189,1437228628781,34.234,-33.338,3.791
190,1437228628801,34.234,-33.338,3.791
191,1437228628822,34.234,-33.338,3.791
192,1437228628841,34.573,-33.338,3.791
193,1437228628862,34.573,-33.338,3.791
194,1437228628882,34.573,-33.338,3.791
195,1437228628902,34.573,-33.338,3.791
196,1437228628923,34.573,-33.338,4.107
197,1437228628941,34.573,-33.338,4.107
198,1437228628961,34.573,-33.338,4.107
199,1437228629019,34.573,-33.338,4.107
200,1437228629020,34.573,-33.338,4.107
201,1437228629033,34.573,-33.338,4.107
202,1437228629040,34.573,-33.338,4.107
203,1437228629061,34.573,-33.338,4.107
204,1437228629083,34.573,-33.338,4.107
205,1437228629098,34.573,-33.338,4.107
206,1437228629118,34.573,-33.338,4.107
207,1437228629151,34.573,-33.338,4.107
208,1437228629159,34.573,-33.338,4.107
209,1437228629180,34.573,-33.338,4.107
210,1437228629198,34.573,-33.338,4.107
211,1437228629222,34.24,-33.338,4.107
212,1437228629242,34.24,-33.338,4.107
213,1437228629262,34.24,-33.029,4.107
214,1437228629282,33.921,-33.029,4.107
215,1437228629302,33.921,-33.029,4.107
216,1437228629318,33.921,-33.029,4.107
217,1437228629342,33.921,-33.029,4.107
218,1437228629362,33.921,-33.029,4.107
219,1437228629379,33.921,-33.029,4.107
220,1437228629401,33.613,-33.029,4.107
221,1437228629422,33.613,-33.029,4.107
222,1437228629439,33.613,-33.029,4.107
223,1437228629461,33.613,-33.029,4.107
224,1437228629481,33.613,-33.029,4.107
225,1437228629502,33.613,-33.029,4.107
226,1437228629521,33.613,-33.029,4.107
227,1437228629542,33.613,-33.029,4.107
228,1437228629562,33.613,-33.029,4.107
229,1437228629582,33.613,-33.029,4.107
230,1437228629602,33.938,-33.029,4.107
231,1437228629622,33.938,-33.029,4.107
232,1437228629644,33.938,-33.029,4.107
233,1437228629663,33.938,-33.029,4.107
234,1437228629682,34.294,-33.029,4.107
235,1437228629707,34.294,-33.029,4.107
236,1437228629719,34.294,-33.348,4.107
237,1437228629764,34.294,-33.348,4.107
238,1437228629765,34.294,-33.348,4.107
239,1437228629790,34.294,-33.348,4.107
240,1437228629799,34.294,-33.348,4.425
241,1437228629827,34.294,-33.348,4.425
242,1437228629840,34.294,-33.348,4.425
243,1437228629864,34.294,-33.348,4.425
244,1437228629879,34.294,-33.348,4.425
245,1437228629899,34.294,-33.348,4.425
246,1437228629920,34.294,-33.348,4.425
247,1437228629940,34.294,-33.348,4.425
248,1437228629960,34.294,-33.348,4.425
249,1437228629979,34.294,-33.348,4.425
250,1437228629999,34.294,-33.348,4.425
251,1437228630019,34.294,-33.348,4.425
252,1437228630045,34.294,-33.348,4.425
253,1437228630059,34.294,-33.348,4.786
254,1437228630081,34.294,-33.348,4.786
255,1437228630102,34.294,-33.348,4.786
256,1437228630119,34.294,-33.348,4.786
257,1437228630139,34.294,-33.348,4.786
258,1437228630158,34.294,-33.348,4.786
259,1437228630179,34.294,-33.348,4.786
260,1437228630199,34.294,-33.047,4.786
261,1437228630219,34.294,-33.047,4.786
262,1437228630239,34.294,-33.047,4.786
263,1437228630259,34.294,-33.047,4.786
264,1437228630279,34.294,-33.047,4.786
265,1437228630298,34.294,-33.047,4.786
266,1437228630319,33.979,-33.047,4.786
267,1437228630338,33.979,-33.047,4.786
268,1437228630358,33.979,-33.047,4.786
269,1437228630378,33.979,-33.047,4.786
270,1437228630398,33.979,-33.047,4.786
271,1437228630418,33.979,-33.047,4.786
272,1437228630438,33.979,-33.047,4.786
273,1437228630458,33.979,-33.047,4.786
274,1437228630478,33.979,-33.047,4.786
275,1437228630498,33.979,-33.047,4.786
276,1437228630518,33.979,-33.047,4.786
277,1437228630538,33.979,-33.047,4.786
278,1437228630558,33.979,-33.047,4.786
279,1437228630578,33.979,-33.372,4.786
280,1437228630600,33.979,-33.372,4.786
281,1437228630622,33.979,-33.372,4.786
282,1437228630641,33.979,-33.372,4.786
283,1437228630662,33.979,-33.372,4.786
284,1437228630682,33.979,-33.372,4.786
285,1437228630736,33.979,-33.372,4.786
286,1437228630737,33.979,-33.372,4.786
287,1437228630739,33.979,-33.372,4.786
288,1437228630759,33.979,-33.372,4.786
289,1437228630782,33.979,-33.372,4.786
290,1437228630799,34.283,-33.688,4.786
291,1437228630819,34.283,-33.688,4.786
292,1437228630839,34.283,-33.688,4.786
293,1437228630859,34.283,-33.688,4.786
294,1437228630880,34.283,-33.688,4.786
295,1437228630902,34.283,-33.688,4.786
296,1437228630919,34.602,-33.688,4.786
297,1437228630942,34.602,-33.688,4.786
298,1437228630960,34.602,-33.688,4.786
299,1437228630983,34.602,-33.688,4.786
300,1437228631003,34.602,-33.688,4.435
301,1437228631020,34.602,-33.688,4.435
302,1437228631040,34.602,-33.688,4.435
303,1437228631060,34.602,-33.688,4.435
304,1437228631083,34.602,-33.688,4.435
305,1437228631100,34.602,-33.688,4.435
306,1437228631120,34.602,-33.688,4.435
307,1437228631140,34.602,-33.341,4.435
308,1437228631160,34.602,-33.341,4.06
309,1437228631180,34.602,-33.341,4.06
310,1437228631199,34.602,-33.341,4.06
311,1437228631220,34.602,-33.341,4.06
312,1437228631239,34.602,-33.341,3.732
313,1437228631259,34.602,-33.341,3.732
314,1437228631280,34.602,-33.035,3.732
315,1437228631300,34.602,-33.035,3.732
316,1437228631320,34.602,-33.035,3.732
317,1437228631339,34.602,-33.035,3.732
318,1437228631360,34.902,-33.035,3.732
319,1437228631380,34.902,-33.035,3.732
320,1437228631400,34.902,-33.035,3.388
321,1437228631421,34.902,-33.035,3.388
322,1437228631440,34.902,-33.035,3.388
323,1437228631460,34.902,-33.035,3.388
324,1437228631480,34.902,-33.035,3.388
325,1437228631501,35.206,-33.035,3.388
326,1437228631522,35.206,-33.035,3.388
327,1437228631544,35.206,-33.035,3.388
328,1437228631564,35.206,-33.035,3.388
329,1437228631580,35.206,-33.035,3.388
330,1437228631602,35.206,-33.035,3.388
331,1437228631620,35.206,-33.035,3.388
332,1437228631650,35.206,-33.035,3.388
333,1437228631662,35.206,-33.035,3.388
334,1437228631680,35.206,-33.035,3.388
335,1437228631701,35.206,-33.035,3.388
336,1437228631723,35.206,-32.701,3.388
337,1437228631741,35.206,-32.701,3.388
338,1437228631761,35.206,-32.701,3.388
339,1437228631780,35.206,-32.701,3.388
340,1437228631804,34.893,-32.701,3.388
341,1437228631822,34.893,-32.701,3.388
342,1437228631844,34.893,-32.701,3.388
343,1437228631862,34.893,-32.701,3.388
344,1437228631881,34.893,-32.701,3.388
345,1437228631901,34.893,-32.701,3.388
346,1437228631924,34.893,-32.701,3.388
347,1437228631941,34.893,-32.701,3.388
348,1437228631960,34.893,-32.701,3.388
349,1437228631980,34.893,-32.701,3.388
350,1437228632002,34.893,-32.701,3.388
351,1437228632022,34.893,-32.701,3.388
352,1437228632041,34.893,-32.701,3.388
353,1437228632061,34.893,-32.701,3.691
354,1437228632084,34.893,-32.701,3.691
355,1437228632102,34.893,-32.701,3.691
356,1437228632124,34.893,-32.701,3.691
357,1437228632144,34.893,-32.701,3.691
358,1437228632164,34.893,-33.035,3.691
359,1437228632184,34.893,-33.035,3.691
360,1437228632202,34.893,-33.035,3.691
361,1437228632222,34.893,-33.035,3.691
362,1437228632242,34.893,-33.035,3.691
363,1437228632263,34.893,-33.035,3.691
364,1437228632286,34.893,-33.035,3.691
365,1437228632349,34.893,-33.035,3.691
366,1437228632350,34.893,-33.035,3.691
367,1437228632351,34.893,-33.035,3.691
368,1437228632361,34.893,-33.035,3.691
369,1437228632416,34.893,-33.035,3.691
370,1437228632417,34.893,-33.035,3.691
371,1437228632421,34.893,-33.035,3.691
372,1437228632442,34.893,-33.34,3.691
373,1437228632463,34.893,-33.34,3.691
374,1437228632481,34.893,-33.34,3.691
375,1437228632505,34.893,-33.34,3.691
376,1437228632525,34.893,-33.34,3.691
377,1437228632543,34.893,-33.34,3.691
378,1437228632565,34.893,-33.34,3.691
379,1437228632585,34.893,-33.34,3.691
380,1437228632603,34.893,-33.34,3.691
381,1437228632625,34.893,-33.34,3.691
382,1437228632645,34.893,-33.34,3.691
383,1437228632665,34.893,-33.34,3.691
384,1437228632685,34.559,-33.34,3.691
385,1437228632704,34.559,-33.34,3.691
386,1437228632723,34.559,-33.34,3.691
387,1437228632745,34.559,-33.34,3.361
388,1437228632762,34.559,-33.34,3.361
389,1437228632781,34.559,-33.34,3.361
390,1437228632802,34.559,-33.34,3.361
391,1437228632827,34.213,-33.34,3.361
392,1437228632847,34.213,-33.34,3.361
393,1437228632868,34.213,-33.34,3.361
394,1437228632885,33.824,-33.34,3.361
395,1437228632903,33.824,-33.34,3.361
396,1437228632926,33.525,-33.34,3.361
397,1437228632943,33.525,-33.34,3.361
398,1437228633060,32.357,-33.776,3.361
399,1437228633063,32.357,-33.776,3.361
400,1437228633064,30.662,-34.12,3.361
401,1437228633065,30.242,-34.12,3.361
402,1437228633066,29.475,-34.585,3.726
403,1437228633067,28.579,-34.942,3.726
404,1437228633082,27.864,-34.942,3.726
405,1437228633108,27.537,-35.681,4.173
406,1437228633122,27.154,-36.238,4.173
407,1437228633142,27.154,-36.238,5.043
408,1437228633165,26.44,-36.55,5.043
409,1437228633183,26.113,-36.872,6.488
410,1437228633203,26.113,-37.637,7.228
411,1437228633223,26.113,-38.171,8.305
412,1437228633259,25.808,-38.171,9.138
413,1437228633262,25.808,-38.972,9.138
414,1437228633282,25.808,-38.972,9.985
415,1437228633302,25.808,-38.972,9.985
416,1437228633322,25.808,-38.972,10.63
417,1437228633343,25.808,-38.972,10.951
418,1437228633365,25.808,-38.972,10.951
419,1437228633383,25.808,-38.972,11.412
420,1437228633405,25.808,-38.972,12.341
421,1437228633425,25.808,-38.972,11.683
422,1437228633444,25.808,-38.972,12.73
423,1437228633502,25.488,-38.972,12.73
424,1437228633503,25.488,-39.276,13.198
425,1437228633504,25.488,-39.276,13.198
426,1437228633559,25.488,-39.276,13.67
427,1437228633560,25.488,-39.276,13.67
428,1437228633563,25.822,-39.276,13.992
429,1437228633582,26.942,-39.276,13.992
430,1437228633602,28.001,-38.504,13.992
431,1437228633622,28.816,-37.161,13.992
432,1437228633643,29.557,-36.199,13.992
433,1437228633662,30.101,-35.528,13.992
434,1437228633682,30.561,-34.843,13.992
435,1437228633717,31.155,-34.124,13.992
436,1437228633722,31.155,-34.124,13.992
437,1437228633742,31.59,-32.513,13.992
438,1437228633765,32.324,-32.513,13.992
439,1437228633782,32.864,-31.666,14.358
440,1437228633802,33.563,-30.917,14.358
441,1437228633822,34.146,-30.421,14.358
442,1437228633845,34.674,-30.421,14.358
443,1437228633862,34.141,-29.83,14.358
444,1437228633882,34.584,-29.493,14.358
445,1437228633902,34.584,-29.493,14.358
446,1437228633922,35.163,-29.493,14.358
447,1437228633942,35.163,-29.493,14.358
448,1437228633962,35.163,-29.797,14.358
449,1437228633982,35.163,-29.797,14.358
450,1437228634002,35.163,-30.191,14.358
451,1437228634022,34.823,-30.191,14.358
452,1437228634042,34.823,-30.497,14.358
453,1437228634062,34.503,-30.497,14.358
454,1437228634082,34.503,-30.497,14.358
455,1437228634102,34.503,-30.192,14.358
456,1437228634122,34.503,-30.192,14.358
457,1437228634143,34.503,-30.662,14.358
458,1437228634164,33.775,-31.454,14.358
459,1437228634184,33.117,-32.153,14.358
460,1437228634205,32.612,-32.969,14.358
461,1437228634226,32.086,-33.763,14.358
462,1437228634243,31.475,-34.207,14.358
463,1437228634264,30.545,-34.207,14.73
464,1437228634284,30.545,-35.014,14.73
465,1437228634305,30.056,-35.626,14.73
466,1437228634325,29.643,-35.626,14.73
467,1437228634343,29.031,-36.305,15.104
468,1437228634365,28.221,-36.305,15.104
469,1437228634406,27.423,-36.892,15.104
470,1437228634407,27.044,-37.353,15.104
471,1437228634424,26.101,-37.353,15.104
472,1437228634444,25.759,-37.353,15.104
473,1437228634465,25.39,-37.928,15.104
474,1437228634487,25.39,-37.928,15.429
475,1437228634503,24.768,-38.288,15.429
476,1437228634524,24.247,-38.288,15.429
477,1437228634543,23.793,-38.935,15.429
478,1437228634565,23.083,-38.935,15.429
479,1437228634587,23.083,-39.59,15.429
480,1437228634607,22.253,-39.59,15.429
481,1437228634625,22.253,-39.59,15.429
482,1437228634644,21.794,-39.958,15.429
483,1437228634664,21.305,-39.958,15.429
484,1437228634685,21.305,-39.958,15.429
485,1437228634707,21.305,-40.267,15.429
486,1437228634727,21.305,-40.267,15.429
487,1437228634745,20.814,-40.267,15.736
488,1437228634765,20.442,-40.267,15.736
489,1437228634786,20.442,-40.267,15.736
490,1437228634805,20.442,-40.267,15.736
491,1437228634827,20.442,-40.611,16.11
492,1437228634844,20.442,-40.611,16.11
493,1437228634865,20.442,-40.921,16.11
494,1437228634887,20.442,-40.921,16.412
495,1437228634906,20.442,-40.921,16.412
496,1437228634929,20.442,-40.921,16.412
497,1437228634948,20.129,-41.268,16.412
498,1437228634966,20.129,-41.268,16.772
499,1437228634990,19.729,-41.268,16.772
500,1437228635006,19.729,-41.268,16.772
501,1437228635025,19.4,-41.268,16.772
502,1437228635053,19.4,-41.268,16.772
503,1437228635064,19.4,-41.268,16.772
504,1437228635112,19.096,-41.268,16.772
505,1437228635113,19.096,-41.575,16.772
506,1437228635134,19.096,-41.575,16.772
507,1437228635144,18.789,-41.575,16.772
508,1437228635172,18.789,-41.575,16.772
509,1437228635184,18.789,-41.575,16.772
510,1437228635204,18.455,-41.896,16.772
511,1437228635225,18.455,-41.896,16.772
512,1437228635246,18.138,-41.896,16.772
513,1437228635265,18.138,-41.896,16.772
514,1437228635284,17.831,-42.228,16.772
515,1437228635304,17.831,-42.228,16.772
