id,attr_time,attr_light
1,1438260082018,509.0
2,1438260082038,509.0
3,1438260082058,509.0
4,1438260082078,509.0
5,1438260082098,509.0
6,1438260082118,509.0
7,1438260082138,510.0
8,1438260082158,510.0
9,1438260082178,510.0
10,1438260082200,510.0
11,1438260082219,510.0
12,1438260082238,510.0
13,1438260082258,510.0
14,1438260082278,510.0
15,1438260082298,512.0
16,1438260082318,512.0
17,1438260082338,513.0
18,1438260082358,513.0
19,1438260082378,514.0
20,1438260082398,514.0
21,1438260082418,514.0
22,1438260082438,516.0
23,1438260082458,516.0
24,1438260082478,519.0
25,1438260082498,519.0
26,1438260082523,521.0
27,1438260082538,521.0
28,1438260082558,522.0
29,1438260082578,522.0
30,1438260082598,523.0
31,1438260082618,523.0
32,1438260082638,525.0
33,1438260082658,525.0
34,1438260082679,526.0
35,1438260082699,526.0
36,1438260082719,526.0
37,1438260082743,523.0
38,1438260082759,523.0
39,1438260082779,521.0
40,1438260082799,521.0
41,1438260082819,520.0
42,1438260082839,520.0
43,1438260082859,518.0
44,1438260082879,518.0
45,1438260082899,514.0
46,1438260082919,514.0
47,1438260082939,511.0
48,1438260082959,511.0
49,1438260082979,509.0
50,1438260082999,509.0
51,1438260083019,509.0
52,1438260083039,507.0
53,1438260083059,507.0
54,1438260083079,506.0
55,1438260083099,506.0
56,1438260083119,504.0
57,1438260083139,504.0
58,1438260083159,504.0
59,1438260083179,504.0
60,1438260083199,506.0
61,1438260083219,506.0
62,1438260083239,506.0
63,1438260083259,506.0
64,1438260083279,506.0
65,1438260083299,505.0
66,1438260083319,505.0
67,1438260083339,505.0
68,1438260083359,505.0
69,1438260083379,507.0
70,1438260083399,507.0
71,1438260083419,507.0
72,1438260083439,507.0
73,1438260083459,507.0
74,1438260083479,507.0
75,1438260083499,506.0
76,1438260083519,506.0
77,1438260083539,504.0
78,1438260083559,504.0
79,1438260083579,502.0
80,1438260083599,498.0
81,1438260083619,498.0
82,1438260083640,494.0
83,1438260083659,494.0
84,1438260083679,489.0
85,1438260083700,489.0
86,1438260083720,485.0
87,1438260083740,485.0
88,1438260083760,482.0
89,1438260083780,482.0
90,1438260083800,481.0
91,1438260083820,481.0
92,1438260083840,480.0
93,1438260083860,480.0
94,1438260083880,479.0
95,1438260083900,481.0
96,1438260083920,481.0
97,1438260083940,482.0
98,1438260083960,482.0
99,1438260083980,482.0
100,1438260084000,482.0
101,1438260084020,482.0
102,1438260084040,482.0
103,1438260084060,481.0
104,1438260084080,481.0
105,1438260084100,481.0
106,1438260084120,481.0
107,1438260084140,481.0
108,1438260084160,481.0
109,1438260084180,481.0
110,1438260084200,480.0
111,1438260084220,480.0
112,1438260084240,480.0
113,1438260084260,480.0
114,1438260084280,482.0
115,1438260084300,482.0
116,1438260084320,482.0
117,1438260084340,482.0
118,1438260084360,482.0
119,1438260084380,482.0
120,1438260084400,480.0
121,1438260084420,480.0
122,1438260084440,479.0
123,1438260084460,479.0
124,1438260084480,481.0
125,1438260084500,487.0
126,1438260084520,487.0
127,1438260084540,500.0
128,1438260084560,500.0
129,1438260084580,524.0
130,1438260084600,524.0
131,1438260084620,574.0
132,1438260084640,574.0
133,1438260084660,652.0
134,1438260084680,652.0
135,1438260084700,739.0
136,1438260084720,739.0
137,1438260084740,891.0
138,1438260084760,1022.0
139,1438260084781,1022.0
140,1438260084800,1114.0
141,1438260084820,1114.0
142,1438260084841,1294.0
143,1438260084861,1294.0
144,1438260084881,1777.0
145,1438260084901,1777.0
146,1438260084921,2796.0
147,1438260084941,2796.0
148,1438260084961,5561.0
149,1438260084981,5561.0
150,1438260085001,8859.0
151,1438260085021,8859.0
152,1438260085041,10588.0
153,1438260085061,10178.0
154,1438260085081,11929.0
155,1438260085101,13333.0
156,1438260085121,13333.0
157,1438260085141,14834.0
158,1438260085162,14834.0
159,1438260085181,0.0
160,1438260085201,17952.0
161,1438260085221,17952.0
162,1438260085241,19164.0
163,1438260085261,19164.0
164,1438260085281,20684.0
165,1438260085301,20684.0
166,1438260085322,22327.0
167,1438260085341,22327.0
168,1438260085362,23343.0
169,1438260085381,0.0
170,1438260085401,24118.0
171,1438260085421,24118.0
172,1438260085441,24235.0
173,1438260085461,24235.0
174,1438260085481,23496.0
175,1438260085501,23496.0
176,1438260085521,22289.0
177,1438260085541,22289.0
178,1438260085562,20324.0
179,1438260085581,0.0
180,1438260085601,19190.0
181,1438260085621,19190.0
182,1438260085641,18017.0
183,1438260085661,18017.0
184,1438260085681,15287.0
185,1438260085701,15287.0
186,1438260085721,11742.0
187,1438260085741,11742.0
188,1438260085761,7652.0
189,1438260085781,7652.0
190,1438260085801,2852.0
191,1438260085821,2852.0
192,1438260085841,1731.0
193,1438260085861,2380.0
194,1438260085881,1379.0
195,1438260085902,1752.0
196,1438260085922,1752.0
197,1438260085942,4687.0
198,1438260085962,4687.0
199,1438260085982,15089.0
200,1438260086002,15089.0
201,1438260086022,19285.0
202,1438260086042,19285.0
203,1438260086062,1976.0
204,1438260086082,1976.0
205,1438260086102,1156.0
206,1438260086122,1156.0
207,1438260086142,1090.0
208,1438260086162,1010.0
209,1438260086182,1010.0
210,1438260086202,856.0
211,1438260086222,856.0
212,1438260086242,795.0
213,1438260086262,795.0
214,1438260086282,782.0
215,1438260086302,782.0
216,1438260086322,779.0
217,1438260086342,779.0
218,1438260086362,778.0
219,1438260086382,778.0
220,1438260086402,776.0
221,1438260086422,776.0
222,1438260086442,775.0
223,1438260086462,778.0
224,1438260086482,778.0
225,1438260086502,780.0
226,1438260086522,780.0
227,1438260086542,782.0
228,1438260086562,782.0
229,1438260086582,781.0
230,1438260086602,781.0
231,1438260086622,781.0
232,1438260086642,781.0
233,1438260086662,780.0
234,1438260086682,780.0
235,1438260086702,781.0
236,1438260086722,781.0
237,1438260086742,788.0
238,1438260086762,800.0
239,1438260086782,800.0
240,1438260086802,812.0
241,1438260086822,812.0
242,1438260086842,824.0
243,1438260086863,824.0
244,1438260086883,834.0
245,1438260086903,834.0
246,1438260086923,847.0
247,1438260086943,847.0
248,1438260086963,858.0
249,1438260086985,858.0
250,1438260087003,866.0
251,1438260087023,866.0
252,1438260087043,869.0
253,1438260087063,868.0
254,1438260087083,868.0
255,1438260087103,863.0
256,1438260087123,863.0
257,1438260087143,855.0
258,1438260087163,855.0
259,1438260087183,855.0
260,1438260087203,855.0
261,1438260087223,887.0
262,1438260087243,887.0
263,1438260087263,923.0
264,1438260087283,923.0
265,1438260087303,953.0
266,1438260087323,953.0
267,1438260087343,995.0
268,1438260087363,1019.0
269,1438260087383,1019.0
270,1438260087403,1042.0
271,1438260087423,1042.0
272,1438260087443,1050.0
273,1438260087463,1050.0
274,1438260087483,1058.0
275,1438260087503,1058.0
276,1438260087523,1073.0
277,1438260087545,1073.0
278,1438260087563,1089.0
279,1438260087583,1089.0
280,1438260087603,1094.0
281,1438260087623,1102.0
282,1438260087643,1102.0
283,1438260087663,1109.0
284,1438260087683,1109.0
285,1438260087703,1105.0
286,1438260087723,1105.0
287,1438260087744,1100.0
288,1438260087763,1100.0
289,1438260087783,1096.0
290,1438260087803,1096.0
291,1438260087823,1090.0
292,1438260087843,1090.0
293,1438260087863,1085.0
294,1438260087883,1085.0
295,1438260087903,1078.0
296,1438260087923,1068.0
297,1438260087943,1068.0
298,1438260087963,1063.0
299,1438260087984,1063.0
300,1438260088004,1075.0
301,1438260088024,1075.0
302,1438260088044,1250.0
303,1438260088064,1250.0
304,1438260088084,1132.0
305,1438260088104,1132.0
306,1438260088124,1208.0
307,1438260088144,1208.0
308,1438260088164,1254.0
309,1438260088184,1254.0
310,1438260088204,2099.0
311,1438260088224,1406.0
312,1438260088244,1406.0
313,1438260088264,1404.0
314,1438260088284,1404.0
315,1438260088304,1418.0
316,1438260088324,1418.0
317,1438260088344,1404.0
318,1438260088364,1404.0
319,1438260088384,1407.0
320,1438260088404,1407.0
321,1438260088424,1422.0
322,1438260088444,1422.0
323,1438260088464,1429.0
324,1438260088484,1429.0
325,1438260088504,1425.0
326,1438260088524,1421.0
327,1438260088544,1421.0
328,1438260088564,1427.0
329,1438260088584,1427.0
330,1438260088604,1437.0
331,1438260088625,1437.0
332,1438260088644,1445.0
333,1438260088664,1445.0
334,1438260088684,1446.0
335,1438260088704,1446.0
336,1438260088724,1446.0
337,1438260088744,1446.0
338,1438260088765,1440.0
339,1438260088785,1440.0
340,1438260088805,1426.0
341,1438260088825,1413.0
342,1438260088845,1413.0
343,1438260088866,1400.0
344,1438260088885,1400.0
345,1438260088905,1387.0
346,1438260088925,1387.0
347,1438260088945,1373.0
348,1438260088965,1373.0
349,1438260088985,1361.0
350,1438260089005,1361.0
351,1438260089026,1360.0
352,1438260089045,1360.0
353,1438260089065,1358.0
354,1438260089085,1357.0
355,1438260089105,1357.0
356,1438260089125,1346.0
357,1438260089145,1346.0
358,1438260089165,1336.0
359,1438260089185,1336.0
360,1438260089205,1328.0
361,1438260089225,1328.0
362,1438260089245,1322.0
363,1438260089265,1322.0
364,1438260089285,1317.0
365,1438260089305,1317.0
366,1438260089325,1313.0
367,1438260089345,1313.0
368,1438260089365,1310.0
369,1438260089385,1305.0
370,1438260089405,1305.0
371,1438260089425,1300.0
372,1438260089445,1300.0
373,1438260089465,1298.0
374,1438260089485,1298.0
375,1438260089505,1299.0
376,1438260089525,1299.0
377,1438260089545,1300.0
378,1438260089565,1300.0
379,1438260089585,1298.0
380,1438260089605,1298.0
381,1438260089625,1293.0
382,1438260089645,1293.0
383,1438260089665,1313.0
384,1438260089685,1317.0
385,1438260089705,1317.0
386,1438260089726,1318.0
387,1438260089745,1318.0
388,1438260089765,1315.0
389,1438260089785,1315.0
390,1438260089805,1318.0
391,1438260089825,1318.0
392,1438260089845,1326.0
393,1438260089865,1326.0
394,1438260089885,1340.0
395,1438260089905,1340.0
396,1438260089925,1361.0
397,1438260089945,1361.0
398,1438260089965,1384.0
399,1438260089986,1393.0
400,1438260090006,1393.0
401,1438260090026,1396.0
402,1438260090046,1396.0
403,1438260090066,1398.0
404,1438260090086,1398.0
405,1438260090106,1398.0
406,1438260090126,1398.0
407,1438260090146,1400.0
408,1438260090166,1400.0
409,1438260090186,1398.0
410,1438260090206,1398.0
411,1438260090226,1397.0
412,1438260090246,1397.0
413,1438260090266,1397.0
414,1438260090286,1396.0
415,1438260090306,1396.0
416,1438260090326,1394.0
417,1438260090346,1394.0
418,1438260090366,1395.0
419,1438260090386,1395.0
420,1438260090406,1396.0
421,1438260090426,1396.0
422,1438260090448,1395.0
423,1438260090466,1395.0
424,1438260090486,1395.0
425,1438260090506,1395.0
426,1438260090526,1396.0
427,1438260090546,1395.0
428,1438260090566,1395.0
429,1438260090586,1395.0
430,1438260090606,1395.0
431,1438260090626,1394.0
432,1438260090646,1394.0
433,1438260090666,1395.0
434,1438260090686,1395.0
435,1438260090706,1394.0
436,1438260090726,1394.0
437,1438260090746,1394.0
438,1438260090767,1394.0
439,1438260090786,1393.0
440,1438260090807,1393.0
441,1438260090826,1392.0
442,1438260090846,1389.0
443,1438260090866,1389.0
444,1438260090886,1387.0
445,1438260090906,1387.0
446,1438260090926,1387.0
447,1438260090946,1387.0
448,1438260090967,1388.0
449,1438260090986,1388.0
450,1438260091018,1388.0
451,1438260091027,1388.0
452,1438260091047,1386.0
453,1438260091067,1386.0
454,1438260091087,1384.0
455,1438260091107,1384.0
456,1438260091127,1383.0
457,1438260091147,1383.0
458,1438260091167,1383.0
459,1438260091187,1381.0
460,1438260091207,1381.0
461,1438260091227,1380.0
462,1438260091247,1380.0
463,1438260091267,1380.0
464,1438260091287,1380.0
465,1438260091307,1379.0
466,1438260091327,1379.0
467,1438260091347,1382.0
468,1438260091367,1382.0
469,1438260091387,1382.0
470,1438260091407,1382.0
471,1438260091427,1380.0
472,1438260091447,1377.0
473,1438260091467,1377.0
474,1438260091487,1378.0
475,1438260091507,1378.0
476,1438260091527,1379.0
477,1438260091547,1379.0
478,1438260091567,1378.0
479,1438260091587,1378.0
480,1438260091607,1379.0
481,1438260091627,1379.0
482,1438260091647,1377.0
483,1438260091667,1377.0
484,1438260091687,1375.0
485,1438260091707,1375.0
486,1438260091727,1373.0
487,1438260091747,1373.0
488,1438260091767,1373.0
489,1438260091787,1371.0
490,1438260091808,1371.0
491,1438260091828,1370.0
492,1438260091848,1370.0
493,1438260091868,1369.0
494,1438260091887,1369.0
495,1438260091907,1370.0
496,1438260091927,1370.0
497,1438260091947,1370.0
498,1438260091967,1370.0
499,1438260091987,1368.0
500,1438260092008,1366.0
501,1438260092028,1366.0
502,1438260092048,1365.0
503,1438260092068,1365.0
504,1438260092088,1365.0
505,1438260092108,1365.0
506,1438260092128,1366.0
507,1438260092148,1366.0
508,1438260092168,1365.0
509,1438260092188,1365.0
510,1438260092208,1365.0
511,1438260092228,1365.0
512,1438260092248,1364.0
513,1438260092268,1364.0
514,1438260092288,1363.0
515,1438260092308,1361.0
516,1438260092328,1361.0
517,1438260092349,1360.0
518,1438260092369,1360.0
519,1438260092388,1361.0
520,1438260092408,1361.0
521,1438260092428,1360.0
522,1438260092448,1360.0
523,1438260092468,1359.0
524,1438260092488,1359.0
525,1438260092508,1356.0
526,1438260092528,1356.0
527,1438260092548,1355.0
528,1438260092568,1355.0
529,1438260092588,1352.0
530,1438260092608,1349.0
531,1438260092629,1349.0
532,1438260092648,1348.0
533,1438260092669,1348.0
534,1438260092688,1346.0
535,1438260092709,1346.0
536,1438260092728,1342.0
537,1438260092748,1342.0
538,1438260092768,1340.0
539,1438260092788,1340.0
540,1438260092808,1334.0
541,1438260092828,1334.0
542,1438260092849,1331.0
543,1438260092870,1331.0
544,1438260092890,1325.0
545,1438260092909,1322.0
546,1438260092929,1322.0
547,1438260092948,1316.0
548,1438260092968,1316.0
549,1438260092988,1309.0
550,1438260093008,1309.0
551,1438260093028,1304.0
552,1438260093048,1304.0
553,1438260093068,1297.0
554,1438260093089,1297.0
555,1438260093109,1291.0
556,1438260093129,1291.0
557,1438260093149,1282.0
558,1438260093169,1282.0
559,1438260093189,1275.0
560,1438260093209,1264.0
561,1438260093229,1264.0
562,1438260093249,1254.0
563,1438260093269,1254.0
564,1438260093289,1244.0
565,1438260093309,1244.0
566,1438260093329,1234.0
567,1438260093349,1234.0
568,1438260093369,1225.0
569,1438260093389,1225.0
570,1438260093409,1212.0
571,1438260093429,1212.0
572,1438260093449,1200.0
573,1438260093469,1200.0
574,1438260093489,1188.0
575,1438260093509,1175.0
576,1438260093529,1175.0
577,1438260093549,1163.0
578,1438260093569,1163.0
579,1438260093589,1149.0
580,1438260093609,1149.0
581,1438260093629,1136.0
582,1438260093649,1136.0
583,1438260093669,1121.0
584,1438260093689,1121.0
585,1438260093709,1105.0
586,1438260093729,1105.0
587,1438260093749,1089.0
588,1438260093769,1074.0
589,1438260093789,1074.0
590,1438260093809,1059.0
591,1438260093829,1059.0
592,1438260093849,1042.0
593,1438260093869,1042.0
594,1438260093889,1026.0
595,1438260093909,1026.0
596,1438260093929,1009.0
597,1438260093950,1009.0
598,1438260093970,994.0
599,1438260093990,994.0
600,1438260094010,977.0
601,1438260094029,977.0
602,1438260094049,963.0
603,1438260094070,945.0
604,1438260094089,945.0
605,1438260094110,928.0
606,1438260094130,928.0
607,1438260094150,912.0
608,1438260094170,912.0
609,1438260094190,894.0
610,1438260094210,894.0
611,1438260094230,878.0
612,1438260094250,878.0
613,1438260094270,861.0
614,1438260094290,861.0
615,1438260094310,844.0
616,1438260094330,844.0
617,1438260094350,825.0
618,1438260094370,808.0
619,1438260094390,808.0
620,1438260094410,792.0
621,1438260094430,792.0
622,1438260094450,774.0
623,1438260094472,774.0
624,1438260094490,756.0
625,1438260094510,756.0
626,1438260094530,739.0
627,1438260094550,739.0
628,1438260094570,721.0
629,1438260094590,721.0
630,1438260094610,704.0
631,1438260094630,704.0
632,1438260094650,687.0
633,1438260094670,671.0
634,1438260094690,671.0
635,1438260094710,653.0
636,1438260094730,653.0
637,1438260094750,636.0
638,1438260094770,636.0
639,1438260094790,619.0
640,1438260094810,619.0
641,1438260094830,603.0
642,1438260094850,603.0
643,1438260094870,586.0
644,1438260094890,586.0
645,1438260094910,570.0
646,1438260094930,570.0
647,1438260094950,554.0
648,1438260094970,538.0
649,1438260094991,538.0
650,1438260095011,522.0
651,1438260095031,522.0
652,1438260095050,506.0
653,1438260095070,506.0
654,1438260095090,491.0
655,1438260095110,491.0
656,1438260095130,475.0
657,1438260095150,475.0
658,1438260095170,458.0
659,1438260095190,458.0
660,1438260095211,443.0
661,1438260095231,428.0
662,1438260095251,428.0
663,1438260095271,413.0
664,1438260095291,413.0
665,1438260095311,399.0
666,1438260095331,399.0
667,1438260095351,384.0
668,1438260095371,384.0
669,1438260095391,370.0
670,1438260095411,370.0
671,1438260095431,356.0
672,1438260095451,356.0
673,1438260095471,342.0
674,1438260095491,342.0
675,1438260095511,328.0
676,1438260095531,315.0
677,1438260095561,315.0
678,1438260095571,302.0
679,1438260095591,302.0
680,1438260095611,289.0
681,1438260095631,289.0
682,1438260095651,276.0
683,1438260095671,276.0
684,1438260095691,263.0
685,1438260095711,263.0
686,1438260095731,251.0
687,1438260095751,251.0
688,1438260095771,239.0
689,1438260095791,239.0
690,1438260095811,228.0
691,1438260095831,217.0
692,1438260095851,217.0
693,1438260095871,206.0
694,1438260095891,206.0
695,1438260095911,196.0
696,1438260095931,196.0
697,1438260095951,186.0
698,1438260095971,186.0
699,1438260095991,177.0
700,1438260096011,177.0
701,1438260096031,168.0
702,1438260096051,168.0
703,1438260096072,160.0
704,1438260096092,160.0
705,1438260096112,152.0
706,1438260096131,145.0
707,1438260096151,145.0
708,1438260096172,138.0
709,1438260096191,138.0
710,1438260096212,131.0
711,1438260096232,131.0
712,1438260096252,125.0
713,1438260096272,125.0
714,1438260096292,119.0
715,1438260096312,119.0
716,1438260096332,113.0
717,1438260096352,113.0
718,1438260096372,108.0
719,1438260096392,108.0
720,1438260096412,103.0
721,1438260096432,98.0
722,1438260096452,98.0
723,1438260096472,94.0
724,1438260096492,94.0
725,1438260096512,90.0
726,1438260096532,90.0
727,1438260096552,87.0
728,1438260096572,87.0
729,1438260096592,84.0
730,1438260096612,84.0
731,1438260096632,81.0
732,1438260096652,81.0
733,1438260096672,78.0
734,1438260096692,75.0
735,1438260096712,75.0
736,1438260096732,73.0
737,1438260096752,73.0
738,1438260096772,71.0
739,1438260096792,71.0
740,1438260096812,69.0
741,1438260096832,69.0
742,1438260096852,67.0
743,1438260096872,67.0
744,1438260096892,66.0
745,1438260096912,66.0
746,1438260096932,64.0
747,1438260096952,64.0
748,1438260096972,63.0
749,1438260096992,61.0
750,1438260097012,61.0
751,1438260097032,60.0
752,1438260097052,60.0
753,1438260097072,59.0
754,1438260097092,59.0
755,1438260097112,58.0
756,1438260097132,58.0
757,1438260097153,57.0
758,1438260097173,57.0
759,1438260097193,57.0
760,1438260097213,57.0
761,1438260097233,56.0
762,1438260097253,56.0
763,1438260097273,55.0
764,1438260097293,54.0
765,1438260097313,54.0
766,1438260097333,53.0
767,1438260097353,53.0
768,1438260097373,53.0
769,1438260097393,53.0
770,1438260097413,52.0
771,1438260097433,52.0
772,1438260097453,51.0
773,1438260097473,51.0
774,1438260097493,51.0
775,1438260097513,51.0
776,1438260097533,50.0
777,1438260097554,50.0
778,1438260097573,50.0
779,1438260097593,49.0
780,1438260097613,49.0
781,1438260097633,49.0
782,1438260097653,49.0
783,1438260097673,49.0
784,1438260097693,49.0
785,1438260097713,48.0
786,1438260097733,48.0
787,1438260097753,48.0
788,1438260097773,48.0
789,1438260097793,48.0
790,1438260097813,48.0
791,1438260097833,48.0
792,1438260097853,48.0
793,1438260097873,47.0
794,1438260097893,47.0
795,1438260097913,47.0
796,1438260097933,47.0
797,1438260097953,47.0
798,1438260097973,47.0
799,1438260097993,47.0
800,1438260098013,47.0
801,1438260098033,47.0
802,1438260098053,47.0
803,1438260098073,47.0
804,1438260098093,47.0
805,1438260098113,47.0
806,1438260098133,47.0
807,1438260098153,46.0
808,1438260098173,46.0
809,1438260098194,46.0
810,1438260098214,46.0
811,1438260098234,46.0
812,1438260098254,46.0
813,1438260098274,46.0
814,1438260098294,46.0
815,1438260098314,46.0
816,1438260098334,46.0
817,1438260098354,46.0
818,1438260098374,46.0
819,1438260098394,46.0
820,1438260098414,46.0
821,1438260098434,46.0
822,1438260098454,46.0
823,1438260098474,46.0
