id,attr_time,attr_light
1,1438260082023,654.0
2,1438260082042,654.0
3,1438260082061,654.0
4,1438260082081,654.0
5,1438260082102,655.0
6,1438260082124,655.0
7,1438260082141,655.0
8,1438260082164,655.0
9,1438260082181,656.0
10,1438260082201,655.0
11,1438260082227,655.0
12,1438260082295,655.0
13,1438260082296,655.0
14,1438260082299,654.0
15,1438260082304,654.0
16,1438260082320,654.0
17,1438260082341,654.0
18,1438260082360,654.0
19,1438260082381,654.0
20,1438260082400,654.0
21,1438260082421,654.0
22,1438260082443,655.0
23,1438260082461,655.0
24,1438260082481,656.0
25,1438260082501,656.0
26,1438260082522,656.0
27,1438260082541,656.0
28,1438260082564,656.0
29,1438260082584,657.0
30,1438260082601,657.0
31,1438260082623,657.0
32,1438260082644,657.0
33,1438260082664,656.0
34,1438260082686,656.0
35,1438260082702,657.0
36,1438260082727,657.0
37,1438260082741,656.0
38,1438260082788,656.0
39,1438260082789,657.0
40,1438260082801,657.0
41,1438260082821,657.0
42,1438260082841,657.0
43,1438260082861,657.0
44,1438260082881,657.0
45,1438260082901,657.0
46,1438260082921,657.0
47,1438260082941,658.0
48,1438260082961,657.0
49,1438260082986,657.0
50,1438260083001,657.0
51,1438260083021,657.0
52,1438260083041,658.0
53,1438260083061,658.0
54,1438260083081,656.0
55,1438260083105,656.0
56,1438260083121,656.0
57,1438260083144,656.0
58,1438260083161,655.0
59,1438260083181,655.0
60,1438260083202,657.0
61,1438260083221,657.0
62,1438260083258,657.0
63,1438260083261,657.0
64,1438260083281,657.0
65,1438260083301,657.0
66,1438260083323,659.0
67,1438260083345,659.0
68,1438260083362,657.0
69,1438260083385,657.0
70,1438260083402,657.0
71,1438260083426,657.0
72,1438260083445,657.0
73,1438260083463,658.0
74,1438260083485,658.0
75,1438260083502,658.0
76,1438260083525,658.0
77,1438260083543,657.0
78,1438260083565,657.0
79,1438260083585,657.0
80,1438260083603,657.0
81,1438260083623,659.0
82,1438260083679,659.0
83,1438260083680,658.0
84,1438260083681,658.0
85,1438260083702,658.0
86,1438260083722,658.0
87,1438260083745,657.0
88,1438260083763,657.0
89,1438260083782,657.0
90,1438260083801,657.0
91,1438260083824,657.0
92,1438260083847,656.0
93,1438260083864,656.0
94,1438260083889,657.0
95,1438260083904,657.0
96,1438260083925,657.0
97,1438260083945,657.0
98,1438260083964,658.0
99,1438260083985,658.0
100,1438260084003,659.0
101,1438260084024,659.0
102,1438260084045,662.0
103,1438260084062,662.0
104,1438260084082,663.0
105,1438260084105,663.0
106,1438260084124,664.0
107,1438260084145,667.0
108,1438260084164,667.0
109,1438260084185,669.0
110,1438260084203,669.0
111,1438260084223,671.0
112,1438260084243,671.0
113,1438260084263,675.0
114,1438260084288,675.0
115,1438260084354,679.0
116,1438260084355,679.0
117,1438260084356,669.0
118,1438260084364,669.0
119,1438260084384,658.0
120,1438260084404,658.0
121,1438260084422,651.0
122,1438260084446,651.0
123,1438260084471,648.0
124,1438260084484,648.0
125,1438260084505,637.0
126,1438260084524,628.0
127,1438260084543,628.0
128,1438260084566,641.0
129,1438260084586,641.0
130,1438260084605,660.0
131,1438260084626,660.0
132,1438260084646,682.0
133,1438260084666,682.0
134,1438260084683,682.0
135,1438260084703,682.0
136,1438260084727,648.0
137,1438260084743,648.0
138,1438260084766,600.0
139,1438260084786,600.0
140,1438260084804,491.0
141,1438260084825,491.0
142,1438260084847,403.0
143,1438260084864,403.0
144,1438260084885,435.0
145,1438260084905,435.0
146,1438260084932,620.0
147,1438260084949,694.0
148,1438260084967,694.0
149,1438260084985,932.0
150,1438260085007,932.0
151,1438260085055,1154.0
152,1438260085057,1154.0
153,1438260085074,1210.0
154,1438260085083,1210.0
155,1438260085109,1241.0
156,1438260085125,1241.0
157,1438260085144,1246.0
158,1438260085166,1246.0
159,1438260085183,1057.0
160,1438260085206,1057.0
161,1438260085225,1046.0
162,1438260085244,1046.0
163,1438260085263,1136.0
164,1438260085285,1136.0
165,1438260085307,1359.0
166,1438260085326,1547.0
167,1438260085346,1547.0
168,1438260085366,1635.0
169,1438260085386,1635.0
170,1438260085407,1714.0
171,1438260085426,1714.0
172,1438260085446,1701.0
173,1438260085464,1701.0
174,1438260085486,1766.0
175,1438260085507,1766.0
176,1438260085527,1946.0
177,1438260085544,1946.0
178,1438260085566,2153.0
179,1438260085587,2153.0
180,1438260085607,2357.0
181,1438260085626,2357.0
182,1438260085647,2589.0
183,1438260085668,2589.0
184,1438260085687,2878.0
185,1438260085707,3033.0
186,1438260085726,3033.0
187,1438260085773,3191.0
188,1438260085774,3191.0
189,1438260085793,3438.0
190,1438260085804,3438.0
191,1438260085826,3615.0
192,1438260085845,3615.0
193,1438260085864,3725.0
194,1438260085892,3725.0
195,1438260085904,3819.0
196,1438260085924,3819.0
197,1438260085945,3905.0
198,1438260085964,3905.0
199,1438260085984,3951.0
200,1438260086007,3951.0
201,1438260086027,4040.0
202,1438260086047,4040.0
203,1438260086067,4411.0
204,1438260086087,4168.0
205,1438260086107,4168.0
206,1438260086127,4092.0
207,1438260086147,4092.0
208,1438260086167,4027.0
209,1438260086185,4027.0
210,1438260086204,4032.0
211,1438260086227,4032.0
212,1438260086249,4037.0
213,1438260086268,4037.0
214,1438260086289,3981.0
215,1438260086336,3981.0
216,1438260086337,3943.0
217,1438260086346,3943.0
218,1438260086366,3900.0
219,1438260086389,3900.0
220,1438260086409,3891.0
221,1438260086429,3891.0
222,1438260086447,3858.0
223,1438260086468,3858.0
224,1438260086519,3816.0
225,1438260086520,3655.0
226,1438260086537,3655.0
227,1438260086556,3562.0
228,1438260086565,3562.0
229,1438260086592,3449.0
230,1438260086604,3449.0
231,1438260086632,3346.0
232,1438260086655,3346.0
233,1438260086664,3286.0
234,1438260086685,3286.0
235,1438260086704,3039.0
236,1438260086724,3039.0
237,1438260086748,2818.0
238,1438260086768,2818.0
239,1438260086788,2752.0
240,1438260086808,2752.0
241,1438260086827,2729.0
242,1438260086846,2729.0
243,1438260086865,2688.0
244,1438260086888,2450.0
245,1438260086918,2450.0
246,1438260086928,2314.0
247,1438260086946,2314.0
248,1438260086966,2425.0
249,1438260086988,2425.0
250,1438260087007,2433.0
251,1438260087028,2433.0
252,1438260087048,2469.0
253,1438260087068,2469.0
254,1438260087088,2482.0
255,1438260087109,2482.0
256,1438260087125,2363.0
257,1438260087145,2363.0
258,1438260087168,2263.0
259,1438260087234,2263.0
260,1438260087235,2619.0
261,1438260087236,2619.0
262,1438260087256,2650.0
263,1438260087266,2628.0
264,1438260087291,2628.0
265,1438260087307,2603.0
266,1438260087328,2603.0
267,1438260087348,2503.0
268,1438260087366,2503.0
269,1438260087387,2520.0
270,1438260087406,2520.0
271,1438260087428,2443.0
272,1438260087445,2443.0
273,1438260087468,2385.0
274,1438260087488,2385.0
275,1438260087508,2456.0
276,1438260087528,2456.0
277,1438260087549,2340.0
278,1438260087569,2340.0
279,1438260087589,2248.0
280,1438260087609,2248.0
281,1438260087628,2230.0
282,1438260087647,2230.0
283,1438260087668,2261.0
284,1438260087686,2308.0
285,1438260087707,2308.0
286,1438260087727,2293.0
287,1438260087751,2293.0
288,1438260087771,2099.0
289,1438260087792,2099.0
290,1438260087809,1992.0
291,1438260087828,1992.0
292,1438260087850,2109.0
293,1438260087868,2109.0
294,1438260087969,2353.0
295,1438260087970,2353.0
296,1438260087971,2468.0
297,1438260087972,2468.0
298,1438260087973,2423.0
299,1438260087986,2423.0
300,1438260088012,2364.0
301,1438260088027,2364.0
302,1438260088047,2345.0
303,1438260088069,2288.0
304,1438260088087,2288.0
305,1438260088108,2185.0
306,1438260088129,2185.0
307,1438260088149,2097.0
308,1438260088167,2097.0
309,1438260088189,2076.0
310,1438260088209,2076.0
311,1438260088232,2077.0
312,1438260088249,2077.0
313,1438260088269,2054.0
314,1438260088288,2054.0
315,1438260088309,2023.0
316,1438260088329,2023.0
317,1438260088349,1953.0
318,1438260088366,1953.0
319,1438260088389,1885.0
320,1438260088410,1885.0
321,1438260088429,1862.0
322,1438260088450,1852.0
323,1438260088470,1852.0
324,1438260088489,1843.0
325,1438260088508,1843.0
326,1438260088528,1832.0
327,1438260088550,1832.0
328,1438260088570,1812.0
329,1438260088590,1812.0
330,1438260088606,1796.0
331,1438260088627,1796.0
332,1438260088694,1780.0
333,1438260088695,1780.0
334,1438260088696,1755.0
335,1438260088713,1755.0
336,1438260088728,1730.0
337,1438260088749,1730.0
338,1438260088766,1721.0
339,1438260088787,1721.0
340,1438260088807,1722.0
341,1438260088827,1727.0
342,1438260088849,1727.0
343,1438260088869,1728.0
344,1438260088892,1728.0
345,1438260088908,1731.0
346,1438260088928,1731.0
347,1438260088949,1735.0
348,1438260088970,1735.0
349,1438260088990,1741.0
350,1438260089010,1741.0
351,1438260089030,1741.0
352,1438260089050,1741.0
353,1438260089070,1739.0
354,1438260089090,1739.0
355,1438260089108,1739.0
356,1438260089133,1739.0
357,1438260089153,1741.0
358,1438260089173,1741.0
359,1438260089192,1749.0
360,1438260089210,1749.0
361,1438260089227,1740.0
362,1438260089247,1728.0
363,1438260089267,1728.0
364,1438260089288,1733.0
365,1438260089313,1733.0
366,1438260089333,1740.0
367,1438260089349,1740.0
368,1438260089373,1740.0
369,1438260089422,1740.0
370,1438260089423,1746.0
371,1438260089440,1746.0
372,1438260089447,1737.0
373,1438260089476,1737.0
374,1438260089489,1724.0
375,1438260089507,1724.0
376,1438260089529,1713.0
377,1438260089549,1713.0
378,1438260089569,1704.0
379,1438260089589,1704.0
380,1438260089609,1699.0
381,1438260089631,1700.0
382,1438260089647,1700.0
383,1438260089677,1698.0
384,1438260089688,1698.0
385,1438260089709,1703.0
386,1438260089730,1703.0
387,1438260089750,1707.0
388,1438260089770,1707.0
389,1438260089790,1701.0
390,1438260089811,1701.0
391,1438260089830,1692.0
392,1438260089849,1692.0
393,1438260089869,1689.0
394,1438260089892,1689.0
395,1438260089908,1690.0
396,1438260089931,1690.0
397,1438260089953,1681.0
398,1438260089972,1681.0
399,1438260089991,1677.0
400,1438260090010,1682.0
401,1438260090030,1682.0
402,1438260090050,1689.0
403,1438260090069,1689.0
404,1438260090090,1696.0
405,1438260090142,1696.0
406,1438260090154,1701.0
407,1438260090155,1701.0
408,1438260090168,1690.0
409,1438260090190,1690.0
410,1438260090208,1676.0
411,1438260090230,1676.0
412,1438260090250,1680.0
413,1438260090272,1680.0
414,1438260090291,1686.0
415,1438260090309,1686.0
416,1438260090331,1689.0
417,1438260090349,1689.0
418,1438260090371,1674.0
419,1438260090391,1674.0
420,1438260090411,1648.0
421,1438260090431,1644.0
422,1438260090451,1644.0
423,1438260090471,1641.0
424,1438260090491,1641.0
425,1438260090512,1634.0
426,1438260090529,1634.0
427,1438260090551,1630.0
428,1438260090571,1630.0
429,1438260090591,1626.0
430,1438260090611,1626.0
431,1438260090632,1621.0
432,1438260090651,1621.0
433,1438260090679,1614.0
434,1438260090690,1614.0
435,1438260090711,1609.0
436,1438260090732,1609.0
437,1438260090752,1602.0
438,1438260090770,1602.0
439,1438260090792,1595.0
440,1438260090865,1590.0
441,1438260090870,1590.0
442,1438260090871,1590.0
443,1438260090872,1590.0
444,1438260090897,1590.0
445,1438260090911,1590.0
446,1438260090933,1580.0
447,1438260090974,1580.0
448,1438260090975,1575.0
449,1438260090999,1575.0
450,1438260091009,1578.0
451,1438260091029,1578.0
452,1438260091050,1582.0
453,1438260091072,1582.0
454,1438260091092,1570.0
455,1438260091112,1570.0
456,1438260091132,1577.0
457,1438260091150,1577.0
458,1438260091171,1579.0
459,1438260091192,1583.0
460,1438260091212,1583.0
461,1438260091232,1583.0
462,1438260091251,1583.0
463,1438260091270,1587.0
464,1438260091289,1587.0
465,1438260091311,1585.0
466,1438260091332,1585.0
467,1438260091352,1588.0
468,1438260091371,1588.0
469,1438260091390,1591.0
470,1438260091410,1591.0
471,1438260091430,1596.0
472,1438260091452,1596.0
473,1438260091471,1596.0
474,1438260091491,1596.0
475,1438260091510,1591.0
476,1438260091536,1591.0
477,1438260091583,1591.0
478,1438260091586,1597.0
479,1438260091600,1597.0
480,1438260091609,1603.0
481,1438260091632,1603.0
482,1438260091651,1603.0
483,1438260091669,1603.0
484,1438260091691,1604.0
485,1438260091710,1604.0
486,1438260091731,1605.0
487,1438260091751,1605.0
488,1438260091770,1606.0
489,1438260091791,1606.0
490,1438260091811,1607.0
491,1438260091833,1607.0
492,1438260091852,1604.0
493,1438260091871,1604.0
494,1438260091895,1600.0
495,1438260091911,1600.0
496,1438260091932,1593.0
497,1438260091949,1593.0
498,1438260091971,1584.0
499,1438260091991,1574.0
500,1438260092011,1574.0
501,1438260092033,1567.0
502,1438260092053,1567.0
503,1438260092071,1560.0
504,1438260092093,1560.0
505,1438260092112,1550.0
506,1438260092134,1550.0
507,1438260092157,1542.0
508,1438260092171,1542.0
509,1438260092191,1540.0
510,1438260092225,1540.0
511,1438260092235,1535.0
512,1438260092298,1535.0
513,1438260092299,1526.0
514,1438260092300,1526.0
515,1438260092312,1522.0
516,1438260092330,1522.0
517,1438260092350,1517.0
518,1438260092371,1506.0
519,1438260092390,1506.0
520,1438260092410,1502.0
521,1438260092441,1502.0
522,1438260092460,1497.0
523,1438260092470,1497.0
524,1438260092496,1488.0
525,1438260092511,1488.0
526,1438260092535,1478.0
527,1438260092550,1478.0
528,1438260092570,1472.0
529,1438260092591,1472.0
530,1438260092611,1462.0
531,1438260092634,1462.0
532,1438260092654,1452.0
533,1438260092674,1452.0
534,1438260092693,1439.0
535,1438260092711,1439.0
536,1438260092732,1428.0
537,1438260092754,1413.0
538,1438260092774,1413.0
539,1438260092794,1410.0
540,1438260092811,1410.0
541,1438260092834,1408.0
542,1438260092853,1408.0
543,1438260092873,1398.0
544,1438260092897,1398.0
545,1438260092911,1386.0
546,1438260092933,1386.0
547,1438260092951,1374.0
548,1438260092971,1374.0
549,1438260093001,1363.0
550,1438260093077,1363.0
551,1438260093078,1349.0
552,1438260093079,1349.0
553,1438260093080,1332.0
554,1438260093092,1332.0
555,1438260093155,1313.0
556,1438260093156,1297.0
557,1438260093157,1297.0
558,1438260093192,1280.0
559,1438260093223,1280.0
560,1438260093224,1263.0
561,1438260093254,1263.0
562,1438260093255,1242.0
563,1438260093277,1242.0
564,1438260093317,1226.0
565,1438260093318,1226.0
566,1438260093331,1207.0
567,1438260093352,1207.0
568,1438260093372,1185.0
569,1438260093392,1185.0
570,1438260093412,1164.0
571,1438260093433,1164.0
572,1438260093452,1150.0
573,1438260093472,1150.0
574,1438260093494,1130.0
575,1438260093512,1130.0
576,1438260093532,1109.0
577,1438260093550,1089.0
578,1438260093573,1089.0
579,1438260093594,1068.0
580,1438260093614,1068.0
581,1438260093633,1048.0
582,1438260093654,1048.0
583,1438260093674,1028.0
584,1438260093694,1028.0
585,1438260093715,1005.0
586,1438260093733,1005.0
587,1438260093753,982.0
588,1438260093773,982.0
589,1438260093793,958.0
590,1438260093812,958.0
591,1438260093865,937.0
592,1438260093873,937.0
593,1438260093874,914.0
594,1438260093904,914.0
595,1438260093913,891.0
596,1438260093934,868.0
597,1438260093953,868.0
598,1438260093972,847.0
599,1438260093996,847.0
600,1438260094012,823.0
601,1438260094033,823.0
602,1438260094054,801.0
603,1438260094073,801.0
604,1438260094095,783.0
605,1438260094114,783.0
606,1438260094135,763.0
607,1438260094152,763.0
608,1438260094174,743.0
609,1438260094194,743.0
610,1438260094215,724.0
611,1438260094234,724.0
612,1438260094254,704.0
613,1438260094275,704.0
614,1438260094293,685.0
615,1438260094315,666.0
616,1438260094366,666.0
617,1438260094367,647.0
618,1438260094375,647.0
619,1438260094392,626.0
620,1438260094412,626.0
621,1438260094432,606.0
622,1438260094461,606.0
623,1438260094474,587.0
624,1438260094497,587.0
625,1438260094517,568.0
626,1438260094533,568.0
627,1438260094686,548.0
628,1438260094687,548.0
629,1438260094688,527.0
630,1438260094689,527.0
631,1438260094690,510.0
632,1438260094691,510.0
633,1438260094692,492.0
634,1438260094774,492.0
635,1438260094775,476.0
636,1438260094776,463.0
637,1438260094777,463.0
638,1438260094778,446.0
639,1438260094812,446.0
640,1438260094813,429.0
641,1438260094833,429.0
642,1438260094852,414.0
643,1438260094873,414.0
644,1438260094895,398.0
645,1438260094916,398.0
646,1438260094935,382.0
647,1438260094955,382.0
648,1438260094975,367.0
649,1438260094996,367.0
650,1438260095016,352.0
651,1438260095036,352.0
652,1438260095056,337.0
653,1438260095076,337.0
654,1438260095092,321.0
655,1438260095116,306.0
656,1438260095135,306.0
657,1438260095156,292.0
658,1438260095173,292.0
659,1438260095196,278.0
660,1438260095216,278.0
661,1438260095236,264.0
662,1438260095252,264.0
663,1438260095276,250.0
664,1438260095296,250.0
665,1438260095313,236.0
666,1438260095335,236.0
667,1438260095363,223.0
668,1438260095414,223.0
669,1438260095415,212.0
670,1438260095416,212.0
671,1438260095433,200.0
672,1438260095454,200.0
673,1438260095475,189.0
674,1438260095493,180.0
675,1438260095516,180.0
676,1438260095534,170.0
677,1438260095555,170.0
678,1438260095574,161.0
679,1438260095597,161.0
680,1438260095620,152.0
681,1438260095636,152.0
682,1438260095656,143.0
683,1438260095676,143.0
684,1438260095697,135.0
685,1438260095716,135.0
686,1438260095736,128.0
687,1438260095757,128.0
688,1438260095773,121.0
689,1438260095797,121.0
690,1438260095813,115.0
691,1438260095836,115.0
692,1438260095856,109.0
693,1438260095878,103.0
694,1438260095898,103.0
695,1438260095917,98.0
696,1438260095936,98.0
697,1438260095956,93.0
698,1438260095976,93.0
699,1438260095997,89.0
700,1438260096017,89.0
701,1438260096037,86.0
702,1438260096055,86.0
703,1438260096075,83.0
704,1438260096123,83.0
705,1438260096124,80.0
706,1438260096134,80.0
707,1438260096154,77.0
708,1438260096183,77.0
709,1438260096195,74.0
710,1438260096214,74.0
711,1438260096237,71.0
712,1438260096254,71.0
713,1438260096277,69.0
714,1438260096295,67.0
715,1438260096342,67.0
716,1438260096343,65.0
717,1438260096356,65.0
718,1438260096376,64.0
719,1438260096397,64.0
720,1438260096416,62.0
721,1438260096436,62.0
722,1438260096455,61.0
723,1438260096476,61.0
724,1438260096497,60.0
725,1438260096517,60.0
726,1438260096534,59.0
727,1438260096557,59.0
728,1438260096578,58.0
729,1438260096597,58.0
730,1438260096617,57.0
731,1438260096637,57.0
732,1438260096656,56.0
733,1438260096677,55.0
734,1438260096698,55.0
735,1438260096717,55.0
736,1438260096738,55.0
737,1438260096758,54.0
738,1438260096777,54.0
739,1438260096807,53.0
740,1438260096816,53.0
741,1438260096880,53.0
742,1438260096881,53.0
743,1438260096882,52.0
744,1438260096905,52.0
745,1438260096916,51.0
746,1438260096936,51.0
747,1438260096957,51.0
748,1438260096974,51.0
749,1438260096998,50.0
750,1438260097014,50.0
751,1438260097036,49.0
752,1438260097057,49.0
753,1438260097076,49.0
754,1438260097095,49.0
755,1438260097118,49.0
756,1438260097135,48.0
757,1438260097158,48.0
758,1438260097178,48.0
759,1438260097196,48.0
760,1438260097218,48.0
761,1438260097238,48.0
762,1438260097258,47.0
763,1438260097278,47.0
764,1438260097295,47.0
765,1438260097316,47.0
766,1438260097336,46.0
767,1438260097357,46.0
768,1438260097377,46.0
769,1438260097398,46.0
770,1438260097417,46.0
771,1438260097437,46.0
772,1438260097456,46.0
773,1438260097477,46.0
774,1438260097499,46.0
775,1438260097518,46.0
776,1438260097535,46.0
777,1438260097556,46.0
778,1438260097604,46.0
779,1438260097605,46.0
780,1438260097615,46.0
781,1438260097647,46.0
782,1438260097655,46.0
783,1438260097684,45.0
784,1438260097698,45.0
785,1438260097717,45.0
786,1438260097737,45.0
787,1438260097756,45.0
788,1438260097776,45.0
789,1438260097797,45.0
790,1438260097816,45.0
791,1438260097837,45.0
792,1438260097856,45.0
793,1438260097877,45.0
794,1438260097896,45.0
795,1438260097917,45.0
796,1438260097936,44.0
797,1438260097958,44.0
798,1438260097978,44.0
799,1438260097998,44.0
800,1438260098016,44.0
801,1438260098046,44.0
802,1438260098062,44.0
803,1438260098078,44.0
804,1438260098096,44.0
805,1438260098116,44.0
806,1438260098176,44.0
807,1438260098177,44.0
808,1438260098178,44.0
809,1438260098217,44.0
810,1438260098218,44.0
811,1438260098616,44.0
812,1438260098617,44.0
813,1438260098618,44.0
814,1438260098619,44.0
815,1438260098620,44.0
816,1438260098621,44.0
817,1438260098622,44.0
818,1438260098623,44.0
819,1438260098624,44.0
820,1438260098690,44.0
821,1438260098691,44.0
822,1438260098692,44.0
823,1438260098693,43.0
824,1438260098694,43.0
