id,attr_time,attr_x,attr_y,attr_z
1,1436619017621,45.8878,-11.084,-11.9522
2,1436619017646,45.8878,-11.084,-11.9522
3,1436619017660,45.1874,-11.7874,-12.9623
4,1436619017684,45.3629,-11.2595,-13.8031
5,1436619017700,45.3629,-11.2595,-13.8031
6,1436619017724,45.8878,-11.7874,-13.9709
7,1436619017739,45.1874,-12.1384,-11.9522
8,1436619017764,45.1874,-12.1384,-11.9522
9,1436619017781,45.8878,-12.1384,-12.6251
10,1436619017803,45.7123,-11.6119,-12.4573
11,1436619017817,45.7123,-11.6119,-12.4573
12,1436619017843,46.0632,-13.0173,-11.7844
13,1436619017858,44.8364,-10.733,-13.298
14,1436619017881,44.8364,-10.733,-13.298
15,1436619017897,44.8364,-11.7874,-11.6165
16,1436619017918,44.6625,-10.2051,-11.7844
17,1436619017937,44.6625,-10.2051,-11.7844
18,1436619017961,45.0119,-10.9085,-13.4659
19,1436619017979,45.3629,-12.3154,-13.1302
20,1436619018001,45.3629,-12.3154,-13.1302
21,1436619018016,44.8364,-12.1384,-12.2894
22,1436619018043,45.3629,-10.9085,-12.4573
23,1436619018055,45.3629,-10.9085,-12.4573
24,1436619018080,45.7123,-11.2595,-12.793
25,1436619018095,45.1874,-11.084,-12.6251
26,1436619018119,45.1874,-11.084,-12.6251
27,1436619018133,44.6625,-11.6119,-13.1302
28,1436619018159,45.7123,-11.2595,-13.4659
29,1436619018172,45.7123,-11.2595,-13.4659
30,1436619018198,46.4142,-12.3154,-13.1302
31,1436619018213,46.4142,-12.3154,-12.1216
32,1436619018239,46.4142,-12.3154,-12.1216
33,1436619018252,45.0119,-12.6663,-12.793
34,1436619018276,45.7123,-12.6663,-12.793
35,1436619018291,45.7123,-12.6663,-12.793
36,1436619018316,45.0119,-13.7207,-12.793
37,1436619018331,44.8364,-12.1384,-11.9522
38,1436619018355,44.8364,-12.1384,-11.9522
39,1436619018371,45.1874,-11.7874,-12.6251
40,1436619018395,46.7636,-13.0173,-12.4573
41,1436619018410,46.7636,-13.0173,-12.4573
42,1436619018437,45.1874,-12.8418,-12.2894
43,1436619018448,44.6625,-11.2595,-12.1216
44,1436619018475,44.6625,-11.2595,-12.1216
45,1436619018489,45.3629,-12.3154,-11.7844
46,1436619018513,45.0119,-11.2595,-13.1302
47,1436619018529,45.0119,-11.2595,-13.1302
48,1436619018552,45.8878,-12.1384,-12.6251
49,1436619018568,45.5383,-11.084,-11.9522
50,1436619018592,45.5383,-11.084,-11.9522
51,1436619018609,44.6625,-11.9629,-12.1216
52,1436619018630,44.3115,-12.3154,-12.1216
53,1436619018647,44.3115,-12.3154,-12.1216
54,1436619018671,45.5383,-12.8418,-13.298
55,1436619018687,45.3629,-11.6119,-11.4487
56,1436619018712,45.3629,-11.6119,-11.4487
57,1436619018726,45.3629,-13.0173,-12.793
58,1436619018750,44.6625,-11.9629,-12.793
59,1436619018764,44.6625,-11.9629,-12.793
60,1436619018790,45.0119,-12.6663,-13.8031
61,1436619018807,43.2602,-11.2595,-11.1114
62,1436619018830,43.2602,-11.2595,-11.1114
63,1436619018845,44.487,-10.0296,-11.2808
64,1436619018868,44.8364,-11.7874,-11.9522
65,1436619018884,44.8364,-11.7874,-11.9522
66,1436619018910,44.6625,-12.6663,-12.793
67,1436619018924,44.136,-11.7874,-12.2894
68,1436619018949,44.136,-11.7874,-12.2894
69,1436619018963,45.5383,-13.5452,-12.9623
70,1436619018987,44.8364,-13.8962,-11.2808
71,1436619019003,44.8364,-13.8962,-11.2808
72,1436619019027,45.3629,-11.2595,-12.793
73,1436619019042,45.8878,-11.084,-12.2894
74,1436619019070,45.8878,-11.084,-12.2894
75,1436619019080,45.1874,-13.5452,-12.2894
76,1436619019106,44.8364,-12.4908,-12.2894
77,1436619019120,44.8364,-12.4908,-12.2894
78,1436619019146,44.8364,-12.1384,-12.9623
79,1436619019160,46.4142,-11.6119,-12.793
80,1436619019186,46.4142,-11.6119,-12.793
81,1436619019200,45.0119,-12.3154,-12.793
82,1436619019224,45.7123,-12.6663,-13.1302
83,1436619019239,45.7123,-12.6663,-13.1302
84,1436619019267,45.0119,-11.2595,-14.476
85,1436619019279,43.6111,-11.2595,-11.7844
86,1436619019304,43.6111,-11.2595,-11.7844
87,1436619019318,46.0632,-11.6119,-12.793
88,1436619019343,44.8364,-11.7874,-12.2894
89,1436619019358,44.8364,-11.7874,-12.2894
90,1436619019383,45.8878,-11.084,-13.6337
91,1436619019397,43.7851,-11.4365,-12.2894
92,1436619019423,43.7851,-11.4365,-12.2894
93,1436619019436,44.8364,-12.8418,-12.2894
94,1436619019461,46.5897,-12.4908,-10.9436
95,1436619019477,46.5897,-12.4908,-10.9436
96,1436619019501,45.5383,-12.1384,-13.298
97,1436619019516,45.5383,-11.7874,-12.9623
98,1436619019538,45.5383,-11.7874,-12.9623
99,1436619019556,44.136,-13.5452,-12.9623
100,1436619019579,43.9606,-11.2595,-11.7844
101,1436619019595,43.9606,-11.2595,-11.7844
102,1436619019618,45.8878,-13.1943,-13.6337
103,1436619019637,44.6625,-12.3154,-12.4573
104,1436619019659,44.6625,-12.3154,-12.4573
105,1436619019674,45.3629,-10.9085,-12.1216
106,1436619019697,45.8878,-12.1384,-12.6251
107,1436619019714,45.8878,-12.1384,-12.6251
108,1436619019737,45.3629,-11.9629,-12.1216
109,1436619019752,45.8878,-11.4365,-12.9623
110,1436619019778,45.8878,-11.4365,-12.9623
111,1436619019791,44.136,-11.7874,-12.6251
112,1436619019816,43.9606,-12.3154,-12.793
113,1436619019834,43.9606,-12.3154,-12.793
114,1436619019855,46.0632,-11.6119,-13.4659
115,1436619019871,45.7123,-10.2051,-13.4659
116,1436619019895,45.7123,-10.2051,-13.4659
117,1436619019911,45.0119,-11.6119,-13.4659
118,1436619019935,44.6625,-13.3698,-13.1302
119,1436619019950,44.6625,-13.3698,-13.1302
120,1436619019974,45.3629,-13.0173,-13.1302
121,1436619019990,44.6625,-10.2051,-12.4573
122,1436619020015,44.6625,-10.2051,-12.4573
123,1436619020030,44.136,-13.5452,-12.6251
124,1436619020054,45.1874,-10.733,-12.6251
125,1436619020068,45.1874,-10.733,-12.6251
126,1436619020094,45.8878,-11.7874,-12.6251
127,1436619020107,44.3115,-10.2051,-10.7758
128,1436619020133,44.3115,-10.2051,-10.7758
129,1436619020148,45.1874,-12.1384,-12.2894
130,1436619020172,45.1874,-13.8962,-11.9522
131,1436619020187,45.1874,-13.8962,-11.9522
132,1436619020211,45.1874,-11.7874,-11.9522
133,1436619020226,44.487,-12.4908,-11.9522
134,1436619020251,44.487,-12.4908,-11.9522
135,1436619020266,45.0119,-11.6119,-12.4573
136,1436619020289,44.487,-10.733,-11.9522
137,1436619020306,44.487,-10.733,-11.9522
138,1436619020330,45.7123,-11.9629,-12.1216
139,1436619020345,43.4357,-11.4365,-11.9522
140,1436619020369,43.4357,-11.4365,-11.9522
141,1436619020383,45.3629,-12.6663,-12.4573
142,1436619020408,45.1874,-11.084,-12.9623
143,1436619020423,45.1874,-11.084,-12.9623
144,1436619020448,44.8364,-10.733,-12.9623
145,1436619020467,45.1874,-11.7874,-11.9522
146,1436619020488,45.1874,-11.7874,-11.9522
147,1436619020503,44.8364,-13.5452,-11.2808
148,1436619020525,46.4142,-12.3154,-14.476
149,1436619020543,46.4142,-12.3154,-14.476
150,1436619020566,45.1874,-12.1384,-12.9623
151,1436619020582,44.3115,-11.6119,-12.4573
152,1436619020605,44.3115,-11.6119,-12.4573
153,1436619020621,45.1874,-13.1943,-13.298
154,1436619020646,45.8878,-13.1943,-12.9623
155,1436619020664,45.8878,-13.1943,-12.9623
156,1436619020685,44.8364,-11.7874,-12.2894
157,1436619020700,44.8364,-11.084,-12.6251
158,1436619020725,44.8364,-11.084,-12.6251
159,1436619020739,45.0119,-13.0173,-13.4659
160,1436619020763,46.0632,-12.6663,-11.7844
161,1436619020779,46.0632,-12.6663,-11.7844
162,1436619020804,46.0632,-13.0173,-12.793
163,1436619020819,44.3115,-10.5576,-13.1302
164,1436619020842,44.3115,-10.5576,-13.1302
165,1436619020861,45.5383,-13.8962,-12.9623
166,1436619020882,44.8364,-10.733,-12.9623
167,1436619020898,44.8364,-10.733,-12.9623
168,1436619020922,44.6625,-11.9629,-12.793
169,1436619020937,44.487,-13.1943,-13.6337
170,1436619020962,44.487,-13.1943,-13.6337
171,1436619020977,45.0119,-11.9629,-12.1216
172,1436619021001,44.6625,-12.3154,-13.1302
173,1436619021016,44.6625,-12.3154,-13.1302
174,1436619021041,44.6625,-11.6119,-12.1216
175,1436619021056,45.7123,-10.9085,-12.4573
176,1436619021081,45.7123,-10.9085,-12.4573
177,1436619021094,45.7123,-11.6119,-11.4487
178,1436619021120,46.2387,-12.1384,-11.9522
179,1436619021135,46.2387,-12.1384,-11.9522
180,1436619021157,46.4142,-11.9629,-12.793
181,1436619021174,45.3629,-12.6663,-11.7844
182,1436619021198,45.3629,-12.6663,-11.7844
183,1436619021214,44.487,-12.8418,-11.2808
184,1436619021238,45.8878,-12.8418,-13.6337
185,1436619021252,45.8878,-12.8418,-13.6337
186,1436619021277,45.0119,-11.6119,-12.4573
187,1436619021292,45.5383,-10.733,-11.6165
188,1436619021320,45.5383,-10.733,-11.6165
189,1436619021332,44.6625,-12.6663,-13.1302
190,1436619021355,46.2387,-12.8418,-11.9522
191,1436619021370,46.2387,-12.8418,-11.9522
192,1436619021395,43.6111,-11.6119,-12.4573
193,1436619021410,43.4357,-12.1384,-11.2808
194,1436619021436,43.4357,-12.1384,-11.2808
195,1436619021450,46.0632,-11.6119,-12.1216
196,1436619021474,45.7123,-11.6119,-12.1216
197,1436619021493,45.7123,-11.6119,-12.1216
198,1436619021515,44.3115,-13.7207,-14.1388
199,1436619021529,45.0119,-12.3154,-12.4573
200,1436619021554,45.0119,-12.3154,-12.4573
201,1436619021569,43.6111,-13.3698,-13.1302
202,1436619021590,45.5383,-13.8962,-12.2894
203,1436619021608,45.5383,-13.8962,-12.2894
204,1436619021633,45.8878,-12.4908,-11.6165
205,1436619021648,44.6625,-12.6663,-12.793
206,1436619021673,44.6625,-12.6663,-12.793
207,1436619021686,45.3629,-12.6663,-13.4659
208,1436619021711,44.3115,-12.6663,-13.4659
209,1436619021726,44.3115,-12.6663,-13.4659
210,1436619021751,44.6625,-12.6663,-13.8031
211,1436619021766,45.1874,-12.8418,-12.9623
212,1436619021788,45.1874,-12.8418,-12.9623
213,1436619021802,46.0632,-12.6663,-14.1388
214,1436619021827,44.3115,-12.3154,-15.4846
215,1436619021845,44.3115,-12.3154,-15.4846
216,1436619021870,42.9092,-11.2595,-17.8391
217,1436619021887,44.6625,-10.9085,-17.1661
218,1436619021909,44.6625,-10.9085,-17.1661
219,1436619021924,43.2602,-11.9629,-18.8477
220,1436619021949,43.7851,-10.3806,-18.6798
221,1436619021964,43.7851,-10.3806,-18.6798
222,1436619021988,45.5383,-10.3806,-20.0241
223,1436619022002,43.7851,-13.1943,-17.6697
224,1436619022028,43.7851,-13.1943,-17.6697
225,1436619022042,43.0847,-13.8962,-19.3527
226,1436619022067,44.8364,-13.1943,-18.6798
227,1436619022085,44.8364,-13.1943,-18.6798
228,1436619022107,42.9092,-15.1276,-18.1747
229,1436619022122,44.6625,-16.1819,-17.5018
230,1436619022148,44.6625,-16.1819,-17.5018
231,1436619022161,44.136,-18.1152,-16.3254
232,1436619022186,45.5383,-17.0609,-16.9983
233,1436619022200,45.5383,-17.0609,-16.9983
234,1436619022225,44.6625,-18.9941,-14.8117
235,1436619022240,42.7353,-19.5221,-13.298
236,1436619022265,42.7353,-19.5221,-13.298
237,1436619022279,43.7851,-18.8187,-13.298
238,1436619022302,44.487,-18.1152,-11.9522
239,1436619022319,44.487,-18.1152,-11.9522
240,1436619022344,44.3115,-19.3466,-12.4573
241,1436619022358,46.2387,-18.4677,-11.9522
242,1436619022384,46.2387,-18.4677,-11.9522
243,1436619022397,46.4142,-19.3466,-11.7844
244,1436619022421,46.5897,-19.5221,-10.9436
245,1436619022437,46.5897,-19.5221,-10.9436
246,1436619022461,46.7636,-19.3466,-9.09424
247,1436619022477,46.4142,-18.6432,-7.41272
248,1436619022501,46.4142,-18.6432,-7.41272
249,1436619022517,47.29,-18.8187,-8.58917
250,1436619022541,45.1874,-18.4677,-5.22614
251,1436619022556,45.1874,-18.4677,-5.22614
252,1436619022579,46.4142,-18.6432,-6.06689
253,1436619022595,45.5383,-17.0609,-3.20892
254,1436619022619,45.5383,-17.0609,-3.20892
255,1436619022635,44.3115,-18.6432,-2.70386
256,1436619022658,45.1874,-15.654,-3.88031
257,1436619022673,45.1874,-15.654,-3.88031
258,1436619022699,45.3629,-16.5329,-5.7312
259,1436619022714,45.1874,-16.3574,-7.24487
260,1436619022739,45.1874,-16.3574,-7.24487
261,1436619022754,45.0119,-16.1819,-9.76715
262,1436619022776,44.8364,-14.9521,-11.6165
263,1436619022792,44.8364,-14.9521,-11.6165
264,1436619022816,45.8878,-13.1943,-12.6251
265,1436619022832,45.1874,-12.4908,-11.2808
266,1436619022857,45.1874,-12.4908,-11.2808
267,1436619022872,46.7636,-11.9629,-14.1388
268,1436619022896,46.0632,-9.85413,-14.1388
269,1436619022914,46.0632,-9.85413,-14.1388
270,1436619022936,46.0632,-9.85413,-14.8117
271,1436619022951,45.8878,-9.32617,-14.6439
272,1436619022978,45.8878,-9.32617,-14.6439
273,1436619022989,43.0847,-10.733,-14.3066
274,1436619023015,46.2387,-9.32617,-13.298
275,1436619023029,46.2387,-9.32617,-13.298
276,1436619023054,44.3115,-10.5576,-14.1388
277,1436619023069,45.3629,-9.85413,-14.1388
278,1436619023094,45.3629,-9.85413,-14.1388
279,1436619023109,44.487,-11.084,-15.6525
280,1436619023132,45.1874,-12.8418,-13.9709
281,1436619023148,45.1874,-12.8418,-13.9709
282,1436619023173,44.6625,-13.3698,-12.793
283,1436619023188,46.5897,-13.8962,-11.2808
284,1436619023212,46.5897,-13.8962,-11.2808
285,1436619023227,44.8364,-14.9521,-11.9522
286,1436619023250,43.6111,-16.1819,-10.4401
287,1436619023266,43.6111,-16.1819,-10.4401
288,1436619023291,44.487,-16.3574,-11.6165
289,1436619023304,44.3115,-14.7751,-13.4659
290,1436619023331,44.3115,-14.7751,-13.4659
291,1436619023346,44.8364,-16.3574,-13.298
292,1436619023369,44.8364,-15.303,-14.3066
293,1436619023385,44.8364,-15.303,-14.3066
294,1436619023410,45.3629,-15.1276,-16.4932
295,1436619023424,43.4357,-12.8418,-17.334
296,1436619023448,43.4357,-12.8418,-17.334
297,1436619023464,44.3115,-16.5329,-17.1661
298,1436619023487,43.7851,-18.4677,-14.9796
299,1436619023504,43.7851,-18.4677,-14.9796
300,1436619023528,44.487,-20.5765,-13.9709
301,1436619023544,42.3843,-22.3343,-12.9623
302,1436619023568,42.3843,-22.3343,-12.9623
303,1436619023583,42.2089,-24.6201,-10.4401
304,1436619023606,42.3843,-22.3343,-8.92639
305,1436619023622,42.3843,-22.3343,-8.92639
306,1436619023645,44.8364,-24.0921,-5.89905
307,1436619023660,45.0119,-21.4554,-4.72107
308,1436619023686,45.0119,-21.4554,-4.72107
309,1436619023701,46.5897,-22.6852,-6.90765
310,1436619023724,46.5897,-19.1696,-7.24487
311,1436619023741,46.5897,-19.1696,-7.24487
312,1436619023764,44.6625,-16.8854,-8.42133
313,1436619023779,45.7123,-14.0732,-10.1028
314,1436619023805,45.7123,-14.0732,-10.1028
315,1436619023819,44.8364,-12.4908,-12.9623
316,1436619023844,44.8364,-9.67865,-15.3168
317,1436619023859,44.8364,-9.67865,-15.3168
318,1436619023883,45.5383,-7.21741,-16.9983
319,1436619023898,44.487,-6.51398,-19.3527
320,1436619023923,44.487,-6.51398,-19.3527
321,1436619023939,45.5383,-4.75616,-20.697
322,1436619023962,44.6625,-2.11945,-21.2021
323,1436619023976,44.6625,-2.11945,-21.2021
324,1436619024004,43.4357,-2.29492,-22.3785
325,1436619024017,43.9606,0.692749,-21.2021
326,1436619024042,43.9606,0.692749,-21.2021
327,1436619024056,42.0334,2.27509,-21.0342
328,1436619024079,43.4357,0.166321,-23.3887
329,1436619024095,43.4357,0.166321,-23.3887
330,1436619024119,43.7851,0.868225,-22.0428
331,1436619024138,44.8364,-0.537109,-21.3699
332,1436619024160,44.8364,-0.537109,-21.3699
333,1436619024175,45.0119,-3.52631,-18.8477
334,1436619024202,45.1874,-6.16303,-18.6798
335,1436619024214,45.1874,-6.16303,-18.6798
336,1436619024239,46.2387,-8.62274,-15.6525
337,1436619024254,45.1874,-12.4908,-13.6337
338,1436619024279,45.1874,-12.4908,-13.6337
339,1436619024292,43.9606,-16.5329,-11.1114
340,1436619024317,45.3629,-18.9941,-8.75702
341,1436619024331,45.3629,-18.9941,-8.75702
342,1436619024357,44.487,-18.8187,-7.91626
343,1436619024372,43.6111,-18.9941,-7.41272
344,1436619024398,43.6111,-18.9941,-7.41272
345,1436619024412,45.0119,-18.9941,-8.08563
346,1436619024435,45.3629,-17.5888,-11.7844
347,1436619024451,45.3629,-17.5888,-11.7844
348,1436619024474,45.3629,-17.5888,-13.4659
349,1436619024491,43.9606,-18.2907,-13.8031
350,1436619024515,43.9606,-18.2907,-13.8031
351,1436619024530,42.0334,-20.5765,-11.2808
352,1436619024554,41.684,-23.0377,-9.26209
353,1436619024570,41.684,-23.0377,-9.26209
354,1436619024594,42.0334,-26.5533,-6.23474
355,1436619024607,41.1575,-27.0798,-4.04968
356,1436619024634,41.1575,-27.0798,-4.04968
357,1436619024648,39.7568,-28.8376,-2.70386
358,1436619024672,42.3843,-25.1465,0.491333
359,1436619024688,42.3843,-25.1465,0.491333
360,1436619024712,43.6111,-25.322,-1.35803
361,1436619024727,44.3115,-20.752,-1.35803
362,1436619024751,44.3115,-20.752,-1.35803
363,1436619024767,45.0119,-19.6976,-3.03955
364,1436619024790,46.9391,-16.7099,-6.57196
365,1436619024807,46.9391,-16.7099,-6.57196
366,1436619024831,46.7636,-13.3698,-8.75702
367,1436619024846,46.4142,-9.85413,-10.4401
368,1436619024871,46.4142,-9.85413,-10.4401
369,1436619024885,46.0632,-5.98602,-16.8289
370,1436619024910,46.0632,-4.58069,-16.8289
371,1436619024921,46.0632,-4.58069,-16.8289
372,1436619024949,45.1874,-1.24054,-18.3426
373,1436619024964,43.4357,2.62604,-20.697
374,1436619024989,43.4357,2.62604,-20.697
375,1436619025004,43.4357,0.868225,-22.0428
376,1436619025031,43.0847,2.97852,-22.3785
377,1436619025043,43.0847,2.97852,-22.3785
378,1436619025066,43.4357,5.08728,-23.0515
379,1436619025083,41.684,4.38385,-21.0342
380,1436619025108,41.684,4.38385,-21.0342
381,1436619025122,42.9092,3.85742,-21.2021
382,1436619025147,43.9606,2.80304,-20.8649
383,1436619025162,43.9606,2.80304,-20.8649
384,1436619025186,44.136,1.92413,-20.697
385,1436619025200,45.3629,-1.06506,-18.8477
386,1436619025229,45.3629,-1.06506,-18.8477
387,1436619025241,43.2602,-5.28412,-17.5018
388,1436619025265,45.0119,-10.9085,-13.8031
389,1436619025279,45.0119,-10.9085,-13.8031
390,1436619025305,46.7636,-15.831,-10.4401
391,1436619025319,43.7851,-16.7099,-7.91626
392,1436619025345,43.7851,-16.7099,-7.91626
393,1436619025359,41.8594,-21.4554,-6.06689
394,1436619025381,42.9092,-24.6201,-2.70386
395,1436619025399,42.9092,-24.6201,-2.70386
396,1436619025422,42.2089,-24.971,-2.03094
397,1436619025438,40.2817,-25.8499,-2.53601
398,1436619025463,40.2817,-25.8499,-2.53601
399,1436619025478,40.1062,-26.0254,-2.70386
400,1436619025501,40.9821,-27.6077,-3.20892
401,1436619025517,40.9821,-27.6077,-3.20892
402,1436619025541,40.4572,-26.0254,-5.05829
403,1436619025557,40.9821,-25.8499,-6.90765
404,1436619025581,40.9821,-25.8499,-6.90765
405,1436619025597,41.684,-25.499,-5.89905
406,1436619025619,41.5085,-25.6744,-4.38538
407,1436619025635,41.5085,-25.6744,-4.38538
408,1436619025660,39.4058,-27.7832,-1.69525
409,1436619025675,39.9323,-27.2568,-1.19019
410,1436619025698,39.9323,-27.2568,-1.19019
411,1436619025715,40.8081,-25.322,0.323486
412,1436619025738,42.7353,-25.1465,-0.517273
413,1436619025754,42.7353,-25.1465,-0.517273
414,1436619025778,43.6111,-22.5098,-2.70386
415,1436619025794,46.4142,-18.6432,-2.36816
416,1436619025818,46.4142,-18.6432,-2.36816
417,1436619025833,46.0632,-17.9398,-2.03094
418,1436619025856,45.8878,-13.8962,-3.88031
419,1436619025873,45.8878,-13.8962,-3.88031
420,1436619025896,46.5897,-11.4365,-3.88031
421,1436619025911,45.1874,-8.97522,-6.57196
422,1436619025937,45.1874,-8.97522,-6.57196
423,1436619025951,44.6625,-7.39288,-9.09424
424,1436619025976,46.5897,-4.05273,-10.9436
425,1436619025994,46.5897,-4.05273,-10.9436
426,1436619026016,45.8878,-1.59149,-12.2894
427,1436619026030,45.0119,1.39618,-14.1388
428,1436619026057,45.0119,1.39618,-14.1388
429,1436619026070,42.9092,1.39618,-14.1388
430,1436619026094,44.487,3.32947,-16.3254
431,1436619026109,44.487,3.32947,-16.3254
432,1436619026134,41.5085,5.26276,-16.8289
433,1436619026149,43.6111,8.07648,-17.5018
434,1436619026174,43.6111,8.07648,-17.5018
435,1436619026188,43.7851,7.19757,-18.0069
436,1436619026213,41.5085,8.42743,-16.4932
437,1436619026226,41.5085,8.42743,-16.4932
438,1436619026253,43.4357,6.14166,-16.9983
439,1436619026266,44.487,4.0329,-13.298
440,1436619026292,44.487,4.0329,-13.298
441,1436619026307,45.5383,2.62604,-13.6337
442,1436619026330,46.0632,-0.712585,-11.4487
443,1436619026346,46.0632,-0.712585,-11.4487
444,1436619026370,46.2387,-7.21741,-10.9436
445,1436619026386,45.7123,-10.5576,-6.40411
446,1436619026411,45.7123,-10.5576,-6.40411
447,1436619026425,45.7123,-13.7207,-4.38538
448,1436619026450,45.3629,-14.0732,-4.04968
449,1436619026465,45.3629,-14.0732,-4.04968
450,1436619026489,43.7851,-16.0065,-2.53601
451,1436619026504,44.6625,-17.9398,1.33209
452,1436619026528,44.6625,-17.9398,1.33209
453,1436619026544,44.136,-20.2255,-1.5274
454,1436619026567,43.2602,-20.752,-1.02234
455,1436619026582,43.2602,-20.752,-1.02234
456,1436619026607,44.3115,-20.752,-1.35803
457,1436619026624,43.2602,-21.1044,0.996399
458,1436619026647,43.2602,-21.1044,0.996399
459,1436619026662,41.684,-24.0921,-1.8631
