id,attr_time,attr_light
1,1435996968010,6.0
2,1435996968031,6.0
3,1435996968052,6.0
4,1435996968073,6.0
5,1435996968093,6.0
6,1435996968113,6.0
7,1435996968131,6.0
8,1435996968149,6.0
9,1435996968170,6.0
10,1435996968229,6.0
11,1435996968230,6.0
12,1435996968231,6.0
13,1435996968250,6.0
14,1435996968277,6.0
15,1435996968296,6.0
16,1435996968311,6.0
17,1435996968332,6.0
18,1435996968351,6.0
19,1435996968370,6.0
20,1435996968394,6.0
21,1435996968411,6.0
22,1435996968430,6.0
23,1435996968454,6.0
24,1435996968473,6.0
25,1435996968492,6.0
26,1435996968510,6.0
27,1435996968531,6.0
28,1435996968552,6.0
29,1435996968574,6.0
30,1435996968593,6.0
31,1435996968613,6.0
32,1435996968638,6.0
33,1435996968654,6.0
34,1435996968673,6.0
35,1435996968691,6.0
36,1435996968710,6.0
37,1435996968731,6.0
38,1435996968753,6.0
39,1435996968774,6.0
40,1435996968793,6.0
41,1435996968810,6.0
42,1435996968833,6.0
43,1435996968851,6.0
44,1435996968870,6.0
45,1435996968891,6.0
46,1435996968911,6.0
47,1435996968967,6.0
48,1435996968968,6.0
49,1435996968971,6.0
50,1435996968992,6.0
51,1435996969012,6.0
52,1435996969034,6.0
53,1435996969051,6.0
54,1435996969073,6.0
55,1435996969093,6.0
56,1435996969112,6.0
57,1435996969132,6.0
58,1435996969151,6.0
59,1435996969177,6.0
60,1435996969193,6.0
61,1435996969214,6.0
62,1435996969235,6.0
63,1435996969254,6.0
64,1435996969273,6.0
65,1435996969292,6.0
66,1435996969311,6.0
67,1435996969333,6.0
68,1435996969354,6.0
69,1435996969375,6.0
70,1435996969391,6.0
71,1435996969414,6.0
72,1435996969435,6.0
73,1435996969455,6.0
74,1435996969476,6.0
75,1435996969498,6.0
76,1435996969515,6.0
77,1435996969534,6.0
78,1435996969554,6.0
79,1435996969575,6.0
80,1435996969602,6.0
81,1435996969614,6.0
82,1435996969637,6.0
83,1435996969651,6.0
84,1435996969721,6.0
85,1435996969722,6.0
86,1435996969725,6.0
87,1435996969731,6.0
88,1435996969754,6.0
89,1435996969777,6.0
90,1435996969793,6.0
91,1435996969812,6.0
92,1435996969831,6.0
93,1435996969851,6.0
94,1435996969873,6.0
95,1435996969893,6.0
96,1435996969912,6.0
97,1435996969935,6.0
98,1435996969955,6.0
99,1435996969974,6.0
100,1435996969993,6.0
101,1435996970011,6.0
102,1435996970033,6.0
103,1435996970055,6.0
104,1435996970075,6.0
105,1435996970095,6.0
106,1435996970116,6.0
107,1435996970137,6.0
108,1435996970153,6.0
109,1435996970173,6.0
110,1435996970195,6.0
111,1435996970217,6.0
112,1435996970276,6.0
113,1435996970277,6.0
114,1435996970278,6.0
115,1435996970293,6.0
116,1435996970312,6.0
117,1435996970335,6.0
118,1435996970355,6.0
119,1435996970373,6.0
120,1435996970393,6.0
121,1435996970461,6.0
122,1435996970462,6.0
123,1435996970463,6.0
124,1435996970497,6.0
125,1435996970498,6.0
126,1435996970512,6.0
127,1435996970532,6.0
128,1435996970560,6.0
129,1435996970575,6.0
130,1435996970617,6.0
131,1435996970618,6.0
132,1435996970636,6.0
133,1435996970653,6.0
134,1435996970673,6.0
135,1435996970694,6.0
136,1435996970711,6.0
137,1435996970731,6.0
138,1435996970751,6.0
139,1435996970773,6.0
140,1435996970791,6.0
141,1435996970812,6.0
142,1435996970836,6.0
143,1435996970856,6.0
144,1435996970877,6.0
145,1435996970892,6.0
146,1435996970915,6.0
147,1435996970933,6.0
148,1435996970952,6.0
149,1435996970973,6.0
150,1435996970996,6.0
151,1435996971015,6.0
152,1435996971036,6.0
153,1435996971057,6.0
154,1435996971075,6.0
155,1435996971093,6.0
156,1435996971112,6.0
157,1435996971133,6.0
158,1435996971153,6.0
159,1435996971181,6.0
160,1435996971191,6.0
161,1435996971212,6.0
162,1435996971233,6.0
163,1435996971253,6.0
164,1435996971274,6.0
165,1435996971294,6.0
166,1435996971314,6.0
167,1435996971333,6.0
168,1435996971359,6.0
169,1435996971375,6.0
170,1435996971393,6.0
171,1435996971414,6.0
172,1435996971435,6.0
173,1435996971455,6.0
174,1435996971473,6.0
175,1435996971495,6.0
176,1435996971517,6.0
177,1435996971533,6.0
178,1435996971553,6.0
179,1435996971574,6.0
180,1435996971594,6.0
181,1435996971614,6.0
182,1435996971633,6.0
183,1435996971656,6.0
184,1435996971675,6.0
185,1435996971694,6.0
186,1435996971714,6.0
187,1435996971733,6.0
188,1435996971754,6.0
189,1435996971774,6.0
190,1435996971796,6.0
191,1435996971813,6.0
192,1435996971891,6.0
193,1435996971892,6.0
194,1435996971893,6.0
195,1435996971894,6.0
196,1435996971913,6.0
197,1435996971934,6.0
198,1435996971957,6.0
199,1435996971976,6.0
200,1435996971993,6.0
201,1435996972014,6.0
202,1435996972035,6.0
203,1435996972055,6.0
204,1435996972080,6.0
205,1435996972094,6.0
206,1435996972115,6.0
207,1435996972134,6.0
208,1435996972153,6.0
209,1435996972176,6.0
210,1435996972195,6.0
211,1435996972214,6.0
212,1435996972237,6.0
213,1435996972256,6.0
214,1435996972274,6.0
215,1435996972295,6.0
216,1435996972313,6.0
217,1435996972333,6.0
218,1435996972353,6.0
219,1435996972375,6.0
220,1435996972395,6.0
221,1435996972419,6.0
222,1435996972437,6.0
223,1435996972453,6.0
224,1435996972474,6.0
225,1435996972493,6.0
226,1435996972515,6.0
227,1435996972534,6.0
228,1435996972554,6.0
229,1435996972626,6.0
230,1435996972627,6.0
231,1435996972628,6.0
232,1435996972645,6.0
233,1435996972654,6.0
234,1435996972673,6.0
235,1435996972696,6.0
236,1435996972715,6.0
237,1435996972734,6.0
238,1435996972755,6.0
239,1435996972775,6.0
240,1435996972796,6.0
241,1435996972815,6.0
242,1435996972836,6.0
243,1435996972856,6.0
244,1435996972878,6.0
245,1435996972898,6.0
246,1435996972917,6.0
247,1435996972936,6.0
248,1435996972956,6.0
249,1435996972974,6.0
250,1435996972996,6.0
251,1435996973016,6.0
252,1435996973036,6.0
253,1435996973057,6.0
254,1435996973078,6.0
255,1435996973098,6.0
256,1435996973119,6.0
257,1435996973170,6.0
258,1435996973171,6.0
259,1435996973175,6.0
260,1435996973195,6.0
261,1435996973229,6.0
262,1435996973298,6.0
263,1435996973299,6.0
264,1435996973300,6.0
265,1435996973301,6.0
266,1435996973315,6.0
267,1435996973340,6.0
268,1435996973357,6.0
269,1435996973375,6.0
270,1435996973398,6.0
271,1435996973417,6.0
272,1435996973437,6.0
273,1435996973459,6.0
274,1435996973476,6.0
275,1435996973495,6.0
276,1435996973516,6.0
277,1435996973537,6.0
278,1435996973557,6.0
279,1435996973579,6.0
280,1435996973596,6.0
281,1435996973617,6.0
282,1435996973661,6.0
283,1435996973662,6.0
284,1435996973675,6.0
285,1435996973703,6.0
286,1435996973716,6.0
287,1435996973735,6.0
288,1435996973756,6.0
289,1435996973777,6.0
290,1435996973795,6.0
291,1435996973818,6.0
292,1435996973837,6.0
293,1435996973857,6.0
294,1435996973875,6.0
295,1435996973897,6.0
296,1435996973919,6.0
297,1435996973941,6.0
298,1435996973959,6.0
299,1435996974029,6.0
300,1435996974030,6.0
301,1435996974031,6.0
302,1435996974056,6.0
303,1435996974057,6.0
304,1435996974077,6.0
305,1435996974100,6.0
306,1435996974116,6.0
307,1435996974139,6.0
308,1435996974158,6.0
309,1435996974178,6.0
310,1435996974195,6.0
311,1435996974216,6.0
312,1435996974236,6.0
313,1435996974256,6.0
314,1435996974277,6.0
315,1435996974297,6.0
316,1435996974317,6.0
317,1435996974336,6.0
318,1435996974356,6.0
319,1435996974376,6.0
320,1435996974397,6.0
321,1435996974418,6.0
322,1435996974439,6.0
323,1435996974457,6.0
324,1435996974476,6.0
325,1435996974496,6.0
326,1435996974516,6.0
327,1435996974537,6.0
328,1435996974557,6.0
329,1435996974577,6.0
330,1435996974598,6.0
331,1435996974617,6.0
332,1435996974635,6.0
333,1435996974688,6.0
334,1435996974689,6.0
335,1435996974763,6.0
336,1435996974764,6.0
337,1435996974765,6.0
338,1435996974766,6.0
339,1435996974788,6.0
340,1435996974797,6.0
341,1435996974820,6.0
342,1435996974836,6.0
343,1435996974856,6.0
344,1435996974876,6.0
345,1435996974896,6.0
346,1435996975000,6.0
347,1435996975001,6.0
348,1435996975002,6.0
349,1435996975003,6.0
350,1435996975004,6.0
351,1435996975016,6.0
352,1435996975036,6.0
353,1435996975058,6.0
354,1435996975077,6.0
355,1435996975098,6.0
356,1435996975117,6.0
357,1435996975138,6.0
358,1435996975164,6.0
359,1435996975177,6.0
360,1435996975197,6.0
361,1435996975217,6.0
362,1435996975236,6.0
363,1435996975256,6.0
364,1435996975276,6.0
365,1435996975296,6.0
366,1435996975316,6.0
367,1435996975336,6.0
368,1435996975357,6.0
369,1435996975376,6.0
370,1435996975398,6.0
371,1435996975483,6.0
372,1435996975484,6.0
373,1435996975485,6.0
374,1435996975486,6.0
375,1435996975496,6.0
376,1435996975517,6.0
377,1435996975537,6.0
378,1435996975557,6.0
379,1435996975579,6.0
380,1435996975597,6.0
381,1435996975618,6.0
382,1435996975637,6.0
383,1435996975658,6.0
384,1435996975677,6.0
385,1435996975698,6.0
386,1435996975718,6.0
387,1435996975737,6.0
388,1435996975759,6.0
389,1435996975777,6.0
390,1435996975797,6.0
391,1435996975823,6.0
392,1435996975837,6.0
393,1435996975860,6.0
394,1435996975877,6.0
395,1435996975901,6.0
396,1435996975919,6.0
397,1435996975938,6.0
398,1435996975958,6.0
399,1435996975977,6.0
400,1435996976001,6.0
401,1435996976023,6.0
402,1435996976037,6.0
403,1435996976058,6.0
404,1435996976127,6.0
405,1435996976128,6.0
406,1435996976129,6.0
407,1435996976150,6.0
408,1435996976157,6.0
409,1435996976178,6.0
410,1435996976204,6.0
411,1435996976217,6.0
412,1435996976238,6.0
413,1435996976259,6.0
414,1435996976277,6.0
415,1435996976299,6.0
416,1435996976319,6.0
417,1435996976343,6.0
418,1435996976361,6.0
419,1435996976380,6.0
420,1435996976398,6.0
421,1435996976418,6.0
422,1435996976440,6.0
423,1435996976458,6.0
424,1435996976478,6.0
425,1435996976500,5.0
426,1435996976519,5.0
427,1435996976540,6.0
428,1435996976560,6.0
429,1435996976578,5.0
430,1435996976598,5.0
431,1435996976621,5.0
432,1435996976641,5.0
433,1435996976659,5.0
434,1435996976680,5.0
435,1435996976700,5.0
436,1435996976721,5.0
437,1435996976740,5.0
438,1435996976761,5.0
439,1435996976779,5.0
440,1435996976799,5.0
441,1435996976887,5.0
442,1435996976888,5.0
443,1435996976889,5.0
444,1435996976890,5.0
445,1435996976909,5.0
446,1435996976918,5.0
447,1435996976941,5.0
448,1435996976962,5.0
449,1435996976978,5.0
450,1435996976998,5.0
451,1435996977023,5.0
452,1435996977038,5.0
453,1435996977059,5.0
454,1435996977085,5.0
455,1435996977099,5.0
456,1435996977118,5.0
457,1435996977139,5.0
458,1435996977159,5.0
459,1435996977180,5.0
460,1435996977198,5.0
461,1435996977217,5.0
462,1435996977241,5.0
463,1435996977262,5.0
464,1435996977280,5.0
465,1435996977300,5.0
466,1435996977320,5.0
467,1435996977339,5.0
468,1435996977360,5.0
469,1435996977382,5.0
470,1435996977400,5.0
471,1435996977419,5.0
472,1435996977442,5.0
473,1435996977460,5.0
474,1435996977479,5.0
475,1435996977500,6.0
476,1435996977522,6.0
477,1435996977539,6.0
478,1435996977566,6.0
479,1435996977618,6.0
480,1435996977619,5.0
481,1435996977620,5.0
482,1435996977638,6.0
483,1435996977661,6.0
484,1435996977679,6.0
485,1435996977700,6.0
486,1435996977720,6.0
487,1435996977739,6.0
488,1435996977762,6.0
489,1435996977781,6.0
490,1435996977806,6.0
491,1435996977823,6.0
492,1435996977841,6.0
493,1435996977860,6.0
494,1435996977879,6.0
495,1435996977900,6.0
496,1435996977922,6.0
497,1435996977942,6.0
498,1435996977961,6.0
499,1435996977981,6.0
500,1435996978002,6.0
501,1435996978019,6.0
502,1435996978039,6.0
503,1435996978059,6.0
504,1435996978080,6.0
505,1435996978099,6.0
506,1435996978120,6.0
507,1435996978142,6.0
508,1435996978160,5.0
509,1435996978181,5.0
510,1435996978200,5.0
511,1435996978224,5.0
512,1435996978313,5.0
513,1435996978314,5.0
514,1435996978315,5.0
515,1435996978316,5.0
516,1435996978325,5.0
517,1435996978340,5.0
518,1435996978361,5.0
519,1435996978379,4.0
520,1435996978402,4.0
521,1435996978437,4.0
522,1435996978439,4.0
523,1435996978461,4.0
524,1435996978482,4.0
525,1435996978501,4.0
526,1435996978520,4.0
527,1435996978540,4.0
528,1435996978563,4.0
529,1435996978583,4.0
530,1435996978603,4.0
531,1435996978623,4.0
532,1435996978643,4.0
533,1435996978664,4.0
534,1435996978682,4.0
535,1435996978702,3.0
536,1435996978722,3.0
537,1435996978740,3.0
538,1435996978761,3.0
539,1435996978780,3.0
540,1435996978801,3.0
541,1435996978823,3.0
542,1435996978842,3.0
543,1435996978862,3.0
544,1435996978883,3.0
545,1435996978904,3.0
546,1435996978924,3.0
547,1435996979054,3.0
548,1435996979055,3.0
549,1435996979069,3.0
550,1435996979070,3.0
551,1435996979071,3.0
552,1435996979072,3.0
553,1435996979073,3.0
554,1435996979115,3.0
555,1435996979116,3.0
556,1435996979144,3.0
557,1435996979145,3.0
558,1435996979161,3.0
559,1435996979197,3.0
560,1435996979200,3.0
561,1435996979220,3.0
562,1435996979240,3.0
563,1435996979260,3.0
564,1435996979280,3.0
565,1435996979300,3.0
566,1435996979320,4.0
567,1435996979340,4.0
568,1435996979360,4.0
569,1435996979380,4.0
570,1435996979400,4.0
571,1435996979420,4.0
572,1435996979443,4.0
573,1435996979464,4.0
574,1435996979480,4.0
575,1435996979502,4.0
576,1435996979521,4.0
577,1435996979544,4.0
578,1435996979561,4.0
579,1435996979583,4.0
580,1435996979601,4.0
581,1435996979625,4.0
582,1435996979642,4.0
583,1435996979661,4.0
584,1435996979681,4.0
585,1435996979708,4.0
586,1435996979751,5.0
587,1435996979752,5.0
588,1435996979771,5.0
589,1435996979780,5.0
590,1435996979801,5.0
591,1435996979820,5.0
592,1435996979841,5.0
593,1435996979861,5.0
594,1435996979880,5.0
595,1435996979903,5.0
596,1435996979924,5.0
597,1435996979941,5.0
598,1435996979962,5.0
599,1435996979985,5.0
600,1435996980002,5.0
601,1435996980022,6.0
602,1435996980042,6.0
603,1435996980064,6.0
604,1435996980084,6.0
605,1435996980102,6.0
606,1435996980124,6.0
607,1435996980143,6.0
608,1435996980160,6.0
609,1435996980181,6.0
610,1435996980203,7.0
611,1435996980224,7.0
612,1435996980249,7.0
613,1435996980264,7.0
614,1435996980281,8.0
615,1435996980303,7.0
616,1435996980324,7.0
617,1435996980345,8.0
618,1435996980435,8.0
619,1435996980436,9.0
620,1435996980437,9.0
621,1435996980438,9.0
622,1435996980505,9.0
623,1435996980506,9.0
624,1435996980507,9.0
625,1435996980508,8.0
626,1435996980529,8.0
627,1435996980570,8.0
628,1435996980571,8.0
629,1435996980595,8.0
630,1435996980602,9.0
631,1435996980629,9.0
632,1435996980642,9.0
633,1435996980664,9.0
634,1435996980682,9.0
635,1435996980701,9.0
636,1435996980721,10.0
637,1435996980741,10.0
638,1435996980761,10.0
639,1435996980781,10.0
640,1435996980803,10.0
641,1435996980825,10.0
642,1435996980844,10.0
643,1435996980863,11.0
644,1435996980883,11.0
645,1435996980901,11.0
646,1435996980923,11.0
647,1435996980944,11.0
648,1435996980966,11.0
649,1435996980986,11.0
650,1435996981007,11.0
651,1435996981025,11.0
652,1435996981043,11.0
653,1435996981062,11.0
654,1435996981082,12.0
655,1435996981101,12.0
656,1435996981147,12.0
657,1435996981148,13.0
658,1435996981161,13.0
659,1435996981185,14.0
660,1435996981202,14.0
661,1435996981223,15.0
662,1435996981243,15.0
663,1435996981264,16.0
664,1435996981282,16.0
665,1435996981306,15.0
666,1435996981326,15.0
667,1435996981344,16.0
668,1435996981362,16.0
669,1435996981384,16.0
670,1435996981406,16.0
671,1435996981425,16.0
672,1435996981445,16.0
673,1435996981466,16.0
674,1435996981484,16.0
675,1435996981506,16.0
676,1435996981524,16.0
677,1435996981547,16.0
678,1435996981567,16.0
679,1435996981587,16.0
680,1435996981606,16.0
681,1435996981623,17.0
682,1435996981644,17.0
683,1435996981665,17.0
684,1435996981688,17.0
685,1435996981707,17.0
686,1435996981731,17.0
687,1435996981745,17.0
688,1435996981771,17.0
689,1435996981849,17.0
690,1435996981850,17.0
691,1435996981854,17.0
692,1435996981855,16.0
693,1435996981871,16.0
694,1435996981975,16.0
695,1435996981976,16.0
696,1435996981977,18.0
697,1435996981978,18.0
698,1435996981979,20.0
699,1435996981995,19.0
700,1435996982005,19.0
701,1435996982031,19.0
702,1435996982044,19.0
703,1435996982064,18.0
704,1435996982084,18.0
705,1435996982103,19.0
706,1435996982125,19.0
707,1435996982147,19.0
708,1435996982167,19.0
709,1435996982188,20.0
710,1435996982207,20.0
711,1435996982227,20.0
712,1435996982253,20.0
713,1435996982267,20.0
714,1435996982285,20.0
715,1435996982306,20.0
716,1435996982325,20.0
717,1435996982345,20.0
718,1435996982366,20.0
719,1435996982386,20.0
720,1435996982407,19.0
721,1435996982425,19.0
722,1435996982446,19.0
723,1435996982466,19.0
724,1435996982486,19.0
725,1435996982504,19.0
726,1435996982646,19.0
727,1435996982647,18.0
728,1435996982666,18.0
729,1435996982667,17.0
730,1435996982668,17.0
731,1435996982669,17.0
732,1435996982670,16.0
733,1435996982671,16.0
734,1435996982686,16.0
735,1435996982707,16.0
736,1435996982773,16.0
737,1435996982774,16.0
738,1435996982775,17.0
739,1435996982786,17.0
740,1435996982804,20.0
741,1435996982825,18.0
742,1435996982846,18.0
743,1435996982866,17.0
744,1435996982885,17.0
745,1435996982904,17.0
746,1435996982924,17.0
747,1435996982945,17.0
748,1435996982966,17.0
749,1435996982986,17.0
750,1435996983007,17.0
751,1435996983025,19.0
752,1435996983047,19.0
753,1435996983068,19.0
754,1435996983084,20.0
755,1435996983104,20.0
756,1435996983124,23.0
757,1435996983177,23.0
758,1435996983178,20.0
759,1435996983188,20.0
760,1435996983208,19.0
761,1435996983224,19.0
762,1435996983244,20.0
763,1435996983265,23.0
764,1435996983284,23.0
765,1435996983357,24.0
766,1435996983358,24.0
767,1435996983359,23.0
768,1435996983377,23.0
769,1435996983385,23.0
770,1435996983404,23.0
771,1435996983426,24.0
772,1435996983444,23.0
773,1435996983469,23.0
774,1435996983486,23.0
775,1435996983506,23.0
776,1435996983530,23.0
777,1435996983549,23.0
778,1435996983567,22.0
779,1435996983585,22.0
780,1435996983606,22.0
781,1435996983627,22.0
782,1435996983645,22.0
783,1435996983667,21.0
784,1435996983687,21.0
785,1435996983708,21.0
786,1435996983727,21.0
787,1435996983748,22.0
788,1435996983768,22.0
789,1435996983786,22.0
790,1435996983806,22.0
791,1435996983825,22.0
792,1435996983845,22.0
793,1435996983866,22.0
794,1435996983885,21.0
795,1435996983906,21.0
796,1435996983927,24.0
797,1435996983968,24.0
798,1435996983969,30.0
799,1435996983996,30.0
800,1435996984006,30.0
801,1435996984025,30.0
802,1435996984045,31.0
803,1435996984089,31.0
804,1435996984090,32.0
805,1435996984111,33.0
806,1435996984126,33.0
807,1435996984145,33.0
808,1435996984165,33.0
809,1435996984186,33.0
810,1435996984206,33.0
811,1435996984228,34.0
812,1435996984251,34.0
813,1435996984272,32.0
814,1435996984286,31.0
815,1435996984306,31.0
816,1435996984333,31.0
817,1435996984347,31.0
818,1435996984366,30.0
819,1435996984385,30.0
820,1435996984405,28.0
821,1435996984425,28.0
822,1435996984445,25.0
823,1435996984465,25.0
824,1435996984486,24.0
825,1435996984507,22.0
826,1435996984531,22.0
827,1435996984556,15.0
828,1435996984570,15.0
829,1435996984589,11.0
830,1435996984608,11.0
831,1435996984629,10.0
832,1435996984649,10.0
833,1435996984666,8.0
834,1435996984688,8.0
835,1435996984707,7.0
836,1435996984724,6.0
837,1435996984744,6.0
838,1435996984764,5.0
839,1435996984785,5.0
840,1435996984805,4.0
841,1435996984825,4.0
842,1435996984844,3.0
843,1435996984864,3.0
844,1435996984884,3.0
845,1435996984904,3.0
846,1435996984924,2.0
847,1435996984944,2.0
848,1435996984965,2.0
849,1435996984985,2.0
850,1435996985004,2.0
851,1435996985025,2.0
852,1435996985045,2.0
853,1435996985065,1.0
854,1435996985086,1.0
855,1435996985106,1.0
856,1435996985126,1.0
857,1435996985147,1.0
858,1435996985167,1.0
859,1435996985186,1.0
860,1435996985207,0.0
861,1435996985226,0.0
862,1435996985247,0.0
863,1435996985265,0.0
864,1435996985288,0.0
865,1435996985307,0.0
866,1435996985326,0.0
867,1435996985346,0.0
868,1435996985367,0.0
869,1435996985403,0.0
870,1435996985408,0.0
871,1435996985426,0.0
872,1435996985447,0.0
873,1435996985468,0.0
874,1435996985486,0.0
875,1435996985507,0.0
876,1435996985526,0.0
877,1435996985548,0.0
878,1435996985568,0.0
879,1435996985588,0.0
880,1435996985608,0.0
881,1435996985627,0.0
882,1435996985646,0.0
883,1435996985667,0.0
884,1435996985687,0.0
885,1435996985709,0.0
886,1435996985727,0.0
887,1435996985751,0.0
888,1435996985768,0.0
889,1435996985787,0.0
890,1435996985809,0.0
891,1435996985830,0.0
892,1435996985850,0.0
893,1435996985868,0.0
894,1435996985888,0.0
895,1435996985908,0.0
896,1435996985927,0.0
897,1435996985949,0.0
898,1435996985969,0.0
899,1435996985989,0.0
900,1435996986009,0.0
901,1435996986027,0.0
902,1435996986100,0.0
903,1435996986101,0.0
