id,attr_time,attr_db
1,1436293824108,37.0638026139825
2,1436293824776,36.6463761069306
3,1436293825428,39.8915201956018
4,1436293826105,37.2982204436454
5,1436293826758,38.1945884726201
6,1436293827437,36.8956627902431
7,1436293828128,36.5676243471321
8,1436293828735,34.373646859556
9,1436293829397,36.5594131033485
10,1436293830075,35.0757041109257
11,1436293830743,37.8034342881858
12,1436293831405,39.1229303979694
13,1436293832072,38.151011631644
14,1436293832682,37.4485761095695
15,1436293833334,38.3380417484839
16,1436293834033,36.4702856371234
17,1436293834685,34.0409587065532
18,1436293835353,34.5768643698561
19,1436293836016,38.416850045261
20,1436293836677,40.0438986405946
21,1436293837307,49.2819138143518
22,1436293837962,44.5204150119783
23,1436293838637,43.7819544976141
24,1436293839285,43.4479946221182
25,1436293839976,66.9021302652512
26,1436293840649,38.2400132357939
27,1436293841277,39.6101839180367
28,1436293841927,58.3992795033998
29,1436293842582,35.8209509553731
30,1436293843233,39.5758683220211
31,1436293843872,46.9239363829769
32,1436293844527,29.7100292618867
33,1436293845172,45.6151383277166
34,1436293845788,31.9472351361873
35,1436293846445,41.2123394043281
36,1436293847113,65.049789419339
37,1436293847783,56.5860671652254
38,1436293848412,55.7196023947245
39,1436293849068,45.0479632875452
40,1436293849761,47.8710143055937
41,1436293850398,21.7241233179331
42,1436293851059,19.5274704553795
43,1436293851728,19.7741217639524
44,1436293852319,31.3458259944415
45,1436293852899,53.4726009111807
46,1436293853572,46.4077190987772
47,1436293854211,55.5461342255385
48,1436293854839,34.5554202984617
49,1436293855461,48.2945286846926
50,1436293856147,35.1277222721689
51,1436293856790,15.8216903637721
52,1436293857410,14.3179885529832
53,1436293858051,16.3336702012414
54,1436293858726,16.0671741431446
55,1436293859384,15.7470847499672
56,1436293860005,14.1711687516889
57,1436293860657,15.078503880468
58,1436293861320,17.9806069984907
59,1436293861973,27.4044640689644
60,1436293862608,17.2432398062997
61,1436293863299,14.8653350000692
62,1436293863952,16.3511402236433
63,1436293864570,21.1028503211204
64,1436293865230,19.2936318243916
65,1436293865882,13.9653861511106
66,1436293866512,15.9354757226057
67,1436293867131,18.4245653488239
68,1436293867790,18.7457580276101
69,1436293868456,15.5913838913957
70,1436293869093,19.7874774396497
71,1436293869764,16.4642139134786
72,1436293870440,17.9817867579053
73,1436293871052,15.9805996578862
74,1436293871730,16.1981718535047
75,1436293872348,14.6314613302893
76,1436293872983,16.2950675759455
77,1436293873617,15.0621123859952
78,1436293874287,14.7389071449018
79,1436293874971,15.1335666836272
80,1436293875585,16.9361270218739
81,1436293876267,16.1729086099073
82,1436293876944,17.461346425874
83,1436293877577,23.2879826980416
84,1436293878249,16.1179748346618
85,1436293878911,16.7815866853513
86,1436293879561,18.0122968824436
87,1436293880226,16.0734336456108
88,1436293880878,19.3007195627188
89,1436293881516,16.3588532596455
90,1436293882117,16.3152126187158
91,1436293882778,16.8088461070104
92,1436293883409,21.334743985785
93,1436293884037,17.2884124822559
94,1436293884695,16.8143414813447
95,1436293885313,22.6811551678046
96,1436293885980,28.3556773157444
97,1436293886632,21.7453114073423
98,1436293887304,32.474482510933
99,1436293887973,18.8665418187439
100,1436293888589,16.735568808203
101,1436293889276,34.4533831023825
102,1436293889907,16.4281901296666
103,1436293890559,14.2090838743168
104,1436293891175,31.107295192268
105,1436293891838,24.3070841648313
106,1436293892492,20.1230146203465
107,1436293893135,18.947408782657
108,1436293893775,22.5222166877524
109,1436293894428,16.474451849906
110,1436293895092,21.3900194317204
111,1436293895718,19.5668980747733
112,1436293896409,13.9232745548443
113,1436293897073,35.6468512867816
114,1436293897692,14.6204711890662
115,1436293898371,16.4631976733712
116,1436293899056,38.1256065699854
117,1436293899683,35.8089313645521
118,1436293900336,41.3583926864664
119,1436293900977,16.9490818139854
120,1436293901630,44.2965917528771
121,1436293902273,28.9811656750348
122,1436293902889,25.7985530676449
123,1436293903565,43.0401943156319
124,1436293904194,14.0726768025404
125,1436293904867,19.5675605887615
126,1436293905520,14.2810635899917
127,1436293906191,40.4381620230838
128,1436293906846,38.8129803034432
129,1436293907516,27.0439479297447
130,1436293908170,34.9069132946324
131,1436293908800,15.3081413494864
132,1436293909450,14.3414060819182
133,1436293910128,13.7320178815434
134,1436293910780,41.6846252152984
135,1436293911434,42.4939037450075
136,1436293912098,43.1932144275997
137,1436293912738,32.7530791204396
138,1436293913406,17.5149793914386
139,1436293914038,37.5142721594988
140,1436293914692,41.2941685748077
141,1436293915363,34.2281494567443
142,1436293916007,16.4325217499581
143,1436293916687,27.8027317012904
144,1436293917309,40.3662579171648
145,1436293917977,39.4708478183863
146,1436293918620,31.4450137775089
147,1436293919261,35.374661460435
148,1436293919907,17.0618092522371
149,1436293920557,32.8732483497609
150,1436293921217,14.7122182091819
151,1436293921873,31.0780030807212
152,1436293922547,20.3985372114138
153,1436293923212,19.3604264224556
154,1436293923825,17.7695821143166
155,1436293924482,34.2420463951253
156,1436293925136,16.2766175611734
157,1436293925769,15.6957304411218
158,1436293926402,34.1712733896231
159,1436293927071,41.9693937425783
160,1436293927740,18.9580782643254
161,1436293928350,41.0505186380209
162,1436293929004,43.030855243821
163,1436293929673,26.5530153205982
164,1436293930311,16.6904726316673
165,1436293930960,14.8010518961638
166,1436293931636,17.8017421341434
167,1436293932292,18.504232464957
168,1436293932936,18.0708741946547
169,1436293933599,15.9549267332407
170,1436293934289,14.9548142164854
171,1436293934943,13.2965131751968
172,1436293935544,14.7997950278923
173,1436293936858,12.8828269809614
174,1436293937534,15.9678644773949
175,1436293938163,16.1113124472813
176,1436293938829,17.9297445100857
177,1436293939437,18.6755498081924
178,1436293940108,18.661348445051
179,1436293940792,17.728898185647
180,1436293941362,15.6718788778297
181,1436293942790,16.6137282706372
182,1436293943405,16.1337850639304
183,1436293944076,19.6455522057697
184,1436293944722,14.7745371758337
185,1436293945377,20.667350293604
186,1436293945992,16.0933011665837
187,1436293946644,19.7520592488714
188,1436293947286,20.3914783490604
189,1436293947898,14.9559875728281
190,1436293948495,16.0043076646479
191,1436293949934,18.4200906127094
192,1436293950573,14.6030315210293
193,1436293951236,15.5123165739083
194,1436293951914,15.7272048151332
195,1436293952498,18.353756040896
196,1436293953052,18.7849720429207
197,1436293954332,16.7092826453552
198,1436293954973,16.9945246747515
199,1436293955640,17.9953345599104
200,1436293956301,21.2090415466222
201,1436293956938,19.8483838105525
202,1436293957590,16.7420933958448
203,1436293958260,15.0257667568161
204,1436293958909,15.9988691753641
205,1436293959529,17.915429885019
206,1436293960204,17.2394917247664
207,1436293960899,17.1958153969303
208,1436293961521,16.905868804538
209,1436293962184,19.9814877719482
210,1436293962819,16.7717440833201
211,1436293963477,18.2513262518204
212,1436293964118,15.8582967731964
213,1436293964810,16.158277302744
214,1436293965462,15.6433172858745
215,1436293966094,14.004849871474
216,1436293966768,14.1521608204307
217,1436293967410,13.6863918079906
218,1436293968054,17.0886063396184
219,1436293968725,16.4842457517804
220,1436293969383,15.2784913074962
221,1436293969997,15.48052227618
222,1436293970665,15.966342058504
223,1436293971335,16.7548643123531
224,1436293971971,16.6872354232682
225,1436293972558,13.7596946252049
226,1436293973202,13.7515993292298
227,1436293973834,15.9720230199478
228,1436293974463,16.4404990437295
229,1436293975115,14.4243165234285
230,1436293975758,14.2053297980107
231,1436293976438,18.7151849518701
232,1436293977066,20.6090784141821
233,1436293977725,15.4509982069504
234,1436293978399,15.299070582992
235,1436293979022,17.6100661922464
236,1436293979681,20.6606452783747
237,1436293980295,16.5881045999032
238,1436293980884,15.61040385268
239,1436293981524,16.0562743797908
240,1436293982190,17.4311832017272
241,1436293982833,15.228541229428
242,1436293983492,17.5064098740076
243,1436293984082,17.3127336986659
244,1436293984731,18.4935975962482
245,1436293985389,15.3634771022142
246,1436293986036,17.2339855432301
247,1436293986708,18.2802555745992
248,1436293987380,15.6478069652236
249,1436293988057,18.0075833132821
250,1436293988731,15.5827103917496
251,1436293989382,18.1190773654239
252,1436293990052,19.7818357693635
253,1436293990728,16.5019522920338
254,1436293991347,17.9721378519673
255,1436293992023,16.6046398637791
256,1436293992654,16.8182848692249
257,1436293993294,16.0687997293645
258,1436293993939,13.9073212824852
259,1436293994607,15.2610253601947
260,1436293995260,14.1970383875126
261,1436293995861,16.5305139618652
262,1436293996527,14.7546727080979
263,1436293997199,15.205640843754
264,1436293997816,15.2171372709385
265,1436293998477,15.2985655189768
266,1436293999096,15.0591554257363
267,1436293999786,18.0543671198774
268,1436294000374,17.8880798372784
269,1436294001045,19.7827431158368
270,1436294001712,17.2128866368078
271,1436294002346,18.1863183313156
272,1436294003011,31.9940530809977
273,1436294003659,17.1254097592091
274,1436294004333,17.6377200618228
275,1436294004957,18.9264740876353
276,1436294005608,22.5590523244693
277,1436294006276,18.8519534879076
278,1436294006900,20.496088526972
279,1436294007564,21.532951901892
280,1436294008216,19.3428342952527
281,1436294008893,18.6675036830088
282,1436294009546,16.1368567846619
283,1436294010208,20.756874982053
284,1436294010855,17.0863902045198
285,1436294011476,20.0979186236142
286,1436294012136,15.337383102569
287,1436294012738,15.9441227789688
288,1436294013379,13.4501523532272
289,1436294014036,17.1765675603826
290,1436294014692,19.642767599592
291,1436294015325,17.0209396998875
292,1436294015966,18.3095469331921
293,1436294016612,17.9336416953088
294,1436294017281,17.9399826479731
295,1436294017922,20.1657091009046
296,1436294018532,18.1617084429428
297,1436294019187,16.8288205089978
298,1436294019823,20.0258735096206
299,1436294020445,17.684392548416
300,1436294021045,17.2979634363948
301,1436294021699,14.7212533771891
302,1436294022362,16.5615100323758
303,1436294022966,19.077104722855
304,1436294023598,22.5005793975397
305,1436294024256,14.3871514992994
306,1436294024922,18.8918488186981
307,1436294025536,16.6035076524551
308,1436294026168,17.7034881259888
309,1436294026826,18.9543993683509
310,1436294027487,20.5741616792723
311,1436294028102,23.9509504988799
312,1436294028796,19.7346370645682
313,1436294029442,27.1266075025978
314,1436294030043,21.8333507841744
315,1436294030665,23.99979249718
316,1436294031314,19.2195215231072
317,1436294031983,24.4861677506801
318,1436294032591,23.2772092457781
319,1436294033236,23.0365973364652
320,1436294033904,20.5067645964088
321,1436294034539,20.5297838776071
322,1436294035185,20.6472885245912
323,1436294035804,19.6474891421005
324,1436294036460,19.0638902500372
325,1436294037090,22.4368395555415
326,1436294037762,20.6240521103741
327,1436294038406,27.857938976256
328,1436294039026,28.4020053631635
329,1436294039682,22.296602516716
330,1436294040339,27.4334558543512
331,1436294040982,18.8596222607127
332,1436294041613,24.0405105728036
333,1436294042294,23.3901474510593
334,1436294042976,18.7359570500642
335,1436294043604,18.2824331988085
336,1436294044277,21.3852871794829
337,1436294044942,22.8750386466324
338,1436294045579,19.3494389692596
339,1436294046256,22.8501999850522
340,1436294046896,19.2404804740298
341,1436294047557,21.3672142202478
342,1436294048232,19.7448938452877
343,1436294048899,28.5610512474698
344,1436294049560,22.1359405372315
345,1436294050212,19.7151184171329
346,1436294050835,19.9553652578907
347,1436294051509,18.383886223688
348,1436294052124,20.7405890807435
349,1436294052758,20.9293016657552
350,1436294053379,17.5242760645932
351,1436294054070,19.2372837650094
352,1436294054721,18.0936577346652
353,1436294055379,18.9495464859631
354,1436294056060,17.1065672199858
355,1436294056707,17.1587027202619
356,1436294057376,18.0741082803749
357,1436294058018,17.1919734842133
358,1436294058637,17.2668321637995
359,1436294059279,15.7745190862181
360,1436294059894,19.6300786707653
361,1436294060558,18.3244612565208
362,1436294061172,16.1891850925497
363,1436294061792,15.4562126238606
364,1436294062449,16.1427257642957
365,1436294063075,14.7787760353583
366,1436294063755,15.8321408489343
367,1436294064405,17.7313384518654
368,1436294065043,17.2970143380486
369,1436294065663,16.4461290450256
370,1436294066344,15.3701776768598
371,1436294067027,18.8755456532954
372,1436294067675,17.2952591152927
373,1436294068356,18.9676336072245
374,1436294069037,15.6118591071712
375,1436294069644,16.8936018932513
376,1436294070314,17.9797164240557
377,1436294070986,14.8111953058881
378,1436294071631,13.924578957922
379,1436294072282,13.846093405426
380,1436294072917,14.0160005484663
381,1436294073541,15.0344479203816
382,1436294074156,16.3043362332348
383,1436294074831,16.0384883091404
384,1436294075495,17.938725194114
385,1436294076131,18.711635419745
386,1436294076781,17.6273185148205
387,1436294077409,17.0921951075885
388,1436294078079,16.4710947437874
389,1436294078734,18.8413821918979
390,1436294079394,18.6184421058297
391,1436294080068,18.769161966411
392,1436294080693,17.843765441761
393,1436294081353,15.614108646781
394,1436294082014,16.8092322237732
395,1436294082642,18.194248315904
396,1436294083239,20.4244549675566
397,1436294083892,20.2050860459815
398,1436294084567,18.1834841957527
399,1436294085186,15.1434000279553
400,1436294085837,15.5817748281239
401,1436294086502,16.2847623092372
402,1436294087176,16.6756438971049
403,1436294087751,16.9233737226317
404,1436294088402,15.8560312606685
405,1436294089080,15.8516702315552
406,1436294089748,16.2728446722479
407,1436294090426,15.1522197480048
408,1436294091080,18.0638839107071
409,1436294091726,18.9984036312272
410,1436294092376,16.9834049285155
411,1436294093016,14.7335349317112
412,1436294093689,17.4051735135455
413,1436294094291,16.0290561278487
414,1436294094950,15.9340526519456
415,1436294095604,17.6842636146763
416,1436294096232,17.1378041582366
417,1436294096899,20.6898037591355
418,1436294097557,18.2403509578358
419,1436294098215,15.8987107551733
420,1436294098799,14.7808600757703
421,1436294099485,19.3657460459104
422,1436294100098,13.5589475175711
423,1436294100762,16.2340245628513
424,1436294101380,18.5761316284067
425,1436294102031,16.941688813284
426,1436294102703,17.6097177313146
427,1436294103318,14.288062398815
428,1436294103976,14.3492437366278
429,1436294104643,16.9973669392436
430,1436294105295,17.07911943863
431,1436294105951,18.3879650636963
432,1436294106595,17.5720663051609
433,1436294107280,16.1551596515686
434,1436294107881,19.7357452830464
435,1436294108529,19.6243652035067
436,1436294109181,14.9680777642467
437,1436294109831,17.5608596300813
438,1436294110457,17.5556861156848
439,1436294111123,17.5921149706852
440,1436294111802,19.4985128083198
441,1436294112425,14.5397211288503
442,1436294113090,17.7989620578205
443,1436294113785,13.8507852735428
444,1436294114407,21.894343300872
445,1436294115067,21.3873457195284
446,1436294115745,18.9546279128188
447,1436294116377,18.8105904094887
448,1436294117023,16.9249910753732
449,1436294117675,14.8704223788347
450,1436294118347,16.7586823985074
451,1436294118915,15.5045002402674
452,1436294119572,14.8081006762698
453,1436294120231,16.046878671071
454,1436294120884,18.1001684815991
455,1436294121511,16.2727566744399
456,1436294122175,15.7895159799811
457,1436294122832,15.5920503100001
458,1436294123447,16.7673686194979
459,1436294124128,17.8376163478274
460,1436294124813,15.8428879887297
461,1436294125442,17.0149461158659
462,1436294126077,14.6788196561778
463,1436294126755,16.5413648921736
464,1436294127406,15.8141393235096
465,1436294128036,15.9359166885347
466,1436294128709,20.1594408141181
467,1436294129387,19.652341058139
468,1436294129988,17.1449740071087
469,1436294130656,15.3926200775229
470,1436294131313,15.9400266735197
471,1436294131973,18.9901505080731
472,1436294132650,15.4363061809566
473,1436294133299,18.6918412606363
474,1436294133980,18.1939360767868
475,1436294134601,17.8338498784817
476,1436294135269,14.1046767316696
477,1436294135947,18.2921076213554
478,1436294136571,18.3910841419955
479,1436294137243,21.5576670594932
480,1436294137904,19.3343116510346
481,1436294138531,18.6565265531789
482,1436294139195,19.8624058113991
483,1436294139841,18.4908393234927
484,1436294141199,14.5969946535573
485,1436294141829,13.7772962966985
486,1436294142489,16.5183079095534
487,1436294143142,19.8111536096337
488,1436294143806,18.5123661733979
489,1436294144457,20.0013507334735
490,1436294145069,19.8450905290807
491,1436294145761,17.4666488231877
492,1436294146451,15.9761032371133
493,1436294147076,18.032996913474
494,1436294147767,16.1795498458521
495,1436294148438,16.8279663368966
496,1436294149032,17.3714947961402
497,1436294149643,14.2477369866189
498,1436294150996,17.5568385536695
499,1436294151642,18.7468274273608
500,1436294152325,17.0749600800046
501,1436294152953,16.4117997289781
502,1436294153564,16.6856557308016
503,1436294154265,17.8603989710725
504,1436294154902,16.9434330085987
505,1436294155509,30.3038049022118
506,1436294156161,18.8249344907562
507,1436294156830,21.1007243244144
508,1436294157476,17.2150641341284
509,1436294158104,17.4653220330636
510,1436294158788,18.0534032075373
511,1436294159441,19.2842187409485
512,1436294160052,21.2491639808093
513,1436294160734,17.6664287403049
514,1436294161411,17.150078210728
515,1436294162062,21.4235928672703
516,1436294162699,18.3416877876219
517,1436294163352,15.9536343244659
518,1436294164062,36.3277293122812
519,1436294164662,21.5162998210655
520,1436294166165,18.2594771079607
521,1436294166798,18.2786735894135
522,1436294167441,17.995225125841
523,1436294168103,19.6944188999563
524,1436294168745,18.8346832494816
525,1436294169425,18.671154064725
526,1436294170072,18.7184813333455
527,1436294170693,17.5670368379457
528,1436294171359,16.9676789539283
529,1436294172029,17.3100654747009
530,1436294172651,19.4623918127909
531,1436294173258,13.8689168374647
532,1436294174550,18.544966177543
533,1436294175186,19.7169365445148
534,1436294175840,18.405024889618
535,1436294176494,17.5906775445867
536,1436294177143,16.0220570633684
537,1436294177805,17.2316207488681
538,1436294178455,16.4160502868174
539,1436294179151,17.1914237331787
540,1436294179772,15.0659665123551
541,1436294180434,13.6050565749137
542,1436294181063,14.1365441430816
543,1436294181738,16.0523323087401
544,1436294182370,19.1894226575163
545,1436294183041,17.9380495845511
546,1436294183699,17.7202207496784
547,1436294184308,17.8435900184663
548,1436294184960,16.3295591276937
549,1436294185609,15.8619618150694
550,1436294186281,14.9761865091204
551,1436294186932,16.1691563804992
552,1436294187600,18.5978552949867
553,1436294188295,19.4743036006393
554,1436294188912,17.2317698577337
555,1436294189588,19.7239875946217
556,1436294190242,20.1246578125572
557,1436294190861,19.5055029558556
558,1436294191508,20.7257833069818
559,1436294192157,16.8421740050056
560,1436294192831,19.5675993414973
561,1436294193443,32.0163991229284
562,1436294194107,16.1281920890828
563,1436294194773,14.9813472918131
564,1436294195397,16.0476709961681
565,1436294196062,16.1465793711137
566,1436294196721,15.5284459150958
567,1436294197401,17.7927330493969
568,1436294198034,17.9887396305858
569,1436294198703,18.6660774771006
570,1436294199366,15.3943428823417
571,1436294200018,18.0384855824444
572,1436294200700,14.6880288297608
573,1436294201349,14.4747138019435
574,1436294201983,16.7167727744198
575,1436294202635,16.4760786376859
