id,attr_time,attr_db
1,1436293824407,16.9853176285573
2,1436293825149,21.0187866971269
3,1436293825884,19.6101185431475
4,1436293826666,17.4716059802575
5,1436293827399,17.327100929906
6,1436293828140,35.2885517695252
7,1436293828881,19.0167449554113
8,1436293829625,42.4663432680332
9,1436293830350,47.3376259306102
10,1436293831054,43.3028534005472
11,1436293831719,25.0702911422312
12,1436293832460,21.2850207653835
13,1436293833216,15.1539277381788
14,1436293833947,18.2092999533209
15,1436293834683,16.9590382861991
16,1436293835405,19.2171572645314
17,1436293836051,15.5854323878979
18,1436293836707,35.9839854878931
19,1436293837374,17.2834510044367
20,1436293838012,35.662146973097
21,1436293838708,27.6312846394903
22,1436293839429,34.3069227470004
23,1436293840179,67.1434008539356
24,1436293840901,43.0000963645174
25,1436293841576,32.1530167795205
26,1436293842343,43.4353045698649
27,1436293843067,23.1897906237432
28,1436293843793,18.6142066976399
29,1436293844529,22.9995842714744
30,1436293845286,23.5804035111767
31,1436293846013,23.3456240415555
32,1436293846772,33.9768865591954
33,1436293847508,31.8661507366438
34,1436293848270,26.6199979182702
35,1436293848988,30.5847486755885
36,1436293849721,39.7252282619324
37,1436293850462,26.2571714266375
38,1436293851271,23.1823209285994
39,1436293851986,20.7159380251877
40,1436293852694,40.8167025299218
41,1436293853411,22.808421625521
42,1436293854164,24.4799608114762
43,1436293854884,30.969746657223
44,1436293855611,19.2963101360429
45,1436293856378,17.0116588168826
46,1436293857213,21.7415516631091
47,1436293857893,17.6013002875744
48,1436293858577,20.8485407522945
49,1436293859323,23.7982402980766
50,1436293860059,18.7212490386992
51,1436293860783,16.5845959129579
52,1436293861504,18.4457961894991
53,1436293862354,17.2897038152539
54,1436293863060,19.7634921010346
55,1436293863744,16.4254742050871
56,1436293864473,20.1235485525924
57,1436293865240,17.4239031206529
58,1436293865961,14.5255374839862
59,1436293866725,18.2002753741471
60,1436293867453,18.5523560005226
61,1436293868183,16.6319339288532
62,1436293868920,18.0077531215564
63,1436293869679,13.7360629854409
64,1436293870425,15.0667263135502
65,1436293871148,13.9986735537108
66,1436293871909,17.0466866593073
67,1436293872685,17.7388248906264
68,1436293873421,18.3911516016755
69,1436293874144,16.3743220816304
70,1436293874873,17.9924341745688
71,1436293875622,18.077987684916
72,1436293876331,17.222365436322
73,1436293877092,25.9728871734432
74,1436293877910,19.2542822104248
75,1436293878571,19.5344831951939
76,1436293879309,17.0440533207623
77,1436293880041,16.1318039825307
78,1436293880790,18.1015249752414
79,1436293881533,16.3163250801112
80,1436293882336,17.4985791748947
81,1436293883077,27.6110162105229
82,1436293883816,17.4950261694512
83,1436293884548,16.1936228289106
84,1436293885243,18.0467685009417
85,1436293885903,29.3745564609212
86,1436293886663,20.1152768391093
87,1436293887372,19.5439366018048
88,1436293888107,31.5019651482539
89,1436293888817,14.9652888031794
90,1436293889551,22.4799841327621
91,1436293890293,18.5738131419578
92,1436293891055,23.8359671837854
93,1436293891802,49.9733825828251
94,1436293892526,43.822670219827
95,1436293893259,33.0592324526307
96,1436293894008,48.4466823342453
97,1436293894773,32.4110071336022
98,1436293895504,16.831695773771
99,1436293896250,24.7842282462518
100,1436293897021,27.4003582679062
101,1436293897777,16.3266772105653
102,1436293898450,15.602349748945
103,1436293899125,39.8632237423369
104,1436293899847,31.9479117417232
105,1436293900589,18.8833905299577
106,1436293901335,16.8556552545891
107,1436293902070,28.7745043903257
108,1436293902785,23.5520390588707
109,1436293903510,38.0140477414098
110,1436293904221,16.6146923475388
111,1436293904964,21.7645179560486
112,1436293905717,30.9265085324591
113,1436293906463,48.6758260006813
114,1436293907232,40.169226287083
115,1436293907945,30.2085023563716
116,1436293908708,17.7488327368745
117,1436293909440,17.2787196881961
118,1436293910158,16.9866408790778
119,1436293910899,60.9591093841644
120,1436293911677,33.2409039259295
121,1436293912392,22.7870092113164
122,1436293913075,24.76623037212
123,1436293913713,17.9972612431669
124,1436293914408,44.8967954457827
125,1436293915139,17.4784794285369
126,1436293915859,15.5127022603803
127,1436293916547,12.5996479603457
128,1436293917223,41.5943201175766
129,1436293917914,39.5472950675431
130,1436293918702,34.7919139362252
131,1436293919413,26.9362372688821
132,1436293920110,69.3494771916062
133,1436293920835,60.1484496287109
134,1436293921582,15.3064505257424
135,1436293922366,53.6820173370311
136,1436293923095,18.5282123819948
137,1436293923820,18.4955232139621
138,1436293924564,61.746062182271
139,1436293925284,20.3494278953913
140,1436293926027,15.9823397436497
141,1436293926840,39.2643820803996
142,1436293927578,39.3242703003876
143,1436293928325,60.206269903201
144,1436293929071,66.8650884138264
145,1436293929806,27.1398028016086
146,1436293930538,17.1538645170415
147,1436293931268,17.9415794789392
148,1436293932004,20.8631957218076
149,1436293932784,14.8631440141801
150,1436293933515,15.8340844208543
151,1436293934267,16.6593920558232
152,1436293935000,17.8626605340456
153,1436293935755,13.5749743351551
154,1436293936504,15.0572470942544
155,1436293937239,13.7527397806186
156,1436293937982,16.0559928794241
157,1436293938716,18.4155485649404
158,1436293939408,17.6692525352896
159,1436293940139,17.0836069422532
160,1436293940858,17.2392772806863
161,1436293941589,13.4478335807854
162,1436293942311,15.8503763635435
163,1436293943068,14.9496974507241
164,1436293943815,17.093584928282
165,1436293944551,17.3293568337145
166,1436293945285,17.4293544576328
167,1436293946028,17.6093857965189
168,1436293946773,17.9153172717775
169,1436293947567,17.7911186406204
170,1436293948305,16.0044424923436
171,1436293949047,16.084554278174
172,1436293949805,15.0978808879659
173,1436293950538,17.1891261826725
174,1436293951267,14.8684921885248
175,1436293952108,16.6949552963962
176,1436293952846,15.2075305228559
177,1436293953624,17.3904549147885
178,1436293954357,17.8757479994145
179,1436293955077,14.7062214722586
180,1436293955809,16.4721884605778
181,1436293956552,17.5261298087597
182,1436293957295,17.0401173969444
183,1436293958046,17.0516799583681
184,1436293958798,17.9410589798319
185,1436293959530,15.7317415514376
186,1436293960253,16.7781879062076
187,1436293960994,16.4239372917638
188,1436293962948,14.3314803383934
189,1436293963708,15.2385104993585
190,1436293964445,16.0781620370599
191,1436293965186,18.0740809041866
192,1436293965927,17.2150968470642
193,1436293966707,16.1598428450543
194,1436293967439,15.9968312276446
195,1436293968154,16.2395304018395
196,1436293968905,16.3622722214112
197,1436293969658,17.4505197718308
198,1436293970393,17.5360887535113
199,1436293971115,16.225041867773
200,1436293973222,14.8657560575565
201,1436293974041,17.9352699571906
202,1436293974778,15.172932129138
203,1436293975500,16.7165980822733
204,1436293976223,16.0219254808273
205,1436293976960,19.8597832290548
206,1436293977789,15.6244911268828
207,1436293978499,15.9877171358634
208,1436293979139,16.2891291542741
209,1436293979846,22.9637313314475
210,1436293980590,15.0177481961592
211,1436293981321,16.0643729290762
212,1436293982065,16.4355800994396
213,1436293982811,21.119614523718
214,1436293983536,13.9015233627456
215,1436293984273,15.0069101750715
216,1436293985005,19.5032323581416
217,1436293985753,16.5523343519741
218,1436293986444,15.7170570688598
219,1436293988093,16.735183365547
220,1436293988810,15.7025609168941
221,1436293989546,18.0739256350008
222,1436293990267,15.534281744929
223,1436293990987,14.1421514452012
224,1436293991797,14.6049398286033
225,1436293992539,16.3031665174913
226,1436293993289,18.4192090368703
227,1436293994021,14.5354333305403
228,1436293994809,15.681402814101
229,1436293995528,13.5672532733176
230,1436293997030,13.1716812925818
231,1436293997685,16.2476775136861
232,1436293998417,16.8621041807572
233,1436293999218,15.9239934386526
234,1436293999804,19.5845124181743
235,1436294000490,18.8154211618377
236,1436294001288,17.2458023166306
237,1436294002024,17.5566391225105
238,1436294002761,17.9442180456563
239,1436294003497,23.5249437401236
240,1436294004211,19.1239120347785
241,1436294004940,20.0706114619177
242,1436294005677,20.893535848815
243,1436294006407,19.2056834405854
244,1436294007093,16.2725265747908
245,1436294007744,18.4872618254484
246,1436294008466,17.3770956454852
247,1436294009192,14.8602509664382
248,1436294009941,18.2862177459611
249,1436294010705,21.3011232143478
250,1436294011437,21.6963871061166
251,1436294012167,13.4991113572007
252,1436294012897,14.7125179474214
253,1436294013660,16.4471958355969
254,1436294014381,16.0680602122843
255,1436294015119,17.2655888428429
256,1436294015826,18.8851300286661
257,1436294016580,18.9246031091889
258,1436294017321,17.8818411456161
259,1436294018072,18.3254868327123
260,1436294018819,19.3900622593025
261,1436294019563,16.7333317257357
262,1436294020291,16.5992963931508
263,1436294021029,15.2301629751071
264,1436294021760,15.60103506023
265,1436294022456,17.2757470014781
266,1436294023227,19.552526094671
267,1436294023949,14.1249651402379
268,1436294024714,15.5524123473872
269,1436294025449,17.6862201344641
270,1436294026183,18.3757282475168
271,1436294027009,15.9343468751365
272,1436294027779,25.4221515892493
273,1436294028541,23.1466455830621
274,1436294029288,26.4466693417973
275,1436294029949,23.7187046131944
276,1436294030656,23.9451970187454
277,1436294031286,19.6490029387014
278,1436294031965,27.2143462452866
279,1436294032725,21.4696719654616
280,1436294033461,18.8262099091051
281,1436294034193,22.0375803936889
282,1436294034880,21.1723135905022
283,1436294035564,17.6515670314803
284,1436294036302,21.9191956486939
285,1436294037055,22.5302864484985
286,1436294037696,21.7477508118218
287,1436294038367,25.8315115845075
288,1436294039037,27.3960692650018
289,1436294039741,21.0098434232489
290,1436294040407,25.9252468897197
291,1436294041129,19.2012805691305
292,1436294041846,22.2679143397585
293,1436294042589,19.6942179549881
294,1436294043317,23.6133356161033
295,1436294044052,19.221377736419
296,1436294044806,25.6823507854364
297,1436294045560,18.4805168422086
298,1436294046293,25.2722194152024
299,1436294047055,20.2428557126143
300,1436294047786,23.7349327280085
301,1436294048526,22.0752782802778
302,1436294049245,27.1200762829731
303,1436294049969,21.3246998386548
304,1436294050744,17.5363735788016
305,1436294051484,18.3755857336089
306,1436294052251,17.3257139061276
307,1436294052963,18.4008701299298
308,1436294053729,19.2318452103833
309,1436294054460,23.1303284137057
310,1436294055190,18.3073084229271
311,1436294055920,17.1254785466561
312,1436294056653,17.0991089041355
313,1436294057347,16.1911783321843
314,1436294058086,20.1868365861981
315,1436294058814,18.2533225618938
316,1436294059578,17.0549806288581
317,1436294060226,17.0405881726179
318,1436294060866,16.5909108547955
319,1436294061534,17.7088809832868
320,1436294062264,19.6478524406021
321,1436294063028,17.9630700453715
322,1436294063797,16.7984619206493
323,1436294064530,16.9400269984105
324,1436294065254,17.6527521741757
325,1436294065983,17.5204164756162
326,1436294066735,18.0732440280458
327,1436294067545,16.2996172215071
328,1436294068268,15.8616957501256
329,1436294069005,19.3128784313264
330,1436294069766,16.3978458241234
331,1436294070487,18.6962272323232
332,1436294071221,19.205062651504
333,1436294072016,16.5854497482729
334,1436294072767,15.4859108492488
335,1436294073498,18.6049456728324
336,1436294074220,15.7276439166331
337,1436294074944,15.5059476318041
338,1436294075693,16.7845081121221
339,1436294076423,18.3409799764309
340,1436294077189,17.0629109582264
341,1436294077940,16.6993920237663
342,1436294078714,16.2092838055122
343,1436294079446,17.5143809595594
344,1436294080174,16.9003643177929
345,1436294080884,16.4176311981094
346,1436294081613,15.712957448028
347,1436294082339,17.8156648301377
348,1436294083081,18.2937925310221
349,1436294083857,18.6948112445565
350,1436294084588,14.8564522816327
351,1436294085323,15.1029368198066
352,1436294086065,15.9514777142659
353,1436294086829,17.6985413193955
354,1436294087681,16.044601998881
355,1436294088375,15.0187129880107
356,1436294089063,18.7250490347357
357,1436294089853,14.9058766744235
358,1436294090608,20.0713272229322
359,1436294091349,18.9766373656205
360,1436294092088,15.7702104443885
361,1436294092818,15.4567409506983
362,1436294093566,15.1560854204128
363,1436294094307,16.0330823741069
364,1436294095050,16.1625446275327
365,1436294095773,16.2861274724908
366,1436294096472,15.5356687081262
367,1436294097186,16.8349855480261
368,1436294097847,19.0131656918882
369,1436294098594,18.2909678756134
370,1436294099335,17.9001313339148
371,1436294100071,17.1962798989302
372,1436294100815,14.5896553134742
373,1436294101557,15.2370114547856
374,1436294102306,19.3649441153478
375,1436294103066,16.1818499265102
376,1436294103819,19.045939592976
377,1436294104556,15.4289189581523
378,1436294105273,15.7437511973394
379,1436294106020,15.7956618898903
380,1436294106768,17.4295202165129
381,1436294107507,16.6315480050908
382,1436294108224,19.4103733026889
383,1436294108941,19.5804630361474
384,1436294109707,14.1197920310425
385,1436294110431,16.3074970402675
386,1436294111185,17.1384245413396
387,1436294111925,18.5317936165544
388,1436294112714,16.3456527009621
389,1436294113444,15.8595080006204
390,1436294114161,19.0074294764465
391,1436294114950,19.8607549504881
392,1436294115715,15.3466585733746
393,1436294116468,17.3540018816147
394,1436294117204,15.7146446735863
395,1436294117931,15.9501441931705
396,1436294118691,15.3940817188657
397,1436294119437,14.1583375544099
398,1436294120136,15.6572823901084
399,1436294120724,15.7865989202656
400,1436294121405,16.2488982748459
401,1436294122133,21.5189532004944
402,1436294122842,14.5537656302689
403,1436294123580,16.2991001872101
404,1436294124323,16.0374838284952
405,1436294125037,15.7281951133652
406,1436294125789,16.9752129736336
407,1436294126534,15.9386284867578
408,1436294127289,14.1887453785159
409,1436294128039,17.4125533307917
410,1436294128764,17.0455275755286
411,1436294129509,17.7495709671105
412,1436294130245,24.6079525721167
413,1436294130993,14.6930548449148
414,1436294131773,15.9405199377392
415,1436294132495,14.855825055921
416,1436294133227,18.8600380899819
417,1436294133965,16.6015815963013
418,1436294134733,16.866757507275
419,1436294135433,16.8735557896975
420,1436294136101,14.6408102757258
421,1436294136860,19.98451979095
422,1436294137591,13.7560399682007
423,1436294138321,17.6003527307867
424,1436294139039,18.1434756660781
425,1436294139791,18.0780793696377
426,1436294140540,16.2440582643872
427,1436294141311,13.9609756497869
428,1436294142078,14.8840247534769
429,1436294142826,17.363147938597
430,1436294143575,14.7535161700798
431,1436294144316,16.2353092173476
432,1436294145031,17.9749402714767
433,1436294145774,16.6941572391475
434,1436294146526,19.2028181361137
435,1436294147257,12.7355690075529
436,1436294148007,13.8713086467281
437,1436294148814,15.8915976037948
438,1436294149509,14.116682184806
439,1436294150136,16.2047071840239
440,1436294150847,16.2521358433981
441,1436294151597,18.4428056889752
442,1436294152351,17.5536619546336
443,1436294153085,19.1141987633435
444,1436294153823,16.9620188506919
445,1436294154581,15.0900554189947
446,1436294155319,15.9535214200251
447,1436294156014,14.9507457693176
448,1436294156747,16.902967229798
449,1436294157530,15.0854817439914
450,1436294158235,14.727589373635
451,1436294158954,15.3081004124472
452,1436294159722,17.5154817952084
453,1436294160455,17.9583148899499
454,1436294161144,16.9709830047831
455,1436294161869,15.7093229141769
456,1436294162554,18.4492622614884
457,1436294163264,16.2871796120034
458,1436294163996,31.7897770653109
459,1436294164760,33.9192162374119
460,1436294165475,17.9070842440701
461,1436294167001,18.5034268025077
462,1436294167673,15.0403432480412
463,1436294168419,15.0714783746394
464,1436294169140,17.1260532383962
465,1436294169870,15.5590343057188
466,1436294170618,14.4534556022392
467,1436294171343,17.7018205885866
468,1436294172127,16.0999891333133
469,1436294172846,17.2431791410433
470,1436294173604,16.5660962540138
471,1436294174327,18.7288657127569
472,1436294175088,17.7297188572819
473,1436294175835,17.5160224301037
474,1436294176652,16.1340956791838
475,1436294177379,14.7055542923353
476,1436294178120,15.3023920148183
477,1436294178844,17.5527029409948
478,1436294179566,13.6560030112605
479,1436294181424,18.0628652842252
480,1436294182234,14.8335072468608
481,1436294182932,18.0454798262892
482,1436294183696,17.3952504789971
483,1436294184436,16.5001577534693
484,1436294185173,15.9264289293539
485,1436294185918,16.8599155484735
486,1436294186716,19.2568956712327
487,1436294187452,21.7646823159733
488,1436294188183,20.4507947695822
489,1436294188909,18.5094480179402
490,1436294189677,17.5912787883756
491,1436294190419,15.7752304776333
492,1436294191140,16.0286562227093
493,1436294191861,13.1363425377547
494,1436294192624,14.0010001384204
495,1436294193333,29.0512736301693
496,1436294194075,14.2865623193484
497,1436294194826,13.8995829514885
498,1436294195568,15.8500244803121
499,1436294196295,14.4295877274003
500,1436294197052,15.6290911666417
501,1436294197785,14.1362779666546
502,1436294198510,17.8732505383341
503,1436294199244,17.0769291562308
504,1436294199985,17.5777300272213
505,1436294200765,13.4241269931031
506,1436294201450,18.9567619512807
507,1436294202258,16.24756297606
508,1436294204356,16.5772554011173
509,1436294205101,17.0374690652981
510,1436294205829,18.4370402036518
511,1436294206566,15.4417025930691
512,1436294207370,15.5575769305674
513,1436294208099,14.8694110559457
514,1436294208833,15.6045361595193
515,1436294209668,15.4934093551584
516,1436294210404,16.7441598640389
517,1436294211145,16.7487031311695
518,1436294211934,14.8902947767382
519,1436294212731,14.5630449696249
520,1436294213462,17.2659704758317
521,1436294214197,15.2960674987737
522,1436294214924,18.0789244030971
523,1436294215683,16.8291359412565
524,1436294217221,14.9988949505501
525,1436294217926,14.9922273975384
526,1436294218645,14.8401989957573
527,1436294219367,15.4215504923456
528,1436294220108,17.6025777948774
529,1436294220848,17.0102746973472
530,1436294221480,15.1487324999823
531,1436294222172,17.60318718302
532,1436294222897,15.0209961683904
533,1436294223677,19.2331266187993
534,1436294224416,17.2870829081665
535,1436294225155,14.8637011709078
536,1436294225894,15.4221991471033
537,1436294226649,19.9488674081548
538,1436294227458,16.971958459796
539,1436294228195,17.5890152415328
540,1436294228919,16.4373311103594
541,1436294229691,16.514536748157
542,1436294230416,20.0186622508359
543,1436294231133,18.649005293273
544,1436294231871,16.8410399036497
545,1436294232624,16.6516396408889
546,1436294233348,17.1250054647576
547,1436294234087,17.431681087162
548,1436294234834,18.82100696183
549,1436294235575,20.0673160872056
550,1436294236296,16.2002350673734
551,1436294237049,17.5693652932004
552,1436294237786,16.7708334002217
553,1436294238536,15.0512560125504
554,1436294239256,16.8411491443211
555,1436294239958,16.1442736382604
556,1436294240616,16.7562646694047
557,1436294241301,16.1730464972739
558,1436294242087,15.4379025162918
559,1436294242808,17.6722714279262
560,1436294243576,17.5030542815696
561,1436294244325,16.3060849776016
562,1436294245056,16.9366202608994
563,1436294245803,15.8600582702959
564,1436294246539,15.8525645640001
565,1436294247284,17.607446248108
566,1436294248011,19.6643076466747
567,1436294248770,14.3782280212955
568,1436294249490,18.9276047770823
569,1436294250215,19.574769851135
570,1436294250938,17.650050068297
571,1436294251711,18.0590554416309
572,1436294252530,16.0361334201909
573,1436294253266,19.3632006082535
574,1436294253999,20.3297539166321
575,1436294254767,19.051587288153
