id,attr_time,attr_x,attr_y,attr_z
1,1438190587072,3.068,22.013,-55.851
2,1438190587073,3.068,22.013,-55.851
3,1438190587074,3.068,22.013,-55.851
4,1438190587075,3.068,22.013,-55.851
5,1438190587089,3.068,22.013,-55.851
6,1438190587111,3.068,22.013,-55.851
7,1438190587128,3.068,22.013,-55.851
8,1438190587153,3.068,22.013,-55.851
9,1438190587168,3.068,22.013,-55.851
10,1438190587188,3.068,22.013,-55.851
11,1438190587209,3.068,22.013,-55.851
12,1438190587229,3.068,22.013,-55.851
13,1438190587251,3.068,22.013,-55.851
14,1438190587271,3.068,22.013,-55.851
15,1438190587288,3.068,22.013,-55.851
16,1438190587311,3.068,22.013,-55.851
17,1438190587329,3.068,22.013,-55.851
18,1438190587351,3.068,22.013,-55.851
19,1438190587371,3.068,22.013,-55.851
20,1438190587391,3.068,22.013,-55.851
21,1438190587411,3.068,22.013,-55.851
22,1438190587428,3.068,22.013,-55.851
23,1438190587449,3.068,22.013,-55.851
24,1438190587471,3.068,22.013,-55.851
25,1438190587491,3.068,22.013,-55.851
26,1438190587509,3.068,22.013,-55.851
27,1438190587530,3.068,22.013,-55.851
28,1438190587550,3.068,22.013,-55.851
29,1438190587571,3.068,22.013,-55.851
30,1438190587591,3.068,22.013,-55.851
31,1438190587611,3.068,22.013,-55.851
32,1438190587631,3.068,22.013,-55.851
33,1438190587650,3.068,22.013,-55.851
34,1438190587670,3.068,22.013,-55.851
35,1438190587690,3.068,21.71,-55.851
36,1438190587708,3.068,21.71,-55.851
37,1438190587778,3.068,21.71,-55.851
38,1438190587782,3.068,21.71,-55.851
39,1438190587783,3.068,21.71,-55.851
40,1438190587795,3.384,21.71,-55.851
41,1438190587808,3.384,21.71,-55.851
42,1438190587833,3.384,21.71,-55.851
43,1438190587848,3.384,21.71,-55.851
44,1438190587868,3.384,21.71,-55.851
45,1438190587891,3.384,21.71,-55.851
46,1438190587910,3.384,21.71,-55.851
47,1438190587931,3.384,21.71,-55.851
48,1438190587949,3.384,21.71,-55.851
49,1438190587970,3.384,21.71,-55.851
50,1438190587991,3.384,21.395,-55.851
51,1438190588012,3.384,21.395,-55.851
52,1438190588032,3.384,21.395,-55.851
53,1438190588049,3.384,21.395,-55.851
54,1438190588069,3.384,21.038,-55.851
55,1438190588089,3.384,21.038,-55.851
56,1438190588109,3.384,21.038,-55.506
57,1438190588129,3.051,20.564,-55.506
58,1438190588149,3.051,19.744,-55.506
59,1438190588171,3.051,18.447,-55.506
60,1438190588197,2.708,16.787,-55.194
61,1438190588211,2.708,15.153,-55.194
62,1438190588233,2.301,13.229,-55.194
63,1438190588250,1.832,11.66,-54.826
64,1438190588271,1.306,9.779,-54.826
65,1438190588294,0.865,8.122,-53.691
66,1438190588311,0.152,6.311,-52.74
67,1438190588331,-0.828,4.124,-52.072
68,1438190588355,-2.238,2.403,-51.278
69,1438190588371,-3.486,0.828,-51.278
70,1438190588392,-4.248,-0.833,-50.202
71,1438190588409,-5.686,-1.921,-50.202
72,1438190588432,-7.156,-3.294,-49.311
73,1438190588459,-7.785,-4.515,-49.311
74,1438190588514,-8.999,-5.577,-48.588
75,1438190588515,-8.999,-7.249,-48.103
76,1438190588516,-10.069,-7.902,-48.103
77,1438190588540,-11.152,-9.132,-48.103
78,1438190588549,-12.849,-9.132,-48.103
79,1438190588577,-13.945,-10.224,-48.448
80,1438190588590,-15.107,-11.253,-48.448
81,1438190588611,-15.974,-11.866,-48.448
82,1438190588630,-16.716,-12.684,-48.031
83,1438190588651,-17.555,-13.296,-48.031
84,1438190588669,-18.708,-14.285,-48.405
85,1438190588690,-19.259,-15.165,-48.405
86,1438190588713,-20.288,-15.962,-48.405
87,1438190588732,-21.202,-16.377,-48.077
88,1438190588751,-21.202,-17.593,-48.077
89,1438190588770,-21.714,-18.209,-48.077
90,1438190588791,-22.593,-18.209,-48.077
91,1438190588813,-23.504,-18.766,-48.077
92,1438190588833,-24.218,-19.079,-48.077
93,1438190588851,-24.913,-19.079,-48.077
94,1438190588870,-25.245,-19.686,-48.077
95,1438190588890,-25.917,-19.686,-48.077
96,1438190588912,-26.87,-20.048,-48.077
97,1438190588932,-26.87,-20.048,-48.387
98,1438190588953,-28.022,-20.048,-48.387
99,1438190588974,-28.022,-20.048,-48.387
100,1438190588990,-28.022,-20.686,-48.387
101,1438190589010,-28.479,-20.686,-48.387
102,1438190589033,-28.479,-20.686,-48.731
103,1438190589053,-29.074,-21.2,-48.731
104,1438190589073,-29.074,-21.2,-48.731
105,1438190589091,-29.074,-20.881,-48.731
106,1438190589112,-29.385,-20.881,-49.057
107,1438190589132,-29.385,-20.881,-49.057
108,1438190589151,-29.786,-20.881,-49.057
109,1438190589172,-29.786,-20.881,-49.057
110,1438190589195,-29.786,-20.881,-49.057
111,1438190589272,-29.786,-21.26,-49.057
112,1438190589273,-29.786,-21.26,-49.404
113,1438190589274,-29.786,-21.26,-49.404
114,1438190589275,-29.786,-21.611,-49.404
115,1438190589291,-29.786,-21.611,-49.404
116,1438190589316,-29.786,-21.611,-49.404
117,1438190589330,-29.786,-21.611,-49.725
118,1438190589350,-29.786,-21.611,-49.725
119,1438190589386,-29.786,-21.611,-49.725
120,1438190589390,-30.088,-21.926,-50.036
121,1438190589412,-30.088,-21.926,-50.036
122,1438190589431,-30.088,-21.926,-50.036
123,1438190589451,-30.088,-21.926,-50.361
124,1438190589471,-30.088,-21.926,-50.361
125,1438190589492,-30.088,-21.926,-50.361
126,1438190589511,-29.73,-21.926,-50.361
127,1438190589533,-29.73,-21.926,-50.361
128,1438190589553,-29.241,-21.926,-50.701
129,1438190589573,-28.785,-21.926,-50.701
130,1438190589592,-28.785,-21.926,-50.701
131,1438190589611,-28.785,-21.926,-50.701
132,1438190589633,-28.306,-21.926,-50.701
133,1438190589652,-28.306,-21.926,-50.701
134,1438190589673,-28.306,-21.62,-50.701
135,1438190589690,-28.306,-21.62,-50.701
136,1438190589713,-28.306,-21.301,-50.701
137,1438190589733,-27.992,-20.977,-50.701
138,1438190589752,-27.992,-20.529,-50.701
139,1438190589773,-27.992,-19.946,-50.701
140,1438190589795,-27.992,-19.639,-50.701
141,1438190589814,-27.658,-19.639,-50.701
142,1438190589834,-27.658,-19.639,-50.701
143,1438190589851,-27.658,-18.928,-50.701
144,1438190589873,-27.345,-18.928,-50.701
145,1438190589896,-27.345,-19.471,-50.701
146,1438190589920,-27.021,-19.471,-50.701
147,1438190589980,-26.608,-19.471,-50.701
148,1438190589981,-25.5,-19.471,-50.305
149,1438190589982,-24.792,-19.149,-50.305
150,1438190590005,-23.573,-19.149,-50.305
151,1438190590010,-22.64,-19.149,-50.305
152,1438190590034,-21.885,-18.699,-50.305
153,1438190590051,-20.851,-18.699,-50.305
154,1438190590071,-19.485,-18.699,-50.305
155,1438190590093,-18.742,-18.336,-50.305
156,1438190590111,-17.379,-18.336,-50.305
157,1438190590133,-16.734,-18.336,-50.305
158,1438190590159,-15.646,-16.505,-50.305
159,1438190590172,-14.306,-14.744,-50.305
160,1438190590191,-12.757,-13.189,-50.305
161,1438190590213,-11.073,-11.346,-50.862
162,1438190590232,-8.921,-9.507,-52.082
163,1438190590255,-6.999,-7.284,-52.468
164,1438190590271,-5.778,-5.194,-53.46
165,1438190590294,-4.26,-3.143,-53.981
166,1438190590311,-2.896,-1.979,-54.748
167,1438190590333,-1.445,-1.048,-55.392
168,1438190590355,-0.878,-0.08,-56.005
169,1438190590373,0.134,0.305,-56.005
170,1438190590397,0.134,1.489,-56.005
171,1438190590415,0.134,1.924,-56.681
172,1438190590435,0.791,2.853,-56.681
173,1438190590456,0.791,3.639,-56.681
174,1438190590477,1.251,4.067,-57.095
175,1438190590493,1.791,5.055,-56.777
176,1438190590512,1.791,5.92,-56.777
177,1438190590531,1.791,6.634,-57.614
178,1438190590551,1.791,7.595,-57.614
179,1438190590578,2.232,8.084,-57.614
180,1438190590597,2.885,9.338,-57.614
181,1438190590618,2.885,9.909,-57.614
182,1438190590634,2.885,10.954,-58.024
183,1438190590654,2.885,11.825,-58.024
184,1438190590734,2.885,12.705,-58.024
185,1438190590735,2.885,13.314,-58.024
186,1438190590736,2.885,13.76,-58.39
187,1438190590737,2.885,13.76,-58.721
188,1438190590755,2.885,14.192,-58.721
189,1438190590777,3.277,14.192,-58.721
190,1438190590791,3.277,14.192,-59.103
191,1438190590819,3.277,14.192,-59.103
192,1438190590831,3.277,13.89,-59.103
193,1438190590855,3.277,13.89,-59.483
194,1438190590879,3.616,13.89,-59.483
195,1438190590893,3.616,13.531,-59.483
196,1438190590912,3.616,13.531,-59.483
197,1438190590934,3.616,13.531,-59.483
198,1438190590955,3.953,13.531,-59.483
199,1438190590975,3.953,13.531,-59.483
200,1438190590994,3.953,13.531,-59.483
201,1438190591015,3.953,13.89,-59.483
202,1438190591034,3.953,13.89,-59.483
203,1438190591054,3.953,13.89,-59.483
204,1438190591076,3.953,14.196,-59.483
205,1438190591094,3.953,14.196,-59.483
206,1438190591117,3.953,14.196,-59.483
207,1438190591131,3.953,14.196,-59.483
208,1438190591263,3.953,14.196,-59.483
209,1438190591264,3.953,14.196,-59.483
210,1438190591309,3.953,14.196,-59.483
211,1438190591310,3.953,14.196,-59.483
212,1438190591311,3.953,14.196,-59.483
213,1438190591312,3.953,14.196,-59.823
214,1438190591313,3.953,14.196,-59.823
215,1438190591314,3.953,14.196,-60.423
216,1438190591315,3.953,14.196,-60.423
217,1438190591332,3.953,14.196,-60.423
218,1438190591352,3.953,14.196,-60.423
219,1438190591372,3.953,14.196,-60.423
220,1438190591392,3.953,14.505,-60.423
221,1438190591433,3.953,14.505,-60.423
222,1438190591434,3.953,14.505,-60.804
223,1438190591452,3.953,14.927,-60.804
224,1438190591472,3.953,14.927,-60.804
225,1438190591492,3.953,15.744,-60.804
226,1438190591512,3.953,16.387,-60.804
227,1438190591535,3.953,17.054,-61.161
228,1438190591552,3.953,17.518,-61.161
229,1438190591573,3.953,18.266,-61.161
230,1438190591598,3.953,18.753,-61.161
231,1438190591612,3.953,19.335,-61.557
232,1438190591632,3.953,19.335,-61.557
233,1438190591652,3.953,19.792,-62.763
234,1438190591672,3.953,20.12,-64.581
235,1438190591692,3.953,20.12,-65.797
236,1438190591712,4.328,19.49,-67.877
237,1438190591732,4.328,19.49,-68.548
238,1438190591752,4.328,19.49,-69.83
239,1438190591772,4.328,19.49,-70.68
240,1438190591792,5.084,19.49,-71.546
241,1438190591813,5.084,19.49,-72.634
242,1438190591835,5.084,19.49,-73.207
243,1438190591853,5.084,19.49,-73.986
244,1438190591871,5.084,19.83,-73.986
245,1438190591892,5.084,19.83,-74.449
246,1438190591913,5.456,19.83,-75.177
247,1438190591935,5.456,19.83,-74.719
248,1438190591952,5.456,19.83,-75.303
249,1438190591975,5.456,19.83,-75.303
250,1438190591996,5.812,19.83,-75.303
251,1438190592013,5.812,19.387,-75.303
252,1438190592033,5.812,19.387,-75.303
253,1438190592051,5.812,18.827,-75.303
254,1438190592076,5.812,18.827,-74.562
255,1438190592102,5.812,18.827,-74.562
256,1438190592112,5.812,18.827,-74.067
257,1438190592131,5.812,18.827,-74.067
258,1438190592152,5.812,18.476,-74.578
259,1438190592173,5.812,18.476,-74.578
260,1438190592196,5.812,18.476,-74.578
261,1438190592212,5.812,18.476,-74.578
262,1438190592233,6.121,18.476,-74.578
263,1438190592253,6.121,18.476,-74.578
264,1438190592277,6.121,18.476,-74.578
265,1438190592296,6.121,18.476,-74.578
266,1438190592312,6.121,18.998,-74.038
267,1438190592336,6.121,19.526,-73.457
268,1438190592357,6.427,19.915,-73.023
269,1438190592377,6.427,20.26,-72.595
270,1438190592396,6.427,20.773,-72.595
271,1438190592418,6.427,20.773,-72.595
272,1438190592438,6.427,20.773,-72.009
273,1438190592455,6.427,20.773,-72.009
274,1438190592477,6.427,20.773,-71.482
275,1438190592496,6.427,21.17,-71.482
276,1438190592517,6.427,21.17,-71.482
277,1438190592536,6.427,21.17,-71.482
278,1438190592557,6.427,21.17,-71.482
279,1438190592576,6.427,21.17,-71.482
280,1438190594235,6.427,21.17,-71.13
281,1438190594236,6.427,21.47,-71.13
282,1438190594237,6.072,21.47,-70.797
283,1438190594238,6.072,21.47,-70.797
284,1438190594239,6.072,21.47,-70.797
285,1438190594240,6.072,21.47,-70.413
286,1438190594241,6.072,21.47,-70.413
287,1438190594242,6.072,21.47,-70.413
288,1438190594243,6.072,21.803,-70.413
289,1438190594244,6.072,21.803,-70.413
290,1438190594245,6.072,21.803,-70.413
291,1438190594246,6.072,21.803,-70.109
292,1438190594247,6.072,21.803,-70.109
293,1438190594248,6.072,21.803,-70.109
294,1438190594249,6.072,21.803,-70.109
295,1438190594250,6.072,22.119,-70.109
296,1438190594251,6.072,22.119,-70.109
297,1438190594252,6.072,22.119,-70.109
298,1438190594253,6.072,22.119,-70.109
299,1438190594254,6.072,22.119,-70.109
300,1438190594255,6.072,22.119,-70.109
301,1438190594256,6.072,22.119,-69.792
302,1438190594257,6.072,22.457,-69.792
303,1438190594258,6.072,22.457,-69.792
304,1438190594259,6.072,22.457,-69.792
305,1438190594260,6.072,22.457,-69.792
306,1438190594261,6.072,22.804,-69.49
307,1438190594262,6.072,22.804,-69.49
308,1438190594263,5.732,22.804,-69.49
309,1438190594264,5.732,22.804,-69.49
310,1438190594265,5.732,22.804,-69.49
311,1438190594266,5.732,23.165,-69.49
312,1438190594267,5.732,23.165,-69.49
313,1438190594268,5.732,23.165,-69.49
314,1438190594269,5.398,23.524,-69.49
315,1438190594270,5.398,23.524,-69.49
316,1438190594271,5.398,24.296,-69.49
317,1438190594272,5.398,25.466,-69.49
318,1438190594273,5.398,26.649,-70.196
319,1438190594274,5.398,27.641,-71.025
320,1438190594275,5.084,29.135,-71.481
321,1438190594276,5.084,30.198,-72.54
322,1438190594277,5.084,31.167,-73.239
323,1438190594278,4.718,32.456,-73.75
324,1438190594279,4.718,33.708,-74.389
325,1438190594280,4.386,35.27,-74.859
326,1438190594281,3.915,37.084,-75.267
327,1438190594282,2.774,38.16,-76.029
328,1438190594283,1.817,39.579,-76.359
329,1438190594284,-0.248,42.074,-76.359
330,1438190594285,-0.248,43.052,-76.957
331,1438190594286,-1.768,44.895,-76.957
332,1438190594287,-3.038,46.27,-76.957
333,1438190594288,-3.753,47.566,-77.519
334,1438190594289,-3.753,47.903,-77.182
335,1438190594290,-4.505,48.385,-77.182
336,1438190594291,-4.505,49.276,-77.182
337,1438190594292,-5.4,50.131,-77.182
338,1438190594293,-6.533,50.885,-77.182
339,1438190594294,-6.533,50.885,-77.182
340,1438190594295,-7.417,52.13,-77.182
341,1438190594296,-8.433,53.155,-77.182
342,1438190594297,-8.923,53.717,-77.49
343,1438190594298,-9.878,54.264,-77.49
344,1438190594299,-10.38,54.264,-77.853
345,1438190594300,-10.38,55.012,-77.853
346,1438190594301,-10.833,55.012,-78.271
347,1438190594302,-10.833,54.708,-78.271
348,1438190594303,-10.833,55.142,-79.032
349,1438190594304,-11.627,55.142,-80.21
350,1438190594305,-12.094,55.142,-81.065
351,1438190594306,-12.094,55.142,-82.418
352,1438190594307,-12.614,55.142,-83.836
353,1438190594308,-12.614,55.142,-83.836
354,1438190594309,-12.614,55.142,-84.739
355,1438190594310,-13.488,55.589,-84.739
356,1438190594311,-13.488,55.589,-84.739
357,1438190594312,-12.965,55.589,-84.156
358,1438190594313,-12.965,55.154,-83.618
359,1438190594314,-12.965,55.154,-83.618
360,1438190594315,-12.557,55.455,-82.975
361,1438190594316,-12.557,55.455,-82.577
362,1438190594317,-12.557,55.455,-82.577
363,1438190594318,-12.557,55.805,-82.577
364,1438190594319,-12.956,55.805,-83.033
365,1438190594320,-12.956,55.805,-83.412
366,1438190594321,-12.956,55.805,-83.412
367,1438190594333,-12.956,55.805,-83.784
368,1438190594353,-12.956,55.805,-83.784
369,1438190594373,-12.956,55.805,-83.784
370,1438190594406,-12.956,55.805,-84.141
371,1438190594413,-13.272,55.805,-84.141
372,1438190594433,-13.272,55.805,-84.141
373,1438190594453,-13.272,55.805,-84.141
374,1438190594474,-13.272,55.805,-84.141
375,1438190594496,-12.95,55.805,-84.141
376,1438190594517,-12.95,55.805,-84.519
377,1438190594535,-12.95,55.805,-84.873
378,1438190594558,-12.95,55.805,-85.673
379,1438190594577,-12.95,55.453,-85.673
380,1438190594597,-12.95,55.453,-86.198
381,1438190594617,-12.95,55.453,-86.198
382,1438190594637,-12.608,55.453,-86.547
383,1438190594657,-12.608,55.128,-86.547
384,1438190594678,-12.608,55.128,-86.547
385,1438190594697,-12.608,55.128,-86.547
386,1438190594718,-12.608,55.128,-86.547
387,1438190594738,-12.608,55.128,-86.547
388,1438190594755,-12.608,54.753,-86.547
389,1438190594775,-12.608,54.753,-86.95
390,1438190594798,-12.608,54.753,-86.95
391,1438190594834,-12.608,54.753,-87.255
392,1438190594835,-12.608,54.753,-87.255
393,1438190594857,-12.608,54.753,-87.255
394,1438190594879,-12.608,54.753,-87.255
395,1438190594895,-12.608,54.753,-87.617
396,1438190594918,-12.608,54.753,-87.617
397,1438190594937,-12.608,54.753,-87.617
398,1438190594961,-12.608,54.753,-87.617
399,1438190594976,-12.608,54.753,-87.617
400,1438190594996,-12.608,54.753,-87.617
401,1438190595018,-12.608,54.753,-87.617
402,1438190595035,-12.608,54.753,-87.617
403,1438190595058,-12.608,54.753,-87.617
404,1438190595079,-12.608,54.753,-87.617
405,1438190595098,-12.608,54.753,-87.617
406,1438190595119,-12.608,54.753,-87.617
407,1438190595139,-12.608,54.753,-87.617
408,1438190595158,-12.608,54.753,-87.928
409,1438190595176,-12.608,54.753,-87.928
410,1438190595213,-12.608,54.753,-87.928
411,1438190595215,-12.924,54.753,-87.928
412,1438190595236,-12.924,54.753,-87.928
413,1438190595256,-12.924,54.753,-87.928
414,1438190595278,-12.924,54.753,-87.928
415,1438190595298,-12.924,54.753,-87.928
416,1438190595319,-12.924,54.753,-87.928
417,1438190595340,-12.924,54.753,-87.928
418,1438190595360,-12.924,54.753,-87.928
419,1438190595380,-12.924,54.753,-87.928
420,1438190595396,-12.924,54.753,-87.928
421,1438190595417,-12.924,54.753,-87.928
422,1438190595437,-12.924,54.753,-87.928
423,1438190595457,-12.924,54.753,-87.928
424,1438190595479,-12.924,54.753,-87.928
425,1438190595546,-12.924,54.753,-87.928
426,1438190595547,-12.924,54.753,-87.928
427,1438190595548,-12.924,54.753,-87.928
428,1438190595557,-12.924,54.753,-87.928
429,1438190595576,-12.924,54.753,-87.928
430,1438190595597,-12.924,54.753,-87.928
431,1438190595618,-12.924,54.753,-87.928
432,1438190595638,-12.924,54.753,-87.928
433,1438190595658,-12.924,54.753,-87.928
434,1438190595677,-12.924,54.753,-87.928
435,1438190595698,-12.924,55.059,-87.928
436,1438190595717,-12.924,55.059,-87.928
437,1438190595736,-12.924,55.059,-87.928
438,1438190595759,-12.924,55.059,-87.928
439,1438190595779,-12.924,55.059,-87.928
440,1438190595800,-12.924,55.059,-87.928
441,1438190595819,-12.924,55.059,-87.928
442,1438190595840,-12.924,55.059,-87.928
443,1438190595859,-12.924,55.059,-87.928
444,1438190595879,-12.924,55.059,-87.928
445,1438190595901,-12.924,55.059,-87.928
446,1438190595917,-12.924,55.059,-87.928
447,1438190595938,-12.924,55.059,-87.623
448,1438190595959,-12.924,55.059,-87.623
449,1438190595978,-12.924,55.059,-87.623
450,1438190596000,-12.924,55.059,-87.623
451,1438190596019,-12.924,55.059,-87.623
452,1438190596039,-12.547,54.708,-87.623
453,1438190596059,-12.547,54.708,-87.623
454,1438190596080,-12.547,54.708,-87.623
455,1438190596100,-12.547,54.708,-87.623
456,1438190596118,-12.547,54.397,-87.623
457,1438190596138,-12.203,54.397,-87.623
458,1438190596160,-12.203,54.397,-87.623
459,1438190596360,-12.203,54.397,-87.623
460,1438190596361,-12.203,54.397,-87.623
461,1438190596362,-12.203,54.397,-87.623
462,1438190596363,-12.203,54.397,-87.623
463,1438190596364,-12.203,54.397,-87.623
464,1438190596365,-12.203,54.397,-87.623
465,1438190596366,-12.203,54.397,-87.623
466,1438190596367,-12.203,54.397,-87.623
467,1438190596368,-12.203,54.397,-87.623
468,1438190596369,-12.203,54.397,-87.623
469,1438190596383,-12.203,54.397,-87.979
470,1438190596397,-12.203,54.397,-87.979
471,1438190596417,-12.203,54.397,-87.979
472,1438190596437,-12.554,54.397,-87.979
473,1438190596457,-12.554,54.397,-87.979
474,1438190596491,-12.554,54.397,-87.979
475,1438190596499,-12.554,54.397,-87.979
476,1438190596518,-12.554,54.397,-88.294
477,1438190596540,-12.554,54.397,-88.294
478,1438190596560,-12.554,54.397,-88.294
479,1438190596580,-12.554,54.397,-88.294
480,1438190596600,-12.554,54.397,-88.294
481,1438190596618,-12.554,54.397,-88.294
482,1438190596641,-12.554,54.397,-88.294
483,1438190596660,-12.554,54.397,-88.294
484,1438190596680,-12.554,54.397,-88.294
485,1438190596700,-12.554,54.397,-88.294
486,1438190596720,-12.554,54.397,-88.294
487,1438190596741,-12.554,54.397,-88.294
488,1438190596758,-12.554,54.397,-88.294
489,1438190596780,-12.231,54.397,-88.294
490,1438190596800,-12.231,54.397,-88.294
491,1438190596820,-12.231,54.397,-88.294
492,1438190596838,-12.231,54.397,-88.294
493,1438190596857,-12.231,54.397,-88.294
494,1438190596883,-11.906,54.397,-88.294
495,1438190596903,-11.906,54.089,-88.294
496,1438190596925,-11.906,54.089,-87.959
497,1438190596941,-11.906,54.089,-87.959
498,1438190596958,-11.906,54.089,-87.959
499,1438190596979,-11.906,54.089,-87.959
500,1438190596998,-11.906,54.089,-87.959
501,1438190597018,-11.906,54.089,-87.959
502,1438190597038,-11.906,54.089,-87.959
