id,attr_time,attr_x,attr_y,attr_z
1,1438190587032,34.384,-33.341,-0.617
2,1438190587055,34.384,-33.341,-0.617
3,1438190587134,34.384,-33.341,-0.617
4,1438190587135,34.384,-33.341,-0.617
5,1438190587136,34.384,-33.341,-0.617
6,1438190587137,34.384,-33.341,-0.617
7,1438190587152,34.384,-33.341,-0.617
8,1438190587171,34.384,-33.341,-0.617
9,1438190587193,34.384,-33.341,-0.617
10,1438190587212,34.384,-33.341,-0.617
11,1438190587233,34.384,-33.341,-0.617
12,1438190587253,34.384,-33.341,-0.617
13,1438190587272,34.384,-33.036,-0.617
14,1438190587293,34.384,-33.036,-0.617
15,1438190587313,34.384,-33.036,-0.309
16,1438190587332,34.384,-33.036,-0.309
17,1438190587353,34.384,-33.036,-0.309
18,1438190587381,34.384,-33.036,-0.309
19,1438190587392,34.384,-33.036,-0.309
20,1438190587413,34.384,-33.036,-0.309
21,1438190587431,34.384,-33.036,-0.309
22,1438190587452,34.384,-33.036,-0.309
23,1438190587472,34.384,-33.036,-0.309
24,1438190587493,34.384,-33.036,-0.309
25,1438190587513,34.384,-33.036,-0.309
26,1438190587533,34.384,-33.036,-0.309
27,1438190587553,34.384,-33.036,-0.309
28,1438190587572,34.384,-33.036,-0.309
29,1438190587591,34.384,-33.036,-0.309
30,1438190587614,34.384,-33.036,-0.309
31,1438190587633,34.384,-33.036,-0.309
32,1438190587653,34.384,-33.036,-0.309
33,1438190587673,34.384,-33.036,-0.309
34,1438190587693,34.384,-33.036,-0.309
35,1438190587715,34.384,-33.036,-0.309
36,1438190587733,34.384,-33.036,-0.309
37,1438190587753,34.384,-33.036,-0.309
38,1438190587772,34.384,-33.036,-0.309
39,1438190587794,34.384,-33.036,-0.309
40,1438190587814,34.384,-33.036,-0.309
41,1438190587841,34.384,-33.036,-0.309
42,1438190587855,34.384,-33.036,-0.309
43,1438190587875,34.384,-33.036,-0.309
44,1438190587894,34.384,-33.036,-0.309
45,1438190587912,34.384,-33.036,-0.309
46,1438190587932,34.384,-33.036,-0.309
47,1438190587953,34.384,-33.036,-0.309
48,1438190587973,34.384,-33.036,-0.309
49,1438190588019,34.384,-33.036,-0.309
50,1438190588020,34.384,-33.036,-0.309
51,1438190588068,34.384,-33.036,-0.309
52,1438190588069,34.384,-33.036,-0.309
53,1438190588074,34.384,-33.036,-0.309
54,1438190588103,34.384,-33.036,-0.309
55,1438190588113,34.384,-33.036,-0.309
56,1438190588134,34.384,-33.036,-0.309
57,1438190588154,34.384,-33.036,-0.309
58,1438190588172,34.384,-33.036,-0.309
59,1438190588193,34.384,-33.036,-0.309
60,1438190588214,34.384,-33.036,-0.309
61,1438190588233,34.384,-33.036,-0.309
62,1438190588254,34.384,-33.036,-0.309
63,1438190588275,34.384,-33.036,-0.309
64,1438190588294,34.384,-33.036,-0.309
65,1438190588313,34.384,-33.036,-0.309
66,1438190588334,34.384,-33.036,-0.309
67,1438190588354,34.384,-33.036,-0.309
68,1438190588375,34.384,-33.036,-0.309
69,1438190588394,34.384,-33.036,-0.309
70,1438190588414,34.384,-33.036,-0.309
71,1438190588434,34.384,-33.036,-0.309
72,1438190588453,34.384,-33.036,-0.309
73,1438190588474,34.384,-33.036,-0.309
74,1438190588495,34.384,-33.351,-0.309
75,1438190588514,34.384,-33.351,-0.309
76,1438190588534,34.384,-33.351,-0.309
77,1438190588553,34.384,-33.351,-0.309
78,1438190588574,34.384,-33.351,-0.309
79,1438190588593,34.043,-33.351,-0.309
80,1438190588615,34.043,-33.351,-0.309
81,1438190588635,34.043,-33.351,-0.309
82,1438190588654,34.043,-33.351,0.018
83,1438190588676,34.043,-33.351,0.018
84,1438190588698,34.043,-33.711,0.018
85,1438190588715,33.647,-33.711,0.479
86,1438190588738,33.647,-33.711,0.479
87,1438190588796,33.647,-33.711,1.66
88,1438190588797,33.221,-34.077,2.253
89,1438190588798,33.221,-34.077,3.144
90,1438190588817,32.373,-34.381,3.897
91,1438190588833,31.628,-34.381,4.798
92,1438190588861,30.886,-34.715,5.734
93,1438190588873,29.724,-35.299,5.734
94,1438190588894,28.935,-35.813,6.21
95,1438190588916,28.233,-36.196,7.403
96,1438190588937,27.423,-36.196,8.229
97,1438190588956,26.455,-36.834,9.062
98,1438190588975,25.621,-37.428,9.413
99,1438190588997,24.577,-37.428,10.488
100,1438190589109,24.258,-37.738,10.896
101,1438190589110,23.155,-37.738,11.608
102,1438190589111,21.862,-38.09,12.983
103,1438190589117,21.015,-38.09,13.311
104,1438190589118,19.976,-38.433,13.739
105,1438190589119,18.777,-38.433,14.634
106,1438190589136,18.197,-38.433,14.634
107,1438190589154,17.105,-38.433,15.692
108,1438190589176,15.924,-38.433,16.86
109,1438190589194,14.99,-38.433,17.17
110,1438190589215,14.01,-38.888,18.243
111,1438190589235,12.821,-38.888,18.96
112,1438190589256,11.99,-39.205,19.549
113,1438190589274,11.213,-39.205,20.42
114,1438190589295,10.119,-39.205,20.822
115,1438190589317,9.423,-39.205,21.675
116,1438190589337,8.445,-39.529,21.987
117,1438190589357,7.571,-39.529,22.761
118,1438190589375,6.692,-39.529,23.242
119,1438190589395,5.715,-39.529,24.301
120,1438190589415,5.134,-39.529,24.301
121,1438190589435,4.353,-39.529,24.301
122,1438190589455,3.782,-39.529,25.401
123,1438190589481,3.117,-39.179,25.401
124,1438190589500,2.252,-39.179,26.319
125,1438190589515,1.377,-39.179,26.319
126,1438190589533,0.721,-38.549,27.026
127,1438190589556,0.314,-38.195,27.026
128,1438190589574,-0.375,-38.195,26.321
129,1438190589596,-0.375,-37.631,27.186
130,1438190589615,-1.033,-37.631,27.186
131,1438190589636,-1.412,-37.132,27.186
132,1438190589656,-1.861,-36.758,27.508
133,1438190589676,-2.331,-36.758,27.508
134,1438190589695,-2.331,-36.408,27.98
135,1438190589714,-2.862,-36.408,27.98
136,1438190589734,-2.862,-36.408,27.598
137,1438190589756,-3.849,-36.408,27.598
138,1438190589778,-3.849,-35.983,28.16
139,1438190589797,-3.849,-35.983,28.16
140,1438190589817,-4.437,-35.983,28.16
141,1438190589835,-4.437,-35.517,28.16
142,1438190589857,-4.911,-35.517,28.16
143,1438190589880,-4.911,-35.183,28.16
144,1438190589895,-4.911,-35.183,28.556
145,1438190589915,-5.966,-34.877,28.556
146,1438190589935,-5.966,-34.877,28.556
147,1438190589955,-5.966,-34.562,28.936
148,1438190589975,-6.373,-34.562,28.936
149,1438190590001,-6.718,-34.222,29.24
150,1438190590016,-6.718,-34.222,29.24
151,1438190590035,-7.164,-33.86,29.24
152,1438190590059,-7.164,-33.86,29.579
153,1438190590075,-7.574,-33.86,29.579
154,1438190590099,-7.876,-33.422,29.579
155,1438190590170,-7.876,-33.422,29.579
156,1438190590171,-7.876,-33.116,29.971
157,1438190590172,-7.876,-33.116,29.971
158,1438190590187,-7.876,-32.785,29.971
159,1438190590201,-7.876,-32.785,30.339
160,1438190590215,-7.876,-32.403,30.339
161,1438190590237,-7.876,-32.403,30.339
162,1438190590255,-7.876,-32.031,30.734
163,1438190590275,-7.876,-32.031,30.734
164,1438190590298,-8.247,-31.71,30.734
165,1438190590319,-8.247,-31.71,31.045
166,1438190590338,-8.247,-31.378,31.045
167,1438190590357,-8.247,-31.378,31.045
168,1438190590375,-8.247,-31.378,31.045
169,1438190590395,-8.247,-31.025,31.427
170,1438190590416,-8.247,-31.025,31.427
171,1438190590437,-8.247,-31.025,31.427
172,1438190590458,-7.44,-31.025,31.427
173,1438190590478,-6.176,-31.025,31.762
174,1438190590498,-5.137,-31.025,31.762
175,1438190590518,-3.868,-31.025,31.762
176,1438190590539,-2.647,-31.025,31.762
177,1438190590558,-1.101,-31.025,31.762
178,1438190590576,0.231,-32.754,31.762
179,1438190590595,1.615,-34.033,30.535
180,1438190590615,3.187,-35.133,28.768
181,1438190590635,5.189,-36.25,26.416
182,1438190590655,6.515,-37.612,24.732
183,1438190590675,8.306,-38.406,22.496
184,1438190590698,10.31,-38.949,20.983
185,1438190590716,12.187,-39.604,18.576
186,1438190590738,14.169,-39.968,16.474
187,1438190590756,16.006,-40.838,13.404
188,1438190590777,17.794,-40.838,11.151
189,1438190590797,18.989,-40.838,9.466
190,1438190590818,21.722,-40.838,6.986
191,1438190590896,20.463,-40.838,5.815
192,1438190590909,21.467,-40.513,4.496
193,1438190590910,22.572,-39.947,3.28
194,1438190590911,23.463,-39.947,2.882
195,1438190590926,24.481,-39.43,2.296
196,1438190590938,25.558,-39.43,1.496
197,1438190590962,26.571,-38.919,0.421
198,1438190590976,27.859,-38.919,0.021
199,1438190590995,28.846,-38.919,-1.052
200,1438190591020,29.829,-38.919,-2.421
201,1438190591051,30.549,-37.844,-3.361
202,1438190591059,31.431,-36.767,-4.415
203,1438190591076,32.02,-35.621,-5.841
204,1438190591096,32.612,-34.817,-6.268
205,1438190591120,33.584,-33.992,-7.312
206,1438190591138,33.903,-33.348,-7.312
207,1438190591157,34.31,-32.745,-7.627
208,1438190591175,34.721,-32.164,-8.038
209,1438190591199,35.118,-32.164,-8.038
210,1438190591219,35.118,-31.741,-8.038
211,1438190591238,35.118,-31.741,-7.423
212,1438190591258,35.552,-31.741,-7.423
213,1438190591279,35.864,-30.834,-7.002
214,1438190591299,36.326,-30.36,-7.002
215,1438190591316,36.685,-29.89,-7.002
216,1438190591340,36.685,-29.557,-6.205
217,1438190591362,37.072,-29.557,-6.205
218,1438190591380,37.072,-29.557,-5.471
219,1438190591399,37.072,-29.243,-5.778
220,1438190591418,37.072,-29.243,-5.778
221,1438190591437,37.072,-29.243,-5.322
222,1438190591456,37.072,-29.243,-5.322
223,1438190591476,37.072,-29.243,-4.203
224,1438190591499,37.072,-29.243,-3.298
225,1438190591519,37.072,-29.243,-2.688
226,1438190591540,37.072,-29.243,-2.688
227,1438190591559,37.072,-28.915,-1.867
228,1438190591578,37.484,-28.915,-1.13
229,1438190591638,37.484,-28.915,-1.13
230,1438190591639,37.828,-28.57,-1.13
231,1438190591640,37.828,-28.57,-0.296
232,1438190591659,37.828,-28.19,-0.296
233,1438190591679,38.177,-28.19,0.453
234,1438190591701,38.177,-28.19,0.952
235,1438190591718,38.177,-28.19,0.952
236,1438190591737,38.177,-28.19,1.4
237,1438190591756,38.177,-28.19,2.11
238,1438190591782,38.177,-28.19,2.772
239,1438190591798,38.177,-28.19,3.564
240,1438190591819,38.177,-28.19,3.996
241,1438190591838,37.75,-28.19,4.914
242,1438190591857,37.75,-28.19,5.847
243,1438190591878,37.339,-28.19,6.225
244,1438190591896,36.965,-28.19,6.225
245,1438190591918,36.965,-28.532,7.069
246,1438190591939,36.497,-28.532,7.069
247,1438190591956,36.497,-28.532,7.382
248,1438190591979,36.497,-28.93,7.382
249,1438190591997,36.183,-28.93,7.757
250,1438190592018,36.183,-29.286,7.258
251,1438190592049,36.183,-29.286,7.803
252,1438190592062,35.835,-29.605,7.489
253,1438190592082,35.835,-29.605,7.098
254,1438190592103,35.835,-29.928,7.492
255,1438190592120,35.395,-29.928,6.91
256,1438190592139,35.395,-29.928,6.91
257,1438190592160,35.395,-30.311,6.91
258,1438190592180,35.018,-30.311,6.91
259,1438190592205,35.018,-30.311,6.91
260,1438190592220,35.018,-30.769,6.91
261,1438190592240,34.704,-30.769,5.709
262,1438190592260,34.704,-31.083,4.356
263,1438190592279,34.704,-31.083,3.205
264,1438190592306,34.704,-31.423,2.758
265,1438190592387,34.704,-31.423,1.176
266,1438190592388,34.353,-31.768,0.372
267,1438190592389,34.353,-31.768,-0.459
268,1438190592390,34.353,-31.768,-1.556
269,1438190592401,34.353,-32.194,-2.16
270,1438190592420,34.353,-32.194,-3.129
271,1438190592437,34.353,-32.194,-4.463
272,1438190592457,34.353,-32.527,-5.058
273,1438190592482,34.353,-32.527,-6.002
274,1438190592500,34.353,-32.527,-6.536
275,1438190592520,34.353,-32.527,-7.075
276,1438190592543,34.353,-32.527,-7.792
277,1438190592558,34.353,-32.527,-8.409
278,1438190592578,34.353,-32.527,-9.039
279,1438190592597,34.353,-32.527,-9.573
280,1438190592619,34.353,-32.527,-10.169
281,1438190592639,34.353,-32.527,-10.169
282,1438190592660,34.353,-32.194,-10.501
283,1438190592680,34.353,-32.194,-11.018
284,1438190592700,34.701,-31.309,-11.018
285,1438190592717,34.701,-30.648,-11.492
286,1438190592737,34.701,-29.945,-11.869
287,1438190592758,35.089,-29.327,-12.318
288,1438190592819,35.089,-28.863,-12.318
289,1438190592820,35.089,-28.347,-13.209
290,1438190592834,35.545,-27.558,-13.209
291,1438190592847,35.545,-27.026,-13.632
292,1438190592857,35.856,-26.49,-14.599
293,1438190592880,35.856,-26.007,-14.599
294,1438190592898,36.164,-25.544,-15.232
295,1438190592918,36.164,-25.544,-15.557
296,1438190592938,36.489,-24.777,-15.557
297,1438190592958,36.489,-24.777,-16.223
298,1438190592986,36.489,-24.443,-16.571
299,1438190593011,36.903,-24.443,-17.247
300,1438190593018,36.903,-23.884,-17.247
301,1438190593122,36.903,-23.884,-17.247
302,1438190593123,36.903,-23.457,-18.246
303,1438190593124,37.231,-23.457,-18.731
304,1438190593125,37.231,-23.457,-19.226
305,1438190593126,37.231,-23.457,-19.631
306,1438190593160,37.231,-23.457,-20.951
307,1438190593161,37.231,-23.457,-20.951
308,1438190593178,37.231,-23.849,-21.762
309,1438190593200,37.231,-23.849,-21.43
310,1438190593220,37.231,-23.849,-22.07
311,1438190593238,36.871,-23.522,-22.07
312,1438190593259,36.871,-23.522,-22.07
313,1438190593283,36.871,-23.522,-22.07
314,1438190593298,36.428,-23.522,-22.56
315,1438190593320,36.428,-23.522,-22.2
316,1438190593341,36.007,-23.522,-22.2
317,1438190593358,36.007,-23.522,-22.2
318,1438190593378,36.007,-23.522,-22.2
319,1438190593400,35.586,-23.522,-22.2
320,1438190593421,35.586,-23.522,-22.2
321,1438190593440,35.586,-23.522,-22.2
322,1438190593459,35.195,-23.522,-22.2
323,1438190593479,35.195,-23.522,-22.2
324,1438190593498,35.195,-23.847,-22.619
325,1438190593520,35.195,-23.847,-22.619
326,1438190593540,35.195,-23.847,-22.619
327,1438190593560,34.895,-23.847,-22.619
328,1438190593579,34.895,-23.847,-22.619
329,1438190593601,34.895,-23.847,-22.619
330,1438190593622,34.895,-23.847,-22.619
331,1438190593642,34.895,-23.484,-22.619
332,1438190593662,34.895,-22.933,-22.959
333,1438190593681,34.895,-21.98,-22.959
334,1438190593701,34.895,-21.06,-22.959
335,1438190593749,35.253,-20.046,-22.959
336,1438190593750,35.253,-19.143,-23.391
337,1438190593759,35.253,-18.6,-23.391
338,1438190593782,35.253,-17.224,-24.441
339,1438190593803,35.554,-16.741,-25.175
340,1438190593820,35.554,-15.859,-26.78
341,1438190593843,35.554,-14.749,-26.78
342,1438190593935,35.554,-13.714,-27.542
343,1438190593938,35.554,-12.281,-28.388
344,1438190593939,35.554,-11.033,-28.388
345,1438190593940,35.554,-9.698,-28.787
346,1438190593941,35.554,-8.734,-29.875
347,1438190594041,35.554,-7.513,-29.875
348,1438190594042,35.554,-6.575,-30.755
349,1438190594043,35.554,-5.838,-30.422
350,1438190594044,35.554,-5.406,-30.874
351,1438190594045,35.554,-5.406,-30.874
352,1438190594102,35.554,-4.855,-30.29
353,1438190594103,35.554,-5.197,-30.29
354,1438190594140,35.554,-5.197,-30.29
355,1438190594141,35.554,-5.197,-30.29
356,1438190594142,35.554,-5.197,-30.29
357,1438190594159,35.554,-5.625,-30.29
358,1438190594178,35.554,-5.625,-30.29
359,1438190594199,35.554,-5.625,-30.29
360,1438190594218,35.554,-5.625,-30.29
361,1438190594239,35.554,-5.177,-30.29
362,1438190594260,35.554,-4.78,-30.664
363,1438190594282,35.554,-4.78,-30.664
364,1438190594302,35.554,-5.22,-30.664
365,1438190594321,35.554,-5.22,-30.664
366,1438190594340,35.554,-4.891,-30.664
367,1438190594358,35.554,-4.891,-30.664
368,1438190594379,35.554,-4.891,-30.664
369,1438190594402,35.554,-4.891,-30.664
370,1438190594419,35.554,-4.557,-30.664
371,1438190594443,35.554,-4.557,-30.664
372,1438190594463,35.554,-4.557,-30.664
373,1438190594481,35.554,-4.557,-30.664
374,1438190594500,35.554,-4.557,-30.664
375,1438190594519,35.554,-4.557,-30.664
376,1438190594539,35.554,-4.557,-30.664
377,1438190594560,35.554,-4.557,-30.664
378,1438190594580,35.554,-4.557,-30.664
379,1438190594603,35.554,-4.225,-30.664
380,1438190594623,35.554,-4.225,-30.664
381,1438190594641,35.554,-4.225,-30.664
382,1438190594659,35.554,-4.225,-30.664
383,1438190594686,35.554,-4.225,-30.664
384,1438190594760,35.554,-4.225,-30.664
385,1438190594761,35.554,-4.225,-30.664
386,1438190594762,35.554,-4.225,-31.019
387,1438190594763,35.554,-4.225,-31.019
388,1438190594780,35.224,-4.225,-31.019
389,1438190594807,35.224,-4.225,-31.019
390,1438190594821,35.224,-4.225,-31.019
391,1438190594839,35.224,-4.225,-31.019
392,1438190594861,35.224,-3.898,-31.019
393,1438190594879,35.224,-3.898,-31.019
394,1438190594899,35.224,-3.898,-31.019
395,1438190594926,35.224,-3.898,-31.019
396,1438190594941,35.224,-3.898,-31.019
397,1438190594961,35.224,-3.573,-31.019
398,1438190594980,35.224,-3.573,-31.019
399,1438190595003,35.224,-3.573,-31.019
400,1438190595020,35.224,-3.573,-31.333
401,1438190595042,35.224,-3.573,-31.333
402,1438190595066,35.224,-3.573,-31.333
403,1438190595083,35.224,-3.573,-31.333
404,1438190595100,35.224,-3.244,-31.333
405,1438190595121,35.224,-3.244,-31.333
406,1438190595141,35.224,-3.244,-31.333
407,1438190595160,35.224,-3.244,-31.333
408,1438190595180,35.224,-3.244,-31.333
409,1438190595201,35.224,-3.244,-31.333
410,1438190595222,35.224,-3.244,-31.333
411,1438190595240,35.224,-3.244,-31.333
412,1438190595262,35.224,-3.244,-31.665
413,1438190595283,35.224,-3.244,-31.665
414,1438190595303,35.224,-3.244,-31.665
415,1438190595324,35.224,-3.244,-31.665
416,1438190595342,35.224,-3.244,-31.665
417,1438190595362,35.224,-3.547,-31.665
418,1438190595386,35.224,-3.547,-31.665
419,1438190595400,35.224,-3.547,-31.665
420,1438190595422,35.224,-3.547,-31.665
421,1438190595475,35.224,-3.547,-31.665
422,1438190595476,35.224,-3.547,-31.665
423,1438190595482,35.224,-3.547,-31.665
424,1438190595500,35.224,-3.547,-31.665
425,1438190595520,35.224,-3.547,-31.665
426,1438190595546,35.224,-3.901,-31.665
427,1438190595560,35.224,-3.901,-31.665
428,1438190595583,35.224,-3.901,-31.665
429,1438190595602,35.224,-3.901,-31.665
430,1438190595621,35.224,-3.901,-31.665
431,1438190595641,35.224,-3.901,-31.665
432,1438190595663,35.224,-3.901,-31.665
433,1438190595681,35.224,-3.901,-31.665
434,1438190595702,35.224,-3.901,-31.665
435,1438190595722,35.224,-3.901,-31.665
436,1438190595742,35.224,-3.901,-31.665
437,1438190595763,35.224,-3.901,-31.665
438,1438190595782,35.224,-3.901,-31.665
439,1438190595803,35.224,-3.901,-31.665
440,1438190595822,35.224,-3.901,-31.665
441,1438190595842,35.224,-4.232,-31.665
442,1438190595860,35.224,-4.232,-31.665
443,1438190595881,35.224,-4.232,-31.665
444,1438190595901,35.224,-4.232,-31.665
445,1438190595922,35.224,-4.232,-31.665
446,1438190595941,35.224,-4.544,-31.291
447,1438190595961,35.224,-4.544,-31.291
448,1438190595980,35.224,-4.544,-31.291
449,1438190596009,35.224,-4.544,-31.291
450,1438190596031,35.224,-4.544,-31.291
451,1438190596050,35.224,-4.544,-31.291
452,1438190596068,35.224,-4.847,-31.291
453,1438190596082,35.224,-4.847,-31.291
454,1438190596102,35.224,-4.847,-31.291
455,1438190596121,35.224,-4.847,-31.291
456,1438190596141,35.224,-4.847,-31.291
457,1438190596163,35.224,-4.847,-31.291
458,1438190596247,35.224,-4.847,-31.291
459,1438190596248,35.224,-4.847,-31.291
460,1438190596249,35.224,-4.847,-31.291
461,1438190596250,35.224,-4.847,-31.291
462,1438190596262,35.224,-4.847,-31.291
463,1438190596281,35.224,-4.847,-31.291
464,1438190596301,35.224,-4.847,-31.291
465,1438190596323,35.224,-4.847,-30.978
466,1438190596341,35.224,-4.847,-30.978
467,1438190596361,35.224,-4.847,-30.978
468,1438190596381,35.224,-4.847,-30.978
469,1438190596403,35.224,-4.847,-30.978
470,1438190596422,35.224,-4.501,-30.978
471,1438190596443,35.224,-4.501,-30.978
472,1438190596463,35.224,-4.501,-30.978
473,1438190596484,35.224,-4.501,-30.978
474,1438190596503,35.224,-4.501,-30.978
475,1438190596522,35.224,-4.501,-30.978
476,1438190596541,35.224,-4.177,-30.978
477,1438190596561,35.224,-4.177,-30.978
478,1438190596581,35.224,-4.177,-30.978
479,1438190596601,35.224,-4.177,-30.978
480,1438190596623,35.224,-4.177,-30.978
481,1438190596642,35.224,-4.177,-30.978
482,1438190596663,35.224,-4.177,-30.978
483,1438190596681,35.224,-4.177,-30.978
484,1438190596702,35.224,-4.177,-30.978
485,1438190596721,35.224,-4.177,-30.978
486,1438190596745,35.224,-4.177,-30.978
487,1438190596762,35.224,-4.177,-30.978
488,1438190596781,35.224,-4.177,-30.978
489,1438190596801,35.224,-4.177,-30.978
490,1438190596821,35.224,-4.177,-30.978
491,1438190596841,35.224,-4.177,-30.978
492,1438190596862,35.224,-4.177,-30.978
493,1438190596886,35.224,-4.177,-30.978
494,1438190597080,35.224,-4.177,-31.297
495,1438190597082,35.224,-3.875,-31.297
496,1438190597083,35.224,-3.875,-31.297
497,1438190597084,35.224,-3.875,-31.297
498,1438190597085,35.224,-3.875,-31.297
499,1438190597086,35.224,-3.875,-31.297
500,1438190597087,35.224,-3.875,-31.297
501,1438190597106,35.224,-3.875,-31.297
502,1438190597107,35.224,-3.875,-31.297
503,1438190597108,35.224,-3.875,-31.297
504,1438190597109,35.224,-3.875,-31.297
505,1438190597128,35.224,-3.875,-31.297
