id,attr_time,attr_x,attr_y,attr_z
1,1438190587030,12.046,-14.591,-9.706
2,1438190587047,12.046,-14.591,-9.706
3,1438190587067,12.046,-14.591,-9.706
4,1438190587087,12.046,-14.591,-9.706
5,1438190587106,12.046,-14.591,-9.706
6,1438190587128,12.046,-14.591,-9.706
7,1438190587152,12.046,-14.591,-9.706
8,1438190587166,12.046,-14.591,-9.706
9,1438190587186,12.046,-14.591,-9.706
10,1438190587207,12.046,-14.591,-9.396
11,1438190587228,12.046,-14.591,-9.396
12,1438190587248,12.046,-14.591,-9.396
13,1438190587266,12.046,-14.591,-9.396
14,1438190587291,12.046,-14.591,-9.396
15,1438190587311,12.046,-14.591,-9.396
16,1438190587331,12.046,-14.591,-9.396
17,1438190587351,12.046,-14.591,-9.396
18,1438190587367,12.046,-14.591,-9.396
19,1438190587391,12.046,-14.591,-9.396
20,1438190587411,12.046,-14.591,-9.396
21,1438190587431,12.046,-14.591,-9.396
22,1438190587451,12.046,-14.591,-9.396
23,1438190587471,12.046,-14.591,-9.396
24,1438190587490,12.046,-14.591,-9.396
25,1438190587507,12.046,-14.591,-9.396
26,1438190587530,12.046,-14.591,-9.396
27,1438190587550,12.046,-14.591,-9.396
28,1438190587571,12.046,-14.591,-9.396
29,1438190587592,12.046,-14.591,-9.396
30,1438190587608,12.046,-14.591,-9.396
31,1438190587629,12.046,-14.591,-9.716
32,1438190587649,12.046,-14.591,-9.716
33,1438190587670,12.046,-14.591,-9.716
34,1438190587690,12.046,-14.591,-9.716
35,1438190587711,12.046,-14.591,-9.716
36,1438190587736,12.046,-14.591,-9.716
37,1438190587871,12.046,-14.591,-9.716
38,1438190587872,12.046,-14.591,-10.023
39,1438190587873,11.697,-14.591,-10.023
40,1438190587874,11.697,-14.591,-10.023
41,1438190587875,11.697,-14.591,-10.023
42,1438190587876,11.697,-14.591,-10.023
43,1438190587877,11.697,-14.591,-10.331
44,1438190587893,11.697,-14.591,-10.331
45,1438190587907,11.697,-14.591,-10.331
46,1438190587928,11.352,-14.591,-10.739
47,1438190587947,11.352,-14.591,-10.739
48,1438190587976,11.352,-14.591,-11.154
49,1438190587991,11.352,-14.591,-12.158
50,1438190588009,10.96,-14.591,-13.626
51,1438190588036,10.96,-14.591,-14.076
52,1438190588047,10.96,-14.591,-15.129
53,1438190588068,10.58,-14.591,-16.09
54,1438190588087,10.58,-14.924,-17.036
55,1438190588108,10.58,-14.924,-17.794
56,1438190588130,10.145,-14.924,-19.081
57,1438190588149,10.145,-14.924,-19.081
58,1438190588171,9.844,-14.924,-21.09
59,1438190588191,9.844,-14.924,-21.78
60,1438190588211,9.844,-14.924,-22.659
61,1438190588231,9.399,-14.924,-23.617
62,1438190588248,9.399,-14.924,-24.554
63,1438190588271,9.043,-14.924,-24.554
64,1438190588288,9.043,-14.924,-25.44
65,1438190588311,8.726,-14.924,-25.44
66,1438190588331,8.726,-14.607,-26.065
67,1438190588350,8.726,-14.607,-26.768
68,1438190588370,8.319,-14.607,-27.268
69,1438190588391,8.319,-14.216,-27.268
70,1438190588410,8.319,-14.216,-27.958
71,1438190588431,7.987,-14.216,-28.259
72,1438190588450,7.987,-13.806,-28.259
73,1438190588471,7.987,-13.806,-28.259
74,1438190588491,7.987,-13.806,-28.259
75,1438190588509,7.987,-13.423,-28.259
76,1438190588529,7.987,-13.423,-28.259
77,1438190588548,7.653,-13.423,-29.168
78,1438190588614,7.653,-13.113,-28.752
79,1438190588615,7.653,-13.113,-28.752
80,1438190588616,7.653,-13.113,-28.752
81,1438190588644,7.653,-13.113,-28.752
82,1438190588652,7.653,-12.713,-28.752
83,1438190588669,7.653,-12.713,-28.752
84,1438190588689,7.653,-12.713,-28.752
85,1438190588708,7.653,-12.713,-28.752
86,1438190588728,7.333,-12.713,-29.11
87,1438190588751,7.333,-12.713,-29.11
88,1438190588768,7.333,-12.713,-29.11
89,1438190588788,7.333,-12.405,-29.504
90,1438190588810,7.333,-12.405,-29.504
91,1438190588829,7.333,-12.405,-29.504
92,1438190588853,7.333,-12.405,-29.504
93,1438190588871,7.014,-12.405,-29.89
94,1438190588892,7.014,-12.075,-29.89
95,1438190588911,7.014,-12.075,-29.89
96,1438190588931,7.014,-12.075,-30.285
97,1438190588952,7.014,-12.075,-30.285
98,1438190588970,7.014,-11.73,-30.606
99,1438190588990,6.681,-11.73,-30.606
100,1438190589011,6.681,-11.73,-31.324
101,1438190589031,6.681,-11.419,-32.711
102,1438190589049,6.681,-11.419,-32.711
103,1438190589070,6.681,-11.419,-34.095
104,1438190589091,6.681,-11.038,-34.96
105,1438190589112,6.681,-11.038,-35.748
106,1438190589129,6.681,-10.67,-36.683
107,1438190589152,6.681,-10.67,-37.138
108,1438190589171,6.681,-10.226,-37.582
109,1438190589191,6.681,-9.579,-38.587
110,1438190589212,6.681,-8.883,-38.587
111,1438190589229,6.681,-8.447,-39.486
112,1438190589249,6.681,-7.977,-39.486
113,1438190589269,6.362,-7.522,-40.615
114,1438190589289,6.362,-7.02,-40.615
115,1438190589309,6.362,-6.678,-41.094
116,1438190589332,6.362,-6.083,-41.401
117,1438190589352,6.362,-5.484,-41.793
118,1438190589374,6.362,-4.946,-42.726
119,1438190589389,6.362,-4.092,-42.726
120,1438190589409,6.362,-3.593,-43.658
121,1438190589429,6.362,-1.913,-44.496
122,1438190589450,6.362,-1.226,-45.159
123,1438190589469,6.362,0.1,-45.587
124,1438190589489,6.362,1.399,-47.019
125,1438190589511,6.362,2.323,-47.438
126,1438190589530,6.362,3.985,-48.104
127,1438190589550,6.362,5.177,-48.93
128,1438190589572,6.362,6.64,-50.041
129,1438190589590,6.362,8.09,-50.041
130,1438190589612,6.362,9.831,-51.245
131,1438190589633,6.362,11.082,-51.792
132,1438190589651,6.362,12.513,-51.792
133,1438190589672,6.362,14.332,-52.943
134,1438190589691,6.694,16.14,-52.619
135,1438190589712,6.694,17.945,-53.195
136,1438190589731,6.694,20.14,-53.575
137,1438190589751,7.084,22.048,-53.575
138,1438190589773,7.084,23.178,-53.575
139,1438190589793,8.187,24.432,-53.575
140,1438190589810,9.422,25.172,-53.575
141,1438190589831,9.912,26.64,-53.022
142,1438190589851,10.244,27.833,-53.022
143,1438190589869,10.244,29.217,-53.022
144,1438190589891,10.629,29.217,-53.022
145,1438190589913,10.629,30.027,-53.022
146,1438190589932,11.283,30.027,-53.022
147,1438190589953,11.283,29.667,-53.022
148,1438190589972,11.769,29.667,-53.022
149,1438190589990,11.769,29.667,-53.022
150,1438190590010,12.124,29.667,-53.022
151,1438190590030,12.124,29.667,-53.022
152,1438190590051,12.124,29.292,-53.022
153,1438190590072,12.882,29.292,-53.022
154,1438190590138,12.882,29.292,-53.022
155,1438190590139,13.322,29.292,-53.022
156,1438190590140,13.322,29.292,-52.655
157,1438190590149,13.322,29.675,-52.655
158,1438190590173,13.639,29.675,-51.873
159,1438190590189,13.639,29.351,-51.873
160,1438190590210,14.315,29.351,-51.48
161,1438190590231,14.315,29.766,-51.48
162,1438190590250,14.694,29.766,-50.993
163,1438190590271,14.694,29.766,-50.993
164,1438190590291,14.694,29.766,-50.993
165,1438190590311,14.694,30.085,-50.993
166,1438190590333,14.694,30.085,-50.619
167,1438190590351,14.694,30.085,-50.619
168,1438190590371,15.109,30.393,-50.291
169,1438190590393,15.109,30.393,-50.291
170,1438190590411,15.432,30.393,-50.291
171,1438190590433,15.432,30.889,-49.835
172,1438190590451,15.748,31.362,-49.835
173,1438190590471,15.748,31.758,-49.835
174,1438190590494,15.748,31.758,-49.429
175,1438190590512,16.108,32.443,-49.429
176,1438190590533,16.108,32.443,-49.429
177,1438190590551,16.108,33.009,-49.082
178,1438190590571,16.455,33.009,-49.082
179,1438190590593,16.455,33.332,-49.082
180,1438190590611,16.455,33.332,-48.777
181,1438190590633,16.806,33.332,-48.777
182,1438190590653,16.806,33.332,-48.777
183,1438190590673,16.806,33.332,-48.46
184,1438190590693,17.21,33.691,-48.46
185,1438190590711,17.21,33.691,-48.46
186,1438190590732,17.51,34.005,-48.46
187,1438190590751,17.51,34.005,-48.121
188,1438190590844,17.51,34.005,-48.121
189,1438190590845,17.933,34.329,-48.121
190,1438190590846,17.933,34.329,-48.121
191,1438190590847,17.933,34.329,-48.121
192,1438190590854,18.318,34.329,-47.805
193,1438190590870,18.318,34.329,-47.805
194,1438190590894,18.318,34.329,-47.805
195,1438190590911,18.64,34.329,-47.805
196,1438190590930,18.64,34.329,-47.805
197,1438190590952,18.64,34.329,-47.805
198,1438190590970,18.64,34.027,-47.805
199,1438190590993,18.64,34.027,-47.805
200,1438190591014,19.004,33.718,-47.805
201,1438190591031,19.004,33.718,-47.805
202,1438190591051,19.004,33.253,-47.805
203,1438190591071,19.004,32.745,-47.805
204,1438190591094,19.004,32.25,-47.805
205,1438190591114,19.38,31.765,-47.805
206,1438190591132,19.38,30.915,-47.805
207,1438190591152,19.38,30.021,-47.805
208,1438190591174,19.747,29.194,-47.805
209,1438190591197,24.476,1.237,-37.008
210,1438190591211,25.926,0.521,-35.125
211,1438190591237,26.776,-0.183,-35.125
212,1438190591253,27.615,-0.839,-34.06
213,1438190591272,27.928,-0.5,-33.346
214,1438190591294,28.405,-0.895,-33.79
215,1438190591313,28.405,-1.214,-33.059
216,1438190591334,28.739,-1.722,-33.059
217,1438190591351,28.739,-1.24,-33.059
218,1438190591373,28.739,-1.24,-32.371
219,1438190591394,28.739,-1.24,-32.371
220,1438190591414,29.098,-1.24,-32.733
221,1438190591435,29.098,-1.24,-32.733
222,1438190591454,29.098,-0.814,-32.081
223,1438190591474,29.098,-0.321,-32.081
224,1438190591494,29.098,-0.321,-32.081
225,1438190591515,29.098,0.256,-32.081
226,1438190591568,29.098,0.92,-32.081
227,1438190591569,29.098,2.02,-32.081
228,1438190591577,29.098,-0.273,-32.669
229,1438190591602,29.098,1.258,-32.669
230,1438190591611,29.098,2.745,-32.669
231,1438190591638,29.098,3.788,-32.304
232,1438190591651,29.098,4.664,-32.304
233,1438190591671,29.098,5.517,-32.304
234,1438190591691,29.098,6.515,-32.304
235,1438190591728,29.098,7.409,-32.304
236,1438190591740,29.098,7.971,-31.997
237,1438190591781,29.098,8.992,-31.997
238,1438190591782,29.098,9.825,-31.997
239,1438190591795,28.756,10.169,-31.997
240,1438190591818,28.756,11.048,-31.997
241,1438190591832,28.756,11.674,-31.997
242,1438190591855,28.756,12.446,-31.697
243,1438190591873,28.384,13.134,-31.697
244,1438190591895,28.384,13.786,-31.697
245,1438190591914,28.384,14.372,-31.697
246,1438190591933,28.001,15.211,-31.301
247,1438190591954,28.001,16.151,-31.301
248,1438190591972,28.001,16.638,-31.301
249,1438190591996,27.536,17.407,-30.908
250,1438190592013,27.536,18.638,-30.908
251,1438190592034,27.143,19.041,-30.908
252,1438190592061,26.272,19.795,-30.537
253,1438190592109,25.213,20.199,-30.537
254,1438190592110,24.131,20.764,-30.537
255,1438190592119,22.967,20.764,-30.537
256,1438190592131,21.812,20.764,-30.537
257,1438190592155,21.058,20.764,-30.537
258,1438190592173,19.85,21.147,-30.537
259,1438190592193,18.595,20.6,-31.022
260,1438190592214,18.014,20.248,-31.828
261,1438190592236,17.012,19.821,-32.983
262,1438190592255,16.703,19.821,-33.442
263,1438190592271,16.239,19.474,-33.442
264,1438190592293,15.664,19.166,-34.593
265,1438190592313,15.664,19.166,-35.211
266,1438190592332,15.345,19.166,-35.211
267,1438190592378,15.345,19.523,-35.928
268,1438190592379,15.345,19.523,-35.928
269,1438190592400,15.345,19.523,-35.928
270,1438190592412,15.345,19.172,-35.928
271,1438190592433,15.345,19.172,-35.928
272,1438190592453,15.345,18.667,-35.514
273,1438190592472,15.345,18.667,-35.514
274,1438190592493,15.739,18.667,-36.08
275,1438190592512,15.739,18.202,-36.08
276,1438190592535,15.739,18.202,-36.08
277,1438190592552,15.739,18.202,-36.08
278,1438190592574,15.368,18.202,-36.08
279,1438190592592,15.368,18.202,-36.08
280,1438190592615,15.368,18.202,-36.08
281,1438190592636,14.994,17.785,-36.08
282,1438190592654,14.994,17.785,-36.479
283,1438190592675,14.994,17.785,-36.479
284,1438190592694,14.994,17.463,-36.479
285,1438190592718,14.994,17.463,-36.479
286,1438190592735,14.688,17.463,-36.479
287,1438190592809,14.688,17.463,-36.479
288,1438190592812,14.688,17.463,-36.479
289,1438190592813,14.688,17.463,-36.479
290,1438190592814,14.688,17.463,-36.479
291,1438190592835,14.688,17.463,-36.479
292,1438190592854,14.688,17.463,-36.479
293,1438190592874,14.366,17.463,-36.782
294,1438190592894,14.366,17.463,-36.782
295,1438190592916,14.366,17.463,-36.782
296,1438190592937,14.366,17.463,-36.782
297,1438190592956,14.366,17.463,-36.782
298,1438190592976,14.366,17.463,-36.782
299,1438190592992,14.366,17.108,-36.782
300,1438190593016,14.366,17.108,-36.782
301,1438190593036,14.366,17.108,-36.782
302,1438190593053,14.366,17.108,-36.782
303,1438190593073,14.366,16.741,-36.782
304,1438190593140,14.366,16.741,-36.782
305,1438190593141,14.366,16.413,-36.782
306,1438190593142,14.366,16.413,-36.782
307,1438190593152,14.366,16.079,-37.11
308,1438190593176,14.366,16.079,-37.11
309,1438190593194,14.366,15.727,-37.11
310,1438190593212,14.73,15.727,-37.11
311,1438190593237,14.73,15.727,-37.11
312,1438190593253,14.73,15.727,-37.11
313,1438190593273,14.73,15.727,-37.11
314,1438190593293,15.098,15.727,-37.11
315,1438190593316,15.098,15.727,-37.11
316,1438190593333,15.098,16.47,-37.11
317,1438190593355,15.098,17.063,-37.11
318,1438190593376,15.422,17.478,-36.718
319,1438190593397,15.422,17.478,-36.718
320,1438190593416,15.422,17.478,-36.718
321,1438190593436,15.422,17.1,-36.718
322,1438190593455,15.422,16.799,-36.718
323,1438190593476,15.76,16.799,-36.384
324,1438190593497,15.76,16.18,-36.384
325,1438190593517,15.76,15.705,-36.384
326,1438190593533,15.76,15.705,-36.384
327,1438190593555,15.76,15.705,-36.384
328,1438190593576,15.76,15.376,-36.384
329,1438190593596,15.76,15.376,-36.384
330,1438190593616,15.76,15.376,-36.384
331,1438190593636,15.76,15.376,-36.384
332,1438190593655,15.76,15.376,-36.384
333,1438190593676,15.76,15.376,-36.712
334,1438190593696,15.76,14.768,-36.712
335,1438190593720,15.429,14.768,-37.06
336,1438190593739,15.429,14.447,-37.06
337,1438190593759,15.429,14.447,-37.368
338,1438190593783,15.09,14.447,-37.368
339,1438190593801,15.09,14.805,-37.368
340,1438190593851,15.09,14.805,-37.748
341,1438190593858,14.744,14.805,-37.748
342,1438190593862,14.744,14.387,-37.748
343,1438190593877,14.744,14.387,-38.076
344,1438190593893,14.402,14.387,-38.076
345,1438190593913,14.402,14.387,-38.076
346,1438190593934,14.402,14.067,-38.076
347,1438190593953,14.402,14.067,-38.076
348,1438190593975,14.402,14.067,-38.076
349,1438190593994,14.402,14.067,-38.076
350,1438190594015,14.402,14.067,-38.076
351,1438190594033,14.402,14.067,-38.076
352,1438190594057,14.402,14.067,-38.076
353,1438190594079,14.402,14.067,-38.076
354,1438190594097,14.402,14.067,-38.076
355,1438190594113,14.402,14.067,-38.076
356,1438190594137,14.402,14.067,-38.076
357,1438190594156,14.402,14.067,-38.076
358,1438190594177,14.402,14.067,-38.076
359,1438190594197,14.402,14.067,-38.076
360,1438190594216,14.402,14.067,-38.076
361,1438190594237,14.402,14.067,-38.076
362,1438190594257,14.402,14.067,-38.076
363,1438190594278,14.402,14.067,-38.076
364,1438190594296,14.402,14.067,-38.076
365,1438190594318,14.402,14.067,-38.076
366,1438190594336,14.402,14.067,-38.076
367,1438190594357,14.402,14.067,-38.076
368,1438190594377,14.402,14.067,-38.076
369,1438190594396,14.402,13.752,-38.076
370,1438190594417,14.402,13.752,-38.076
371,1438190594437,14.721,13.752,-38.076
372,1438190594457,14.721,13.752,-38.076
373,1438190594477,14.721,13.752,-38.076
374,1438190594529,14.721,13.752,-38.076
375,1438190594534,14.721,13.752,-38.076
376,1438190594535,14.721,13.752,-38.076
377,1438190594620,14.721,13.752,-38.076
378,1438190594621,14.721,13.752,-38.076
379,1438190594622,14.721,13.752,-38.076
380,1438190594623,14.721,13.752,-38.076
381,1438190594634,14.721,13.752,-38.076
382,1438190594664,14.721,13.752,-38.076
383,1438190594674,14.721,13.752,-38.076
384,1438190594695,14.721,13.752,-38.076
385,1438190594715,14.721,13.752,-38.076
386,1438190594743,14.721,13.441,-38.076
387,1438190594755,14.721,13.441,-38.076
388,1438190594774,14.721,13.441,-38.076
389,1438190594795,14.721,13.441,-38.076
390,1438190594814,14.721,13.441,-38.076
391,1438190594834,14.721,13.441,-38.076
392,1438190594866,14.721,13.441,-38.076
393,1438190594874,14.721,13.441,-38.076
394,1438190594894,14.721,13.441,-38.076
395,1438190594914,14.721,13.441,-38.076
396,1438190594934,14.721,13.441,-38.076
397,1438190594954,14.721,13.441,-38.076
398,1438190594974,14.721,13.441,-38.076
399,1438190594997,14.721,13.441,-38.076
400,1438190595014,14.721,13.441,-38.076
401,1438190595038,14.721,13.441,-38.076
402,1438190595057,14.721,13.441,-38.076
403,1438190595077,14.721,13.441,-38.076
404,1438190595094,14.721,13.441,-38.076
405,1438190595114,14.721,13.441,-38.076
406,1438190595133,14.721,13.441,-38.076
407,1438190595153,14.721,13.441,-38.076
408,1438190595178,14.721,13.441,-38.076
409,1438190595195,14.721,13.441,-38.076
410,1438190595214,14.721,13.441,-38.076
411,1438190595234,14.721,13.441,-38.076
412,1438190595254,14.721,13.441,-38.076
413,1438190595274,14.721,13.441,-38.076
414,1438190595294,14.721,13.441,-38.076
415,1438190595314,14.721,13.441,-38.076
416,1438190595333,14.721,13.441,-38.076
417,1438190595353,14.721,13.441,-38.076
418,1438190595373,14.721,13.441,-38.076
419,1438190595393,14.721,13.441,-38.076
420,1438190595413,14.721,13.441,-38.076
421,1438190595433,14.721,13.749,-38.076
422,1438190595453,14.721,13.749,-38.076
423,1438190595473,14.721,13.749,-38.076
424,1438190595497,14.721,13.749,-38.076
425,1438190595519,14.721,13.749,-38.076
426,1438190595535,14.721,13.749,-38.076
427,1438190595559,15.036,13.749,-37.77
428,1438190595579,15.036,13.749,-37.77
429,1438190595599,15.036,13.749,-37.77
430,1438190595619,15.036,13.749,-37.77
431,1438190595636,15.036,13.749,-37.77
432,1438190595657,15.036,13.749,-37.77
433,1438190595678,15.036,13.749,-37.77
434,1438190595698,15.036,13.749,-37.77
435,1438190595716,15.362,13.749,-37.77
436,1438190595735,15.362,13.749,-37.77
437,1438190595756,15.362,13.749,-37.77
438,1438190595775,15.362,13.749,-37.77
439,1438190595820,15.362,13.749,-37.77
440,1438190595821,15.362,13.749,-37.77
441,1438190595851,15.362,13.749,-37.77
442,1438190595868,15.362,13.749,-37.77
443,1438190597230,15.362,13.749,-37.77
444,1438190597231,15.362,14.071,-37.77
445,1438190597232,15.362,14.071,-37.77
446,1438190597233,15.362,14.071,-37.77
447,1438190597234,15.362,14.071,-37.77
448,1438190597235,15.028,14.071,-37.77
449,1438190597236,15.028,14.071,-37.77
450,1438190597237,15.028,14.071,-37.77
451,1438190597238,15.028,14.071,-37.77
452,1438190597239,15.028,14.071,-37.77
453,1438190597240,15.028,14.071,-37.77
454,1438190597241,15.028,14.071,-37.77
455,1438190597242,15.028,14.071,-37.77
456,1438190597243,15.028,14.071,-37.77
457,1438190597244,15.028,14.071,-37.77
458,1438190597245,15.028,14.071,-37.77
459,1438190597246,15.028,14.071,-37.77
460,1438190597247,15.028,14.071,-37.77
461,1438190597248,15.028,14.071,-37.77
462,1438190597249,15.028,14.071,-37.77
463,1438190597250,15.028,14.071,-37.77
464,1438190597251,15.028,14.071,-37.77
465,1438190597252,15.028,14.071,-37.77
466,1438190597253,15.028,14.071,-37.77
467,1438190597254,15.028,14.071,-37.77
468,1438190597255,15.356,14.071,-37.77
469,1438190597256,15.356,14.071,-37.77
470,1438190597257,15.356,14.071,-37.77
471,1438190597258,15.356,14.071,-37.77
472,1438190597259,15.356,14.071,-37.77
473,1438190597260,15.356,14.071,-37.77
474,1438190597261,15.356,14.071,-37.77
475,1438190597262,15.356,14.071,-37.77
476,1438190597263,15.356,14.071,-37.77
477,1438190597264,15.356,14.071,-37.77
478,1438190597265,15.356,14.071,-37.77
479,1438190597266,15.356,14.071,-37.77
480,1438190597267,15.356,14.071,-37.77
481,1438190597268,15.356,14.071,-37.77
482,1438190597269,15.356,14.071,-37.77
483,1438190597270,15.356,14.071,-37.77
484,1438190597271,15.356,14.071,-37.77
485,1438190597272,15.356,14.071,-37.77
486,1438190597273,15.356,14.071,-37.77
487,1438190597274,15.356,14.071,-37.77
488,1438190597275,15.356,14.071,-37.77
489,1438190597276,15.356,14.071,-37.77
490,1438190597277,15.356,14.071,-37.77
491,1438190597278,15.356,14.071,-37.77
492,1438190597279,15.356,14.071,-37.77
493,1438190597280,15.356,14.071,-37.77
494,1438190597281,15.356,14.071,-37.77
495,1438190597282,15.356,14.071,-37.77
496,1438190597283,15.356,14.071,-37.77
497,1438190597284,15.356,14.071,-37.77
498,1438190597285,15.356,14.071,-37.77
499,1438190597286,15.356,14.071,-37.77
500,1438190597287,15.356,14.071,-37.77
501,1438190597288,15.356,14.071,-37.77
502,1438190597289,15.356,14.071,-37.77
503,1438190597290,15.356,14.071,-37.77
504,1438190597291,15.356,14.071,-37.77
505,1438190597292,15.356,14.071,-37.77
506,1438190597293,15.356,14.071,-37.77
507,1438190597294,15.356,14.071,-37.77
