id,attr_time,attr_x,attr_y,attr_z
1,1437152993022,23.585,-36.212,13.478
2,1437152993042,23.585,-36.212,13.478
3,1437152993062,23.585,-36.212,13.478
4,1437152993087,23.585,-36.212,13.478
5,1437152993103,23.585,-36.212,13.478
6,1437152993128,23.585,-36.212,13.478
7,1437152993145,23.585,-36.212,13.478
8,1437152993165,23.265,-36.212,13.478
9,1437152993188,23.265,-36.212,13.478
10,1437152993203,23.265,-36.212,13.81
11,1437152993227,23.265,-36.212,13.81
12,1437152993248,23.265,-36.212,13.81
13,1437152993265,23.265,-36.212,13.81
14,1437152993288,22.932,-36.212,13.81
15,1437152993315,22.932,-36.212,14.143
16,1437152993324,22.932,-36.212,14.143
17,1437152993344,22.932,-36.212,14.143
18,1437152993364,22.932,-36.212,14.143
19,1437152993384,22.932,-36.212,14.143
20,1437152993404,22.932,-36.212,14.143
21,1437152993424,22.932,-36.212,14.143
22,1437152993448,22.932,-36.212,14.143
23,1437152993468,22.932,-36.212,14.476
24,1437152993487,22.575,-36.212,14.476
25,1437152993504,22.575,-36.212,14.476
26,1437152993538,22.575,-36.212,14.476
27,1437152993544,22.575,-36.212,14.787
28,1437152993565,22.575,-36.549,14.787
29,1437152993584,22.575,-36.549,14.787
30,1437152993604,22.241,-36.549,14.787
31,1437152993649,22.241,-36.549,14.787
32,1437152993650,22.241,-36.549,15.136
33,1437152993676,22.241,-36.549,15.136
34,1437152993687,22.241,-36.549,15.136
35,1437152993712,21.939,-36.549,15.136
36,1437152993727,21.939,-36.549,15.136
37,1437152993744,21.939,-36.549,15.49
38,1437152993764,21.939,-36.549,15.49
39,1437152993785,21.939,-36.549,15.49
40,1437152993815,21.939,-36.549,15.49
41,1437152993826,21.624,-36.549,15.49
42,1437152993843,21.624,-36.549,15.834
43,1437152993863,21.624,-36.549,15.834
44,1437152993888,21.624,-36.549,15.834
45,1437152993908,21.624,-36.549,15.834
46,1437152993928,21.624,-36.549,15.834
47,1437152993946,21.624,-36.549,15.834
48,1437152993968,21.624,-36.549,15.834
49,1437152993988,21.624,-36.549,15.834
50,1437152994008,21.624,-36.549,15.834
51,1437152994028,21.624,-36.549,15.834
52,1437152994048,21.624,-36.549,15.834
53,1437152994065,21.624,-36.549,15.834
54,1437152994086,21.624,-36.549,15.834
55,1437152994109,21.624,-36.549,15.834
56,1437152994126,21.624,-36.549,15.834
57,1437152994146,21.624,-36.549,15.834
58,1437152994167,21.624,-36.549,15.834
59,1437152994189,21.624,-36.549,15.834
60,1437152994209,21.624,-36.549,15.834
61,1437152994229,21.624,-36.549,15.834
62,1437152994248,21.624,-36.549,15.834
63,1437152994267,21.624,-36.549,15.834
64,1437152994285,21.624,-36.549,15.834
65,1437152994306,21.624,-36.549,15.834
66,1437152994330,21.624,-36.549,15.834
67,1437152994348,21.624,-36.549,15.834
68,1437152994416,21.624,-36.549,15.834
69,1437152994417,21.624,-36.549,15.834
70,1437152994418,21.971,-36.549,15.834
71,1437152994426,21.971,-36.549,15.834
72,1437152994455,21.971,-36.549,15.533
73,1437152994468,21.971,-36.549,15.533
74,1437152994485,21.971,-36.549,15.533
75,1437152994508,21.971,-36.549,15.533
76,1437152994525,21.971,-36.549,15.533
77,1437152994547,21.971,-36.549,15.533
78,1437152994565,21.971,-36.549,15.533
79,1437152994588,21.971,-36.549,15.533
80,1437152994605,21.971,-36.549,15.533
81,1437152994628,21.971,-36.549,15.533
82,1437152994649,21.971,-36.549,15.533
83,1437152994667,21.971,-36.549,15.533
84,1437152994692,21.971,-36.549,15.533
85,1437152994707,22.273,-36.549,15.533
86,1437152994730,22.273,-36.549,15.213
87,1437152994746,22.273,-36.549,15.213
88,1437152994767,22.273,-36.549,15.213
89,1437152994789,22.273,-36.549,15.213
90,1437152994805,22.273,-36.549,15.213
91,1437152994826,22.273,-36.549,15.213
92,1437152994848,22.273,-36.549,15.213
93,1437152994869,22.273,-36.549,14.88
94,1437152994888,22.273,-36.549,14.88
95,1437152994908,22.273,-36.549,14.88
96,1437152994928,22.273,-36.549,14.88
97,1437152994949,22.273,-36.549,14.88
98,1437152994968,22.273,-36.549,14.88
99,1437152994988,22.273,-36.549,14.88
100,1437152995009,22.589,-36.549,14.555
101,1437152995029,22.589,-36.549,14.555
102,1437152995046,22.589,-36.549,14.555
103,1437152995070,22.589,-36.549,14.555
104,1437152995139,22.589,-36.549,14.555
105,1437152995140,22.589,-36.549,14.555
106,1437152995141,22.589,-36.549,14.555
107,1437152995149,22.589,-36.549,14.555
108,1437152995167,22.589,-36.549,14.555
109,1437152995188,22.589,-36.549,14.555
110,1437152995206,22.589,-36.549,14.555
111,1437152995228,22.909,-36.549,14.224
112,1437152995246,22.909,-36.549,14.224
113,1437152995270,22.909,-36.549,14.224
114,1437152995286,22.909,-36.549,14.224
115,1437152995309,22.909,-36.549,14.224
116,1437152995328,22.909,-36.549,14.224
117,1437152995349,22.909,-36.549,14.224
118,1437152995369,22.909,-36.549,14.224
119,1437152995389,22.909,-36.549,13.922
120,1437152995409,22.909,-36.549,13.922
121,1437152995429,22.909,-36.549,13.922
122,1437152995449,22.909,-36.549,13.922
123,1437152995469,22.909,-36.549,13.922
124,1437152995489,22.909,-36.549,13.922
125,1437152995510,22.909,-36.549,13.922
126,1437152995528,22.909,-36.549,13.922
127,1437152995549,22.909,-36.549,13.922
128,1437152995570,22.909,-36.549,13.922
129,1437152995590,22.909,-36.549,13.922
130,1437152995610,22.909,-36.549,13.922
131,1437152995627,22.909,-36.549,13.922
132,1437152995649,22.909,-36.549,13.922
133,1437152995666,22.909,-36.549,13.922
134,1437152995691,22.909,-36.549,13.922
135,1437152995712,22.909,-36.549,13.922
136,1437152995732,22.909,-36.549,13.922
137,1437152995750,22.909,-36.549,13.922
138,1437152995768,22.909,-36.549,14.303
139,1437152995789,22.909,-36.549,14.303
140,1437152995856,22.909,-36.549,14.303
141,1437152995857,22.909,-36.549,14.303
142,1437152995858,22.909,-36.549,14.303
143,1437152995866,22.909,-36.549,14.303
144,1437152995937,22.909,-36.245,14.303
145,1437152995938,22.909,-36.245,14.624
146,1437152995939,22.909,-36.245,14.624
147,1437152995961,22.909,-36.245,14.624
148,1437152995968,22.909,-36.245,14.624
149,1437152995989,22.909,-36.245,14.624
150,1437152996008,22.909,-36.245,14.624
151,1437152996028,22.909,-36.245,14.624
152,1437152996050,22.909,-36.245,14.624
153,1437152996070,22.909,-36.245,14.624
154,1437152996090,22.909,-36.245,14.624
155,1437152996106,22.909,-36.245,14.624
156,1437152996130,22.909,-36.245,14.952
157,1437152996150,22.909,-36.245,14.952
158,1437152996170,22.909,-36.245,14.952
159,1437152996190,22.909,-36.245,14.952
160,1437152996210,22.909,-36.245,14.952
161,1437152996230,22.586,-36.245,14.952
162,1437152996249,22.586,-36.245,14.952
163,1437152996270,22.586,-36.245,14.952
164,1437152996287,22.586,-36.245,14.952
165,1437152996307,22.586,-36.245,14.952
166,1437152996328,22.586,-36.245,14.952
167,1437152996350,22.586,-36.245,14.952
168,1437152996370,22.586,-36.245,14.952
169,1437152996391,22.586,-36.245,14.952
170,1437152996410,22.586,-36.245,14.952
171,1437152996430,22.586,-36.245,14.952
172,1437152996449,22.586,-36.245,14.952
173,1437152996470,22.586,-36.245,14.952
174,1437152996488,22.586,-36.245,14.952
175,1437152996507,22.586,-36.245,14.952
176,1437152996561,22.586,-36.245,14.952
177,1437152996575,22.586,-36.245,14.952
178,1437152996576,22.586,-36.245,14.952
179,1437152996598,22.586,-36.245,14.952
180,1437152996608,22.586,-36.245,14.952
181,1437152996642,22.586,-36.245,14.952
182,1437152996650,22.586,-36.245,14.952
183,1437152996708,22.586,-36.245,14.952
184,1437152996709,22.586,-36.245,14.952
185,1437152996712,22.586,-36.245,14.952
186,1437152996745,22.586,-36.245,14.952
187,1437152996774,22.586,-36.245,14.952
188,1437152996784,22.586,-36.245,14.952
189,1437152996788,22.586,-36.245,14.952
190,1437152996807,22.586,-36.245,14.952
191,1437152996828,22.586,-36.245,14.952
192,1437152996895,22.586,-36.245,14.952
193,1437152996896,22.586,-36.245,14.639
194,1437152996897,22.586,-36.245,14.639
195,1437152996907,22.586,-36.245,14.639
196,1437152996927,22.586,-36.245,14.639
197,1437152996948,22.586,-36.245,14.639
198,1437152996967,22.586,-36.245,14.639
199,1437152996987,22.586,-36.245,14.639
200,1437152997011,22.28,-36.57,14.639
201,1437152997031,22.28,-36.57,14.639
202,1437152997051,22.28,-36.57,14.639
203,1437152997071,22.28,-36.57,14.639
204,1437152997089,22.28,-36.57,14.639
205,1437152997107,22.28,-36.57,14.639
206,1437152997127,22.28,-36.57,14.639
207,1437152997147,22.28,-36.57,14.639
208,1437152997173,22.28,-36.57,14.639
209,1437152997191,22.28,-36.894,14.639
210,1437152997211,22.28,-36.894,14.639
211,1437152997230,22.28,-36.894,14.639
212,1437152997248,22.28,-36.894,14.317
213,1437152997276,22.28,-36.894,14.317
214,1437152997291,22.28,-36.894,14.317
215,1437152997307,22.28,-36.894,14.317
216,1437152997328,22.28,-36.894,13.94
217,1437152997349,22.28,-36.894,13.94
218,1437152997369,22.28,-36.894,13.94
219,1437152997390,22.648,-36.894,13.94
220,1437152997408,22.648,-36.894,13.555
221,1437152997432,22.648,-36.894,13.555
222,1437152997452,22.648,-36.894,13.555
223,1437152997472,22.976,-36.894,13.555
224,1437152997488,22.976,-36.894,13.177
225,1437152997512,22.976,-36.894,13.177
226,1437152997532,22.976,-36.894,13.177
227,1437152997552,23.277,-36.894,13.177
228,1437152997572,23.277,-36.894,13.177
229,1437152997592,23.277,-36.555,13.177
230,1437152997612,23.277,-36.555,13.177
231,1437152997628,23.277,-36.555,13.177
232,1437152997652,23.277,-36.555,13.177
233,1437152997672,23.277,-36.555,13.177
234,1437152997692,23.277,-36.555,13.177
235,1437152997712,23.277,-36.555,13.177
236,1437152997732,23.277,-36.555,13.177
237,1437152997751,23.277,-36.555,13.177
238,1437152997771,23.277,-36.555,13.177
239,1437152997791,23.277,-36.555,13.177
240,1437152997812,23.277,-36.245,13.177
241,1437152997832,23.277,-36.245,13.177
242,1437152997850,23.277,-36.245,13.177
243,1437152997869,23.277,-36.245,13.177
244,1437152997898,23.277,-36.245,13.177
245,1437152997909,23.277,-36.245,13.177
246,1437152997956,23.277,-36.245,13.177
247,1437152997957,23.277,-36.245,13.478
248,1437152997975,23.277,-36.245,13.478
249,1437152997989,23.277,-36.245,13.478
250,1437152998014,23.277,-36.245,13.478
251,1437152998030,23.277,-36.245,13.478
252,1437152998050,23.277,-36.245,13.478
253,1437152998071,23.277,-36.245,13.478
254,1437152998090,23.277,-36.245,13.478
255,1437152998109,23.277,-36.245,13.478
256,1437152998130,23.277,-36.245,13.478
257,1437152998152,23.277,-36.245,13.478
258,1437152998169,23.277,-36.245,13.478
259,1437152998189,23.277,-36.245,13.825
260,1437152998212,23.277,-36.245,13.825
261,1437152998245,23.277,-36.245,13.825
262,1437152998249,23.277,-36.245,13.825
263,1437152998274,23.277,-36.245,13.825
264,1437152998289,23.277,-36.245,13.825
265,1437152998309,23.277,-36.245,13.825
266,1437152998330,23.277,-36.245,13.825
267,1437152998349,23.277,-36.245,13.825
268,1437152998369,23.277,-36.245,13.825
269,1437152998391,23.277,-36.245,13.825
270,1437152998409,23.277,-36.245,13.825
271,1437152998429,23.277,-36.245,13.825
272,1437152998449,22.892,-36.245,14.137
273,1437152998469,22.892,-36.245,14.137
274,1437152998489,22.892,-36.245,14.137
275,1437152998509,22.892,-36.245,14.137
276,1437152998529,22.563,-36.245,14.137
277,1437152998549,22.563,-36.564,14.448
278,1437152998569,22.563,-36.564,14.448
279,1437152998589,22.563,-36.564,14.448
280,1437152998609,22.221,-36.564,14.448
281,1437152998629,22.221,-36.564,14.448
282,1437152998669,22.221,-36.564,14.448
283,1437152998670,22.221,-36.564,14.448
284,1437152998690,22.221,-36.564,14.448
285,1437152998709,21.89,-36.889,14.448
286,1437152998730,21.89,-36.889,14.448
287,1437152998749,21.89,-36.889,14.448
288,1437152998769,21.89,-36.889,14.448
289,1437152998795,21.89,-36.889,14.448
290,1437152998809,21.89,-36.889,14.448
291,1437152998829,21.89,-36.889,14.448
292,1437152998851,21.89,-36.889,14.448
293,1437152998868,21.89,-36.889,14.448
294,1437152998890,21.89,-36.889,14.134
295,1437152998908,21.89,-36.889,14.134
296,1437152998928,21.89,-36.889,14.134
297,1437152998948,21.89,-36.889,13.742
298,1437152998968,21.89,-36.889,13.742
299,1437152998988,22.261,-36.889,13.432
300,1437152999011,22.261,-36.889,13.432
301,1437152999034,22.261,-36.889,13.128
302,1437152999053,22.7,-36.889,13.128
303,1437152999071,22.7,-36.889,12.759
304,1437152999094,23.013,-36.889,12.759
305,1437152999114,23.013,-36.889,12.452
306,1437152999134,23.352,-36.889,12.452
307,1437152999153,23.352,-36.573,12.115
308,1437152999172,23.672,-36.573,12.115
309,1437152999190,23.672,-36.573,11.761
310,1437152999210,23.672,-36.573,11.761
311,1437152999230,24.093,-36.573,11.761
312,1437152999254,24.093,-36.573,11.375
313,1437152999273,24.093,-36.573,11.375
314,1437152999292,24.441,-36.251,11.375
315,1437152999314,24.441,-36.251,11.03
316,1437152999330,24.441,-36.251,11.03
317,1437152999351,24.755,-36.251,11.03
318,1437152999371,24.755,-36.251,10.664
319,1437152999389,24.755,-36.251,10.664
320,1437152999411,24.755,-36.251,10.664
321,1437152999430,24.755,-36.251,10.319
322,1437152999450,24.755,-36.251,10.319
323,1437152999474,24.755,-36.251,10.319
324,1437152999492,24.755,-36.251,10.319
325,1437152999510,24.755,-36.251,10.319
326,1437152999534,24.755,-36.251,10.319
327,1437152999554,24.755,-36.251,10.319
328,1437152999570,24.755,-36.251,10.319
329,1437152999594,24.755,-36.251,10.319
330,1437152999614,24.755,-36.251,9.997
331,1437152999634,24.755,-36.251,9.997
332,1437152999654,24.755,-36.251,9.997
333,1437152999674,24.755,-36.251,9.997
334,1437152999694,24.755,-36.251,9.997
335,1437152999714,24.755,-36.251,9.997
336,1437152999732,24.755,-36.251,9.997
337,1437152999754,24.755,-36.251,9.997
338,1437152999774,24.755,-36.251,9.997
339,1437152999794,24.755,-36.251,9.997
340,1437152999814,24.44,-36.251,9.997
341,1437152999833,24.44,-36.555,9.997
342,1437152999853,24.44,-36.555,9.997
343,1437152999873,24.44,-36.555,10.33
344,1437152999892,24.44,-36.555,10.33
345,1437152999914,24.44,-36.555,10.33
346,1437152999932,24.44,-36.555,10.33
347,1437152999952,24.44,-36.555,10.33
348,1437152999971,24.44,-36.555,10.33
349,1437152999992,24.44,-36.555,10.33
350,1437153000014,24.44,-36.555,10.33
351,1437153000065,24.44,-36.555,10.33
352,1437153000066,24.44,-36.555,10.33
353,1437153000081,24.44,-36.555,10.33
354,1437153000090,24.44,-36.555,10.33
355,1437153000113,24.792,-36.555,10.33
356,1437153000131,24.792,-36.555,10.33
357,1437153000176,24.792,-36.555,10.33
358,1437153000177,24.792,-36.555,10.33
359,1437153000191,24.792,-36.216,10.029
360,1437153000212,24.792,-36.216,10.029
361,1437153000237,25.144,-36.216,10.029
362,1437153000252,25.144,-36.216,10.029
363,1437153000272,25.144,-36.216,10.029
364,1437153000294,25.144,-36.216,9.695
365,1437153000314,25.144,-36.216,9.695
366,1437153000334,25.494,-35.868,9.695
367,1437153000354,25.494,-35.868,9.695
368,1437153000374,25.494,-35.868,9.695
369,1437153000394,25.494,-35.868,9.695
370,1437153000414,25.494,-35.868,9.695
371,1437153000434,25.828,-35.868,9.695
372,1437153000454,25.828,-35.563,9.695
373,1437153000477,25.828,-35.563,9.695
374,1437153000494,25.828,-35.563,9.695
375,1437153000517,25.828,-35.563,9.695
376,1437153000533,25.828,-35.563,10.061
377,1437153000556,25.828,-35.563,10.061
378,1437153000574,25.828,-35.563,10.061
379,1437153000591,25.828,-35.563,10.482
380,1437153000611,25.828,-35.563,10.482
381,1437153000631,25.828,-35.563,10.797
382,1437153000658,25.828,-35.563,10.797
383,1437153000673,25.828,-35.563,11.149
384,1437153000696,25.43,-35.563,11.149
385,1437153000714,25.43,-35.563,11.499
386,1437153000737,25.43,-35.563,11.499
387,1437153000798,24.996,-35.563,11.888
388,1437153000799,24.996,-35.563,11.888
389,1437153000800,24.682,-35.563,11.888
390,1437153000811,24.682,-35.563,12.3
391,1437153000832,24.682,-35.563,12.3
392,1437153000855,24.258,-35.9,12.3
393,1437153000871,24.258,-35.9,12.637
394,1437153000891,24.258,-35.9,12.637
395,1437153000913,23.878,-35.9,12.637
396,1437153000932,23.878,-35.9,12.637
397,1437153000953,23.878,-35.9,12.637
398,1437153000973,23.878,-35.9,12.637
399,1437153000992,23.878,-35.9,12.637
400,1437153001014,23.878,-35.9,12.979
401,1437153001035,23.878,-36.231,12.979
402,1437153001055,23.878,-36.231,12.979
403,1437153001075,23.878,-36.231,12.979
404,1437153001095,23.878,-36.231,12.979
405,1437153001115,23.878,-36.231,12.979
406,1437153001135,23.878,-36.231,12.979
407,1437153001155,23.878,-36.231,12.979
408,1437153001173,23.878,-36.231,12.979
409,1437153001193,23.878,-36.231,12.979
410,1437153001219,23.878,-36.231,12.979
411,1437153001232,23.878,-36.231,12.979
412,1437153001252,23.878,-36.231,12.979
413,1437153001272,23.878,-36.231,12.979
414,1437153001291,23.878,-36.231,12.979
415,1437153001313,23.878,-36.231,12.979
416,1437153001332,23.878,-36.231,12.979
417,1437153001353,23.878,-36.231,12.979
418,1437153001374,23.878,-36.231,12.979
419,1437153001395,23.878,-36.231,12.979
420,1437153001415,23.878,-36.231,12.979
421,1437153001432,23.878,-36.231,12.979
422,1437153001453,23.878,-36.231,12.979
423,1437153001482,23.878,-36.231,12.979
424,1437153001492,24.188,-35.928,12.979
425,1437153001540,24.188,-35.928,12.979
426,1437153001541,24.188,-35.928,12.979
427,1437153001561,24.188,-35.928,12.979
428,1437153001572,24.188,-35.928,12.979
429,1437153001593,24.188,-35.928,12.979
430,1437153001613,24.188,-35.928,12.979
431,1437153001632,24.188,-35.928,12.979
432,1437153001654,24.188,-35.928,12.979
433,1437153001672,24.188,-35.928,12.979
434,1437153001695,24.188,-35.928,12.979
435,1437153001717,24.188,-35.928,12.979
436,1437153001733,24.188,-35.928,12.979
437,1437153001753,24.188,-35.928,12.979
438,1437153001775,24.188,-35.928,12.979
439,1437153001795,24.188,-35.928,12.979
440,1437153001815,23.869,-35.928,12.979
441,1437153001835,23.869,-35.928,12.979
442,1437153001855,23.869,-35.928,12.979
443,1437153001875,23.869,-35.928,12.979
444,1437153001907,23.869,-35.928,12.979
445,1437153001912,23.869,-35.928,12.979
446,1437153001932,23.869,-35.928,12.979
447,1437153001952,23.532,-36.241,12.979
448,1437153001974,23.532,-36.241,12.979
449,1437153001997,23.532,-36.241,12.979
450,1437153002016,23.532,-36.241,12.979
451,1437153002038,23.532,-36.241,12.979
452,1437153002053,23.204,-36.241,12.979
453,1437153002073,23.204,-36.241,13.339
454,1437153002092,23.204,-36.241,13.339
455,1437153002113,23.204,-36.56,13.339
456,1437153002138,23.204,-36.56,13.339
457,1437153002157,22.889,-36.56,13.665
458,1437153002177,22.889,-36.56,13.665
459,1437153002196,22.889,-36.56,13.665
460,1437153002215,22.889,-36.56,13.665
461,1437153002327,22.889,-36.56,13.992
462,1437153002328,22.544,-36.56,13.992
463,1437153002329,22.544,-36.56,13.992
464,1437153002330,22.544,-36.56,13.992
465,1437153002331,22.544,-36.56,13.992
466,1437153002345,22.544,-36.56,14.344
467,1437153002386,22.544,-36.56,14.344
468,1437153002387,22.544,-36.56,14.344
469,1437153002393,22.544,-36.56,14.344
470,1437153002425,22.544,-36.56,14.344
471,1437153002433,22.544,-36.56,14.344
472,1437153002453,22.544,-36.56,14.344
473,1437153002473,22.544,-36.56,14.344
474,1437153002493,22.544,-36.56,14.344
475,1437153002513,22.544,-36.56,14.344
476,1437153002533,22.544,-36.56,14.344
477,1437153002553,22.544,-36.56,14.344
478,1437153002573,22.544,-36.56,14.668
479,1437153002593,22.544,-36.56,14.668
480,1437153002613,22.544,-36.56,14.668
481,1437153002633,22.544,-36.56,14.668
482,1437153002653,22.544,-36.56,14.668
483,1437153002673,22.544,-36.56,14.668
484,1437153002693,22.544,-36.253,14.668
485,1437153002713,22.544,-36.253,14.668
486,1437153002735,22.544,-36.253,14.668
487,1437153002755,22.544,-36.253,14.668
488,1437153002775,22.85,-36.253,14.668
489,1437153002794,22.85,-36.253,14.668
490,1437153002813,22.85,-36.253,14.668
491,1437153002833,22.85,-36.253,14.668
492,1437153002854,22.85,-36.253,14.668
493,1437153002876,22.85,-35.9,14.668
494,1437153002893,23.191,-35.9,14.668
495,1437153002914,23.191,-35.9,14.668
496,1437153002934,23.191,-35.9,14.668
497,1437153002963,23.191,-35.9,14.668
498,1437153003021,23.191,-35.9,14.668
499,1437153003022,23.191,-35.9,14.668
500,1437153003023,23.191,-35.9,14.668
501,1437153003042,23.191,-35.9,14.668
502,1437153003057,23.191,-35.9,14.668
503,1437153003081,23.191,-35.9,14.668
504,1437153003094,23.191,-35.9,14.668
505,1437153003115,23.191,-35.9,14.668
506,1437153003136,23.191,-35.9,14.668
507,1437153003155,23.191,-35.9,14.668
