id,attr_time,attr_x,attr_y,attr_z
1,1437152993014,12.466,-44.377,-7.44
2,1437152993034,12.466,-44.377,-7.44
3,1437152993052,12.466,-44.377,-7.44
4,1437152993076,12.466,-44.377,-7.44
5,1437152993104,12.466,-44.377,-7.44
6,1437152993114,12.466,-44.377,-7.44
7,1437152993130,12.466,-44.377,-7.44
8,1437152993151,12.466,-44.377,-7.44
9,1437152993172,12.466,-44.377,-7.44
10,1437152993191,12.466,-44.377,-7.44
11,1437152993214,12.466,-44.377,-7.44
12,1437152993234,12.466,-44.377,-7.757
13,1437152993254,12.466,-44.377,-7.757
14,1437152993274,12.466,-44.377,-7.757
15,1437152993297,12.466,-44.377,-7.757
16,1437152993312,12.466,-44.377,-8.078
17,1437152993336,12.466,-44.377,-8.078
18,1437152993354,12.466,-44.377,-8.078
19,1437152993374,12.466,-44.377,-8.078
20,1437152993395,12.466,-44.377,-8.078
21,1437152993414,12.156,-44.377,-8.078
22,1437152993433,12.156,-44.377,-8.078
23,1437152993451,12.156,-44.377,-8.078
24,1437152993472,12.156,-44.377,-8.473
25,1437152993494,12.156,-44.377,-8.473
26,1437152993514,12.156,-44.377,-8.473
27,1437152993534,12.156,-44.377,-8.473
28,1437152993554,12.156,-44.377,-8.473
29,1437152993574,12.156,-44.377,-8.473
30,1437152993594,12.156,-44.377,-8.473
31,1437152993615,12.156,-44.377,-8.784
32,1437152993638,12.156,-44.377,-8.784
33,1437152993654,12.156,-44.377,-8.784
34,1437152993672,12.156,-44.377,-8.784
35,1437152993692,12.156,-44.377,-8.784
36,1437152993712,12.156,-44.377,-8.784
37,1437152993746,12.156,-44.377,-8.784
38,1437152993842,12.156,-44.377,-8.784
39,1437152993843,12.156,-44.377,-8.784
40,1437152993856,12.156,-44.377,-8.784
41,1437152993857,12.156,-44.377,-8.784
42,1437152993858,12.156,-44.377,-8.784
43,1437152993859,12.156,-44.377,-8.784
44,1437152993875,12.156,-44.377,-8.784
45,1437152993894,12.156,-44.377,-8.784
46,1437152993912,12.156,-44.377,-8.474
47,1437152993944,12.156,-44.377,-8.474
48,1437152993966,12.156,-44.377,-8.474
49,1437152993972,12.156,-44.377,-8.474
50,1437152993997,12.156,-44.377,-8.474
51,1437152994012,12.156,-44.377,-8.474
52,1437152994032,12.515,-44.377,-8.474
53,1437152994052,12.515,-44.377,-8.132
54,1437152994074,12.515,-44.377,-8.132
55,1437152994095,12.515,-44.377,-8.132
56,1437152994112,12.515,-44.377,-8.132
57,1437152994133,12.832,-44.377,-8.132
58,1437152994154,12.832,-44.377,-8.132
59,1437152994175,12.832,-44.377,-7.815
60,1437152994194,12.832,-44.377,-7.815
61,1437152994215,13.142,-44.377,-7.815
62,1437152994235,13.142,-44.377,-7.815
63,1437152994253,13.142,-44.377,-7.815
64,1437152994272,13.142,-44.377,-7.815
65,1437152994293,13.473,-44.377,-7.815
66,1437152994313,13.473,-44.377,-7.815
67,1437152994335,13.473,-44.377,-7.815
68,1437152994354,13.473,-44.377,-7.815
69,1437152994374,13.473,-44.064,-7.815
70,1437152994395,13.851,-44.064,-7.815
71,1437152994414,13.851,-44.064,-7.815
72,1437152994432,13.851,-44.064,-7.473
73,1437152994454,13.851,-44.064,-7.473
74,1437152994475,13.851,-44.064,-7.473
75,1437152994495,13.851,-44.064,-7.473
76,1437152994525,13.851,-44.064,-7.473
77,1437152994532,14.155,-44.064,-7.473
78,1437152994552,14.155,-44.064,-7.473
79,1437152994573,14.155,-44.064,-7.473
80,1437152994594,14.155,-44.064,-7.473
81,1437152994614,14.155,-44.064,-7.473
82,1437152994634,14.155,-44.064,-7.473
83,1437152994652,14.155,-44.064,-7.473
84,1437152994676,14.155,-44.064,-7.473
85,1437152994696,14.155,-44.064,-7.473
86,1437152994716,14.155,-44.064,-7.473
87,1437152994732,14.155,-44.064,-7.473
88,1437152994753,14.155,-44.064,-7.473
89,1437152994776,14.155,-44.064,-7.473
90,1437152994795,14.155,-44.064,-7.473
91,1437152994816,14.155,-44.064,-7.473
92,1437152994837,14.155,-44.064,-7.473
93,1437152994859,14.155,-44.064,-7.473
94,1437152994874,14.155,-44.064,-7.473
95,1437152994893,14.155,-44.064,-7.473
96,1437152994915,14.155,-44.064,-7.473
97,1437152994934,14.155,-44.064,-7.473
98,1437152994954,14.155,-44.064,-7.473
99,1437152994977,14.155,-44.064,-7.473
100,1437152994997,14.155,-44.064,-7.473
101,1437152995019,14.155,-44.064,-7.473
102,1437152995036,14.155,-44.064,-7.473
103,1437152995055,14.155,-44.064,-7.473
104,1437152995077,14.155,-44.064,-7.473
105,1437152995094,14.155,-44.064,-7.473
106,1437152995120,14.155,-44.064,-7.473
107,1437152995164,14.155,-44.064,-7.473
108,1437152995165,14.155,-44.064,-7.473
109,1437152995173,14.155,-44.064,-7.473
110,1437152995195,14.155,-44.064,-7.473
111,1437152995215,13.807,-44.064,-7.473
112,1437152995235,13.807,-44.064,-7.473
113,1437152995253,13.807,-44.064,-7.473
114,1437152995281,13.807,-44.064,-7.473
115,1437152995318,13.807,-44.064,-7.473
116,1437152995319,13.807,-44.064,-7.473
117,1437152995334,13.807,-44.064,-7.473
118,1437152995354,13.807,-44.064,-7.473
119,1437152995374,13.465,-44.064,-7.473
120,1437152995395,13.465,-44.064,-7.473
121,1437152995417,13.465,-44.064,-7.473
122,1437152995437,13.465,-44.064,-7.473
123,1437152995457,13.465,-44.064,-7.473
124,1437152995477,13.465,-44.064,-7.473
125,1437152995497,13.13,-44.064,-7.473
126,1437152995517,13.13,-44.064,-7.473
127,1437152995535,13.13,-44.064,-7.473
128,1437152995554,13.13,-44.064,-7.473
129,1437152995574,13.13,-44.064,-7.473
130,1437152995596,13.13,-44.064,-7.814
131,1437152995617,13.13,-44.064,-7.814
132,1437152995637,13.13,-44.064,-7.814
133,1437152995657,13.13,-44.064,-7.814
134,1437152995677,13.13,-44.064,-7.814
135,1437152995698,13.13,-44.064,-7.814
136,1437152995717,13.13,-44.064,-8.134
137,1437152995737,13.13,-44.064,-8.134
138,1437152995757,13.13,-44.064,-8.134
139,1437152995776,13.13,-44.064,-8.134
140,1437152995795,13.13,-44.064,-8.134
141,1437152995815,13.13,-44.064,-8.134
142,1437152995843,13.13,-44.064,-8.134
143,1437152995927,13.13,-44.064,-8.134
144,1437152995928,13.13,-44.064,-8.134
145,1437152995929,12.809,-44.064,-8.134
146,1437152995930,12.809,-44.064,-8.134
147,1437152995938,12.809,-44.064,-8.134
148,1437152995954,12.809,-44.064,-8.134
149,1437152995975,12.809,-44.064,-8.134
150,1437152995995,12.809,-44.064,-8.134
151,1437152996022,12.809,-44.064,-8.134
152,1437152996034,12.48,-44.064,-8.134
153,1437152996085,12.48,-44.064,-8.134
154,1437152996086,12.48,-44.064,-8.134
155,1437152996096,12.48,-44.064,-8.134
156,1437152996114,12.48,-44.064,-8.134
157,1437152996136,12.48,-44.064,-8.134
158,1437152996158,12.48,-44.064,-8.134
159,1437152996179,12.48,-44.064,-8.134
160,1437152996198,12.48,-44.064,-8.134
161,1437152996218,12.174,-44.378,-8.134
162,1437152996236,12.174,-44.378,-8.134
163,1437152996256,12.174,-44.378,-8.134
164,1437152996274,12.174,-44.378,-8.134
165,1437152996309,12.174,-44.378,-8.134
166,1437152996317,12.174,-44.378,-8.134
167,1437152996337,12.174,-44.378,-8.134
168,1437152996360,12.174,-44.378,-8.134
169,1437152996377,12.174,-44.378,-8.134
170,1437152996397,12.174,-44.378,-8.134
171,1437152996420,12.174,-44.378,-8.134
172,1437152996441,12.174,-44.378,-8.134
173,1437152996456,12.174,-44.378,-8.134
174,1437152996475,12.477,-44.378,-8.134
175,1437152996496,12.477,-44.378,-8.134
176,1437152996516,12.477,-44.378,-8.134
177,1437152996536,12.477,-44.378,-8.134
178,1437152996555,12.477,-44.378,-8.134
179,1437152996626,12.477,-44.378,-8.134
180,1437152996627,12.477,-44.378,-8.134
181,1437152996628,12.808,-44.378,-8.134
182,1437152996636,12.808,-44.378,-8.134
183,1437152996656,12.808,-44.378,-8.134
184,1437152996675,12.808,-44.378,-7.801
185,1437152996697,12.808,-44.378,-7.801
186,1437152996715,13.124,-44.378,-7.801
187,1437152996736,13.124,-44.378,-7.801
188,1437152996755,13.124,-44.378,-7.801
189,1437152996775,13.124,-44.378,-7.801
190,1437152996797,13.124,-44.378,-7.801
191,1437152996817,13.124,-44.378,-7.801
192,1437152996838,13.435,-44.378,-7.801
193,1437152996857,13.435,-44.075,-7.801
194,1437152996876,13.435,-44.075,-7.801
195,1437152996895,13.435,-44.075,-7.801
196,1437152996915,13.435,-44.075,-7.801
197,1437152996936,13.435,-44.075,-7.801
198,1437152996957,13.435,-44.075,-7.801
199,1437152996977,13.435,-44.075,-7.801
200,1437152996997,13.435,-44.075,-7.801
201,1437152997020,13.435,-44.075,-7.801
202,1437152997038,13.435,-44.075,-7.801
203,1437152997057,13.435,-44.075,-7.801
204,1437152997080,13.435,-44.075,-7.801
205,1437152997096,13.435,-44.075,-7.801
206,1437152997116,13.435,-44.075,-7.801
207,1437152997136,13.435,-44.075,-7.801
208,1437152997156,13.435,-44.075,-7.801
209,1437152997177,13.435,-44.075,-7.801
210,1437152997198,13.108,-44.075,-7.801
211,1437152997217,13.108,-44.075,-7.801
212,1437152997237,13.108,-44.075,-7.801
213,1437152997257,13.108,-44.075,-7.801
214,1437152997279,13.108,-44.075,-7.801
215,1437152997427,13.108,-44.075,-7.801
216,1437152997428,13.108,-44.075,-7.801
217,1437152997429,13.108,-44.075,-7.801
218,1437152997430,13.108,-44.075,-7.801
219,1437152997431,13.108,-44.075,-7.801
220,1437152997432,13.108,-44.075,-7.801
221,1437152997433,13.108,-44.075,-7.801
222,1437152997436,13.108,-44.075,-7.801
223,1437152997457,13.108,-44.075,-7.801
224,1437152997475,13.108,-44.075,-7.801
225,1437152997525,13.108,-44.075,-7.801
226,1437152997526,13.108,-44.075,-7.801
227,1437152997537,13.108,-44.075,-7.801
228,1437152997563,13.108,-44.075,-7.801
229,1437152997576,13.108,-44.075,-7.801
230,1437152997599,13.108,-44.075,-7.801
231,1437152997617,13.108,-44.075,-7.801
232,1437152997637,13.108,-44.075,-7.801
233,1437152997656,13.108,-44.075,-7.801
234,1437152997676,13.108,-44.075,-7.801
235,1437152997696,12.78,-44.075,-7.801
236,1437152997715,12.78,-44.075,-7.455
237,1437152997739,12.78,-44.075,-7.455
238,1437152997760,12.78,-44.075,-7.455
239,1437152997780,12.78,-44.075,-7.455
240,1437152997798,12.78,-44.377,-7.455
241,1437152997818,12.78,-44.377,-7.455
242,1437152997839,12.78,-44.377,-7.455
243,1437152997860,12.463,-44.377,-7.455
244,1437152997886,12.463,-44.377,-7.455
245,1437152997899,12.463,-44.377,-7.455
246,1437152997918,12.463,-44.377,-7.455
247,1437152997937,12.463,-44.377,-7.455
248,1437152997957,12.463,-44.377,-7.455
249,1437152997978,12.098,-44.377,-7.455
250,1437152998001,12.098,-44.377,-7.455
251,1437152998021,12.098,-44.377,-7.797
252,1437152998042,12.098,-44.377,-7.797
253,1437152998130,12.098,-44.377,-7.797
254,1437152998131,12.098,-44.377,-7.797
255,1437152998132,11.778,-44.377,-8.154
256,1437152998133,11.778,-44.377,-8.154
257,1437152998141,11.778,-44.377,-8.154
258,1437152998157,11.778,-44.377,-8.502
259,1437152998176,11.778,-44.377,-8.502
260,1437152998196,11.778,-44.377,-8.502
261,1437152998229,11.778,-44.377,-8.502
262,1437152998236,11.778,-44.377,-8.836
263,1437152998258,11.778,-44.377,-8.836
264,1437152998290,11.778,-44.377,-8.836
265,1437152998297,11.778,-44.377,-8.836
266,1437152998322,11.778,-44.377,-9.202
267,1437152998341,11.778,-44.377,-9.202
268,1437152998358,11.778,-44.377,-9.202
269,1437152998377,11.778,-44.377,-9.202
270,1437152998398,11.778,-44.377,-9.539
271,1437152998418,11.778,-44.377,-9.539
272,1437152998437,11.778,-44.377,-9.539
273,1437152998456,11.778,-44.377,-9.539
274,1437152998476,11.778,-44.377,-9.539
275,1437152998498,11.778,-44.377,-9.539
276,1437152998517,11.778,-44.377,-9.539
277,1437152998538,11.778,-44.377,-9.539
278,1437152998557,11.778,-44.377,-9.539
279,1437152998577,11.778,-44.377,-9.539
280,1437152998597,11.778,-44.377,-9.539
281,1437152998623,11.778,-44.377,-9.539
282,1437152998643,11.778,-44.377,-9.539
283,1437152998663,11.778,-44.377,-9.539
284,1437152998680,11.778,-44.377,-9.539
285,1437152998698,11.778,-44.377,-9.539
286,1437152998717,11.778,-44.377,-9.539
287,1437152998744,11.778,-44.377,-9.208
288,1437152998757,11.778,-44.377,-9.208
289,1437152998851,11.778,-44.377,-9.208
290,1437152998852,11.778,-44.377,-9.208
291,1437152998853,11.778,-44.377,-9.208
292,1437152998854,11.778,-44.377,-9.208
293,1437152998859,11.778,-44.377,-8.9
294,1437152998877,11.778,-44.377,-8.9
295,1437152998897,11.778,-44.377,-8.9
296,1437152998917,11.778,-44.377,-8.9
297,1437152998947,11.778,-44.377,-8.552
298,1437152998957,11.778,-44.377,-8.552
299,1437152998978,11.778,-44.377,-8.552
300,1437152999003,11.778,-44.377,-8.552
301,1437152999019,11.778,-44.377,-8.552
302,1437152999041,11.778,-44.377,-8.247
303,1437152999059,11.778,-44.377,-8.247
304,1437152999078,11.778,-44.377,-8.247
305,1437152999100,11.778,-44.377,-8.247
306,1437152999118,12.092,-44.377,-8.247
307,1437152999137,12.092,-44.377,-8.247
308,1437152999157,12.092,-44.377,-7.911
309,1437152999177,12.092,-44.377,-7.911
310,1437152999197,12.092,-44.377,-7.911
311,1437152999220,12.092,-44.377,-7.911
312,1437152999238,12.443,-44.377,-7.911
313,1437152999425,12.443,-44.377,-7.594
314,1437152999426,12.443,-44.377,-7.594
315,1437152999427,12.443,-44.377,-7.594
316,1437152999428,12.443,-44.377,-7.594
317,1437152999429,12.802,-44.377,-7.594
318,1437152999430,12.802,-44.377,-7.594
319,1437152999431,12.802,-44.377,-7.594
320,1437152999432,12.802,-44.377,-7.594
321,1437152999433,12.802,-44.377,-7.594
322,1437152999470,12.802,-44.377,-7.594
323,1437152999471,12.802,-44.377,-7.594
324,1437152999477,12.802,-44.377,-7.594
325,1437152999498,12.802,-44.377,-7.594
326,1437152999517,12.802,-44.377,-7.594
327,1437152999558,12.802,-44.377,-7.594
328,1437152999568,12.802,-44.377,-7.594
329,1437152999577,12.802,-44.377,-7.929
330,1437152999602,12.802,-44.377,-7.929
331,1437152999617,12.802,-44.377,-7.929
332,1437152999650,12.802,-44.377,-8.277
333,1437152999657,12.802,-44.377,-8.277
334,1437152999677,12.802,-44.377,-8.277
335,1437152999696,12.423,-44.377,-8.715
336,1437152999716,12.423,-44.377,-8.715
337,1437152999737,12.423,-44.377,-8.715
338,1437152999757,12.121,-44.377,-9.065
339,1437152999777,12.121,-44.377,-9.065
340,1437152999797,12.121,-44.377,-9.065
341,1437152999817,11.781,-44.377,-9.442
342,1437152999837,11.781,-44.377,-9.442
343,1437152999857,11.781,-44.377,-9.442
344,1437152999877,11.354,-44.377,-9.765
345,1437152999896,11.354,-44.377,-9.765
346,1437152999916,11.354,-44.377,-9.765
347,1437152999937,10.997,-44.377,-10.075
348,1437152999957,10.997,-44.377,-10.075
349,1437152999977,10.997,-44.377,-10.075
350,1437152999997,10.668,-44.377,-10.075
351,1437153000017,10.668,-44.377,-10.075
352,1437153000037,10.668,-44.377,-10.388
353,1437153000058,10.354,-44.377,-10.388
354,1437153000078,10.354,-44.377,-10.388
355,1437153000097,10.354,-44.377,-10.388
356,1437153000119,10.354,-44.377,-10.388
357,1437153000138,10.354,-44.377,-10.388
358,1437153000158,10.008,-44.377,-10.388
359,1437153000179,10.008,-44.377,-10.388
360,1437153000197,10.008,-44.377,-10.388
361,1437153000251,10.008,-44.377,-10.388
362,1437153000252,10.008,-44.377,-10.388
363,1437153000262,10.008,-44.377,-10.388
364,1437153000278,10.008,-44.377,-10.388
365,1437153000300,10.008,-44.377,-10.388
366,1437153000317,10.008,-44.377,-10.388
367,1437153000349,10.008,-44.377,-10.388
368,1437153000357,10.008,-44.377,-10.388
369,1437153000382,10.008,-44.377,-10.388
370,1437153000399,10.008,-44.377,-10.388
371,1437153000419,10.008,-44.377,-10.388
372,1437153000439,10.008,-44.377,-10.388
373,1437153000459,10.008,-44.377,-10.388
374,1437153000479,10.008,-44.377,-10.388
375,1437153000498,10.008,-44.377,-10.388
376,1437153000518,10.008,-44.377,-10.388
377,1437153000539,10.008,-44.377,-10.388
378,1437153000560,10.308,-44.377,-10.388
379,1437153000612,10.308,-44.377,-10.388
380,1437153000613,10.308,-44.377,-10.388
381,1437153000618,10.308,-44.377,-10.388
382,1437153000640,10.308,-44.377,-10.388
383,1437153000660,10.308,-44.377,-10.388
384,1437153000685,10.308,-44.377,-10.388
385,1437153000699,10.308,-44.377,-10.388
386,1437153000719,10.308,-44.377,-10.388
387,1437153000739,10.0,-44.377,-10.388
388,1437153000760,10.0,-44.377,-10.7
389,1437153000783,10.0,-44.377,-10.7
390,1437153000802,10.0,-44.377,-10.7
391,1437153000823,9.643,-44.377,-10.7
392,1437153000840,9.643,-44.377,-10.7
393,1437153000863,9.643,-44.377,-11.029
394,1437153000942,9.643,-44.377,-11.029
395,1437153000943,9.294,-44.377,-11.029
396,1437153000952,9.294,-44.377,-11.029
397,1437153000953,9.294,-44.377,-11.029
398,1437153000959,9.294,-44.377,-11.029
399,1437153000979,9.294,-44.377,-11.332
400,1437153000999,9.294,-44.377,-11.332
401,1437153001031,9.294,-44.377,-11.332
402,1437153001039,9.294,-44.377,-11.332
403,1437153001060,9.294,-44.377,-11.332
404,1437153001090,9.294,-44.377,-11.332
405,1437153001101,9.294,-44.377,-11.332
406,1437153001120,9.294,-44.377,-11.332
407,1437153001141,9.294,-44.377,-11.332
408,1437153001160,9.294,-44.377,-11.332
409,1437153001181,9.294,-44.377,-11.332
410,1437153001199,9.294,-44.377,-11.332
411,1437153001220,9.294,-44.377,-11.332
412,1437153001239,9.294,-44.377,-11.332
413,1437153001264,9.613,-44.377,-11.332
414,1437153001281,9.613,-44.377,-11.332
415,1437153001302,9.613,-44.377,-11.332
416,1437153001335,9.613,-44.377,-11.006
417,1437153001342,9.983,-44.377,-11.006
418,1437153001366,9.983,-44.377,-11.006
419,1437153001385,9.983,-44.377,-11.006
420,1437153001400,9.983,-44.377,-11.006
421,1437153001420,10.299,-44.377,-11.006
422,1437153001441,10.299,-44.377,-11.006
423,1437153001460,10.299,-44.377,-11.006
424,1437153001481,10.299,-44.377,-10.655
425,1437153001500,10.299,-44.377,-10.655
426,1437153001519,10.299,-44.377,-10.655
427,1437153001540,10.614,-44.377,-10.655
428,1437153001561,10.614,-44.377,-10.655
429,1437153001645,10.614,-44.377,-10.655
430,1437153001646,10.614,-44.377,-10.655
431,1437153001647,10.614,-44.377,-10.655
432,1437153001648,10.614,-44.377,-10.351
433,1437153001666,10.614,-44.377,-10.351
434,1437153001680,10.931,-44.377,-10.351
435,1437153001707,10.931,-44.377,-10.351
436,1437153001752,10.931,-44.377,-10.351
437,1437153001753,10.931,-44.377,-10.351
438,1437153001786,10.931,-44.377,-10.351
439,1437153001787,10.931,-44.377,-10.351
440,1437153001815,10.931,-44.377,-10.351
441,1437153001824,10.931,-44.377,-10.351
442,1437153001845,10.931,-44.377,-10.351
443,1437153001860,10.931,-44.377,-10.351
444,1437153001883,10.931,-44.377,-10.351
445,1437153001901,10.931,-44.377,-10.351
446,1437153001921,10.931,-44.377,-10.351
447,1437153001939,10.931,-44.377,-10.351
448,1437153001960,10.931,-44.377,-10.351
449,1437153001984,10.931,-44.377,-10.351
450,1437153002002,10.931,-44.377,-10.351
451,1437153002023,10.931,-44.377,-10.351
452,1437153002042,10.931,-44.377,-10.351
453,1437153002064,10.931,-44.377,-10.351
454,1437153002083,10.931,-44.377,-10.351
455,1437153002102,10.931,-44.377,-10.351
456,1437153002120,10.931,-44.377,-10.351
457,1437153002140,10.931,-44.377,-10.351
458,1437153002160,10.931,-44.377,-10.351
459,1437153002184,10.931,-44.377,-10.351
460,1437153002204,10.931,-44.377,-10.351
461,1437153002225,10.931,-44.377,-10.351
462,1437153002244,10.931,-44.377,-10.351
463,1437153002264,10.931,-44.377,-10.351
464,1437153002280,10.931,-44.377,-10.351
465,1437153002306,10.931,-44.377,-10.351
466,1437153002427,10.931,-44.377,-10.351
467,1437153002428,10.931,-44.377,-10.351
468,1437153002429,10.931,-44.377,-10.351
469,1437153002430,10.931,-44.377,-10.011
470,1437153002431,10.931,-44.377,-10.011
471,1437153002432,10.931,-44.377,-10.011
472,1437153002442,10.931,-44.377,-10.011
473,1437153002460,10.931,-44.377,-10.011
474,1437153002480,10.931,-44.377,-9.693
475,1437153002510,10.931,-44.377,-9.693
476,1437153002520,10.931,-44.377,-9.693
477,1437153002545,10.931,-44.377,-9.693
478,1437153002568,10.931,-44.377,-9.693
479,1437153002581,10.931,-44.377,-9.335
480,1437153002602,10.931,-44.377,-9.335
481,1437153002622,10.931,-44.377,-9.335
482,1437153002640,10.931,-44.377,-9.335
483,1437153002661,10.931,-44.377,-8.987
484,1437153002684,10.931,-44.377,-8.987
485,1437153002703,10.931,-44.377,-8.987
486,1437153002723,10.931,-44.377,-8.67
487,1437153002744,10.931,-44.377,-8.67
488,1437153002765,10.931,-44.377,-8.67
489,1437153002787,10.931,-44.377,-8.67
490,1437153002801,10.931,-44.377,-8.67
491,1437153002823,10.931,-44.377,-8.346
492,1437153002842,10.931,-44.377,-8.346
493,1437153002864,11.26,-44.377,-8.346
494,1437153002884,11.26,-44.377,-8.346
495,1437153002905,11.26,-44.377,-8.346
496,1437153002924,11.26,-44.377,-8.346
497,1437153002943,11.26,-44.377,-8.346
498,1437153002961,11.26,-44.377,-8.346
499,1437153002982,11.26,-44.377,-8.346
500,1437153003003,11.26,-44.377,-8.346
501,1437153003024,11.26,-44.377,-8.346
