id,attr_time,attr_x,attr_y,attr_z
1,1436181038074,-15.185,-43.562,-1.213
2,1436181038075,-15.185,-43.562,-1.213
3,1436181038076,-15.185,-43.562,-1.213
4,1436181038077,-15.185,-43.562,-1.213
5,1436181038095,-15.185,-43.562,-1.213
6,1436181038115,-15.185,-43.562,-1.213
7,1436181038132,-15.185,-43.562,-1.213
8,1436181038152,-15.185,-43.562,-1.213
9,1436181038185,-15.185,-43.562,-1.213
10,1436181038194,-15.516,-43.562,-1.213
11,1436181038215,-15.516,-43.562,-1.213
12,1436181038234,-15.516,-43.562,-1.213
13,1436181038252,-15.516,-43.562,-1.213
14,1436181038274,-15.516,-43.562,-0.909
15,1436181038296,-15.516,-43.562,-0.909
16,1436181038312,-15.516,-43.562,-0.909
17,1436181038333,-15.516,-43.562,-0.909
18,1436181038355,-15.516,-43.562,-0.909
19,1436181038374,-15.516,-43.562,-0.909
20,1436181038394,-15.516,-43.562,-0.909
21,1436181038416,-15.516,-43.562,-0.909
22,1436181038434,-15.516,-43.562,-0.909
23,1436181038455,-15.516,-43.562,-0.909
24,1436181038473,-15.516,-43.562,-0.909
25,1436181038494,-15.516,-43.562,-0.909
26,1436181038515,-15.516,-43.562,-0.909
27,1436181038535,-15.516,-43.562,-0.909
28,1436181038553,-15.516,-43.562,-0.909
29,1436181038574,-15.516,-43.562,-1.21
30,1436181038596,-15.516,-43.562,-1.21
31,1436181038614,-15.516,-43.562,-1.21
32,1436181038636,-15.516,-43.562,-1.21
33,1436181038655,-15.516,-43.562,-1.21
34,1436181038676,-15.516,-43.562,-1.21
35,1436181038694,-15.516,-43.562,-1.21
36,1436181038716,-15.516,-43.562,-1.21
37,1436181038736,-15.516,-43.562,-1.21
38,1436181038808,-15.516,-43.562,-1.21
39,1436181038813,-15.516,-43.562,-1.519
40,1436181038814,-15.516,-43.562,-1.519
41,1436181038815,-15.516,-43.562,-1.519
42,1436181038835,-15.516,-43.562,-1.519
43,1436181038854,-15.516,-43.562,-1.519
44,1436181038873,-15.516,-43.562,-1.519
45,1436181038893,-15.516,-43.562,-1.519
46,1436181038914,-15.516,-43.562,-1.519
47,1436181038934,-15.516,-43.562,-1.519
48,1436181038954,-15.516,-43.562,-1.519
49,1436181038974,-15.516,-43.562,-1.519
50,1436181038994,-15.516,-43.562,-1.519
51,1436181039015,-15.516,-43.562,-1.519
52,1436181039037,-15.516,-43.562,-1.519
53,1436181039055,-15.516,-43.562,-1.519
54,1436181039077,-15.516,-43.562,-1.519
55,1436181039097,-15.516,-43.562,-1.519
56,1436181039115,-15.516,-43.562,-1.519
57,1436181039137,-15.516,-43.562,-1.519
58,1436181039167,-15.516,-43.562,-1.519
59,1436181039175,-15.516,-43.562,-1.519
60,1436181039195,-15.516,-43.562,-1.519
61,1436181039214,-15.516,-43.562,-1.519
62,1436181039236,-15.516,-43.562,-1.519
63,1436181039257,-15.516,-43.562,-1.519
64,1436181039275,-15.516,-43.562,-1.519
65,1436181039294,-15.516,-43.562,-1.519
66,1436181039318,-15.516,-43.562,-1.519
67,1436181039336,-15.516,-43.562,-1.519
68,1436181039357,-15.516,-43.562,-1.519
69,1436181039378,-15.516,-43.562,-1.519
70,1436181039396,-15.516,-43.562,-1.519
71,1436181039418,-15.516,-43.562,-1.519
72,1436181039435,-15.516,-43.562,-1.519
73,1436181039455,-15.516,-43.562,-1.519
74,1436181039480,-15.516,-43.562,-1.206
75,1436181039555,-15.516,-43.562,-1.206
76,1436181039556,-15.516,-43.562,-1.206
77,1436181039557,-15.516,-43.562,-1.206
78,1436181039558,-15.516,-43.562,-1.206
79,1436181039575,-15.516,-43.562,-1.206
80,1436181039597,-15.516,-43.562,-1.206
81,1436181039614,-15.516,-43.562,-1.206
82,1436181039634,-15.516,-43.562,-1.206
83,1436181039655,-15.516,-43.562,-1.206
84,1436181039675,-15.516,-43.562,-1.206
85,1436181039695,-15.516,-43.562,-1.206
86,1436181039715,-15.516,-43.562,-1.206
87,1436181039741,-15.516,-43.562,-1.206
88,1436181039757,-15.516,-43.562,-1.206
89,1436181039777,-15.516,-43.562,-1.206
90,1436181039797,-15.516,-43.562,-1.206
91,1436181039816,-15.516,-43.562,-1.206
92,1436181039838,-15.516,-43.562,-1.206
93,1436181039857,-15.516,-43.562,-1.206
94,1436181039877,-15.516,-43.562,-1.206
95,1436181039898,-15.516,-43.562,-1.206
96,1436181039917,-15.516,-43.562,-1.206
97,1436181039936,-15.516,-43.562,-1.206
98,1436181039955,-15.516,-43.562,-1.206
99,1436181039977,-15.516,-43.562,-1.206
100,1436181039998,-15.516,-43.562,-1.206
101,1436181040017,-15.516,-43.562,-1.206
102,1436181040036,-15.516,-43.562,-1.206
103,1436181040058,-15.516,-43.562,-1.206
104,1436181040077,-15.516,-43.562,-1.206
105,1436181040098,-15.516,-43.562,-1.206
106,1436181040118,-15.516,-43.562,-1.206
107,1436181040137,-15.516,-43.562,-1.206
108,1436181040158,-15.516,-43.562,-1.206
109,1436181040177,-15.516,-43.562,-1.206
110,1436181040197,-15.516,-43.562,-1.206
111,1436181040271,-15.516,-43.562,-1.206
112,1436181040272,-15.516,-43.562,-1.206
113,1436181040273,-15.516,-43.562,-1.206
114,1436181040277,-15.516,-43.562,-1.206
115,1436181040295,-15.516,-43.562,-1.206
116,1436181040316,-15.516,-43.562,-1.206
117,1436181040337,-15.516,-43.562,-1.206
118,1436181040355,-15.516,-43.562,-1.206
119,1436181040381,-15.516,-43.562,-1.206
120,1436181040396,-15.516,-43.562,-1.206
121,1436181040416,-15.516,-43.562,-1.206
122,1436181040435,-15.516,-43.562,-1.206
123,1436181040456,-15.516,-43.562,-1.206
124,1436181040481,-15.516,-43.562,-1.206
125,1436181040499,-15.516,-43.562,-1.206
126,1436181040518,-15.516,-43.562,-1.206
127,1436181040538,-15.516,-43.562,-1.206
128,1436181040559,-15.516,-43.562,-1.206
129,1436181040578,-15.516,-43.562,-1.206
130,1436181040598,-15.516,-43.562,-1.206
131,1436181040619,-15.516,-43.562,-1.206
132,1436181040638,-15.516,-43.562,-1.206
133,1436181040658,-15.214,-43.562,-1.206
134,1436181040677,-15.214,-43.562,-1.206
135,1436181040696,-15.214,-43.562,-1.206
136,1436181040718,-15.214,-43.562,-1.206
137,1436181040738,-15.214,-43.562,-1.206
138,1436181040757,-15.214,-43.562,-1.206
139,1436181040776,-15.214,-43.562,-1.206
140,1436181040799,-15.214,-43.562,-1.206
141,1436181040818,-15.214,-43.562,-1.206
142,1436181040838,-15.214,-43.562,-1.206
143,1436181040858,-15.214,-43.562,-1.206
144,1436181040878,-15.214,-43.562,-1.206
145,1436181040898,-15.214,-43.562,-1.206
146,1436181040917,-15.214,-43.562,-1.206
147,1436181040939,-15.214,-43.562,-1.206
148,1436181040959,-15.214,-43.562,-1.206
149,1436181041027,-15.214,-43.562,-1.206
150,1436181041028,-15.214,-43.562,-1.206
151,1436181041029,-15.214,-43.562,-1.206
152,1436181041035,-15.214,-43.562,-1.206
153,1436181041057,-15.214,-43.562,-1.206
154,1436181041078,-15.214,-43.562,-1.206
155,1436181041095,-15.214,-43.562,-1.206
156,1436181041125,-15.214,-43.562,-0.886
157,1436181041135,-15.214,-43.562,-0.886
158,1436181041158,-15.214,-43.562,-0.886
159,1436181041176,-15.214,-43.562,-0.886
160,1436181041196,-15.214,-43.562,-0.515
161,1436181041218,-15.214,-43.562,-0.515
162,1436181041239,-15.214,-43.562,-0.515
163,1436181041259,-15.214,-43.562,-0.201
164,1436181041279,-15.214,-43.562,-0.201
165,1436181041297,-15.544,-43.562,-0.201
166,1436181041321,-15.544,-43.562,0.141
167,1436181041339,-15.544,-43.562,0.141
168,1436181041359,-15.544,-43.562,0.141
169,1436181041379,-15.544,-43.562,0.526
170,1436181041399,-15.544,-43.562,0.526
171,1436181041421,-15.544,-43.562,0.526
172,1436181041436,-15.544,-43.562,0.906
173,1436181041459,-15.864,-43.562,0.906
174,1436181041481,-15.864,-43.562,0.906
175,1436181041499,-15.864,-43.562,1.26
176,1436181041533,-15.864,-43.562,1.26
177,1436181041535,-15.864,-43.562,1.26
178,1436181041556,-15.864,-43.562,1.657
179,1436181041576,-15.864,-43.562,1.657
180,1436181041596,-16.184,-43.562,1.657
181,1436181041619,-16.184,-43.238,2.001
182,1436181041640,-16.184,-43.238,2.001
183,1436181041660,-16.184,-43.238,2.001
184,1436181041679,-16.184,-43.238,2.398
185,1436181041699,-16.184,-43.238,2.398
186,1436181041753,-16.526,-43.238,2.398
187,1436181041755,-16.526,-43.238,2.809
188,1436181041788,-16.526,-43.238,2.809
189,1436181041789,-16.526,-43.238,2.809
190,1436181041830,-16.526,-43.238,3.211
191,1436181041831,-16.844,-42.926,3.211
192,1436181041839,-16.844,-42.926,3.211
193,1436181041856,-16.844,-42.926,3.576
194,1436181041876,-16.844,-42.926,3.576
195,1436181041896,-16.844,-42.926,3.576
196,1436181041916,-16.844,-42.926,3.576
197,1436181041937,-16.844,-42.926,3.878
198,1436181041962,-16.844,-42.926,3.878
199,1436181041976,-16.844,-42.926,3.878
200,1436181041996,-16.844,-42.926,3.878
201,1436181042016,-16.844,-42.926,3.878
202,1436181042036,-16.844,-42.926,3.878
203,1436181042056,-16.844,-42.926,3.878
204,1436181042076,-16.844,-42.926,3.878
205,1436181042096,-16.844,-42.926,4.187
206,1436181042116,-16.844,-42.926,4.187
207,1436181042136,-16.844,-42.926,4.187
208,1436181042157,-16.844,-42.926,4.187
209,1436181042178,-16.844,-42.926,4.187
210,1436181042196,-16.844,-42.926,4.187
211,1436181042217,-16.844,-42.926,4.187
212,1436181042236,-16.844,-42.926,4.187
213,1436181042258,-16.844,-42.926,4.187
214,1436181042278,-16.844,-42.926,4.187
215,1436181042297,-16.481,-42.926,4.187
216,1436181042317,-16.481,-43.235,4.187
217,1436181042337,-16.481,-43.235,3.868
218,1436181042356,-16.481,-43.235,3.868
219,1436181042380,-16.116,-43.235,3.868
220,1436181042400,-16.116,-43.235,3.868
221,1436181042420,-16.116,-43.235,3.565
222,1436181042437,-15.751,-43.235,3.565
223,1436181042470,-15.751,-43.235,3.565
224,1436181042475,-15.751,-43.235,3.256
225,1436181042495,-15.426,-43.235,3.256
226,1436181042515,-15.426,-43.235,3.256
227,1436181042537,-15.426,-43.235,2.841
228,1436181042557,-15.426,-43.235,2.841
229,1436181042575,-15.019,-43.235,2.421
230,1436181042599,-15.019,-43.557,2.421
231,1436181042616,-15.019,-43.557,2.043
232,1436181042640,-15.019,-43.557,1.683
233,1436181042660,-15.019,-43.557,0.852
234,1436181042676,-14.639,-43.557,0.398
235,1436181042700,-14.639,-43.557,0.027
236,1436181042720,-14.639,-43.557,-0.611
237,1436181042740,-14.639,-43.557,-1.033
238,1436181042760,-14.639,-43.557,-1.666
239,1436181042781,-14.279,-43.557,-1.666
240,1436181042801,-14.279,-43.557,-2.355
241,1436181042818,-14.279,-43.557,-2.355
242,1436181042843,-14.279,-43.557,-3.289
243,1436181042858,-14.279,-43.557,-3.994
244,1436181042882,-13.957,-43.557,-4.325
245,1436181042898,-13.957,-43.557,-4.325
246,1436181042923,-13.957,-43.557,-5.047
247,1436181042943,-13.957,-43.557,-5.377
248,1436181042963,-13.591,-43.557,-5.377
249,1436181042980,-13.591,-43.557,-5.979
250,1436181042999,-13.591,-43.557,-6.471
251,1436181043018,-13.258,-43.557,-6.471
252,1436181043038,-13.258,-43.557,-7.76
253,1436181043059,-13.258,-43.557,-7.76
254,1436181043079,-12.858,-43.557,-8.453
255,1436181043151,-12.858,-43.557,-8.798
256,1436181043152,-12.858,-43.557,-9.225
257,1436181043153,-12.44,-43.557,-9.765
258,1436181043160,-12.44,-43.557,-9.765
259,1436181043187,-12.139,-43.557,-10.595
260,1436181043199,-12.139,-43.557,-11.433
261,1436181043217,-12.139,-43.557,-11.433
262,1436181043239,-11.709,-43.557,-11.433
263,1436181043259,-11.709,-43.22,-11.927
264,1436181043279,-11.709,-43.22,-12.762
265,1436181043298,-11.296,-43.22,-12.762
266,1436181043317,-11.296,-43.22,-13.073
267,1436181043338,-11.296,-43.22,-13.594
268,1436181043360,-10.845,-42.863,-14.08
269,1436181043381,-10.845,-42.863,-14.08
270,1436181043401,-10.363,-42.863,-14.657
271,1436181043421,-8.375,-42.863,-15.422
272,1436181043441,-6.477,-42.863,-16.204
273,1436181043461,-6.477,-42.863,-16.204
274,1436181043481,-7.481,-42.552,-16.204
275,1436181043501,-8.041,-42.552,-15.159
276,1436181043522,-8.041,-42.552,-15.159
277,1436181043539,-8.041,-42.552,-15.159
278,1436181043561,-8.395,-42.552,-15.159
279,1436181043581,-8.395,-42.552,-15.159
280,1436181043601,-8.395,-42.552,-15.159
281,1436181043621,-8.395,-42.552,-15.159
282,1436181043641,-8.395,-42.552,-15.159
283,1436181043661,-8.395,-42.552,-15.159
284,1436181043681,-8.395,-42.552,-15.159
285,1436181043700,-8.395,-42.552,-15.159
286,1436181043721,-8.395,-42.552,-15.159
287,1436181043741,-8.091,-42.552,-15.159
288,1436181043762,-8.091,-42.552,-15.469
289,1436181043779,-8.091,-42.552,-15.469
290,1436181043805,-8.497,-42.552,-15.469
291,1436181043903,-8.497,-42.552,-15.469
292,1436181043904,-8.497,-42.552,-15.469
293,1436181043905,-8.802,-42.552,-15.469
294,1436181043906,-8.802,-42.552,-15.115
295,1436181043907,-9.156,-42.228,-15.115
296,1436181043921,-9.156,-42.228,-15.115
297,1436181043944,-9.156,-42.228,-15.115
298,1436181043959,-9.568,-42.228,-15.115
299,1436181043989,-9.568,-42.228,-15.115
300,1436181043999,-9.568,-42.228,-15.115
301,1436181044018,-9.568,-42.228,-15.115
302,1436181044044,-9.568,-42.228,-15.115
303,1436181044059,-9.568,-42.228,-15.115
304,1436181044080,-9.568,-42.228,-15.115
305,1436181044103,-9.568,-42.228,-15.426
306,1436181044121,-9.568,-42.228,-15.426
307,1436181044141,-9.568,-42.228,-15.426
308,1436181044161,-9.568,-42.228,-15.426
309,1436181044181,-9.568,-42.228,-15.747
310,1436181044202,-9.072,-42.228,-15.747
311,1436181044222,-9.072,-42.228,-15.747
312,1436181044241,-8.763,-42.228,-15.747
313,1436181044261,-8.763,-42.228,-15.747
314,1436181044281,-8.763,-42.228,-16.053
315,1436181044303,-8.763,-42.228,-16.053
316,1436181044322,-8.763,-42.228,-16.053
317,1436181044342,-8.37,-42.228,-16.053
318,1436181044361,-8.37,-42.228,-16.053
319,1436181044381,-8.37,-42.228,-16.053
320,1436181044402,-8.37,-42.228,-16.053
321,1436181044421,-7.998,-42.228,-16.384
322,1436181044442,-7.998,-42.228,-16.384
323,1436181044462,-7.998,-42.228,-16.384
324,1436181044482,-7.998,-42.228,-16.384
325,1436181044501,-7.998,-42.228,-16.384
326,1436181044520,-7.998,-42.228,-16.384
327,1436181044550,-7.998,-42.228,-16.384
328,1436181044651,-7.998,-42.228,-16.384
329,1436181044652,-7.998,-42.228,-16.384
330,1436181044653,-7.998,-42.228,-16.384
331,1436181044654,-7.998,-42.228,-16.384
332,1436181044655,-7.998,-41.893,-16.7
333,1436181044689,-8.319,-41.893,-16.7
334,1436181044690,-8.319,-41.893,-16.7
335,1436181044702,-8.319,-41.893,-16.7
336,1436181044719,-8.319,-41.893,-16.7
337,1436181044746,-8.319,-41.893,-16.7
338,1436181044784,-8.663,-41.893,-17.028
339,1436181044785,-8.663,-41.526,-17.028
340,1436181044818,-8.663,-41.526,-17.028
341,1436181044819,-9.001,-41.526,-17.028
342,1436181044840,-9.001,-41.526,-17.028
343,1436181044859,-9.001,-41.526,-17.028
344,1436181044880,-9.4,-41.526,-17.028
345,1436181044900,-9.4,-41.212,-17.028
346,1436181044922,-9.4,-41.212,-17.028
347,1436181044939,-9.828,-41.212,-17.028
348,1436181044959,-9.828,-41.212,-17.028
349,1436181044979,-9.828,-41.212,-17.028
350,1436181044999,-10.269,-41.212,-17.028
351,1436181045019,-10.269,-41.212,-17.028
352,1436181045039,-10.569,-41.212,-17.028
353,1436181045059,-10.569,-41.212,-17.028
354,1436181045081,-10.897,-41.212,-17.028
355,1436181045103,-10.897,-40.904,-17.028
356,1436181045126,-10.897,-40.904,-16.688
357,1436181045144,-11.305,-40.904,-16.688
358,1436181045162,-11.305,-40.904,-16.688
359,1436181045182,-11.305,-40.904,-16.688
360,1436181045202,-11.608,-40.904,-16.688
361,1436181045223,-11.608,-40.904,-16.383
362,1436181045245,-11.608,-40.904,-16.383
363,1436181045264,-11.608,-40.904,-16.383
364,1436181045283,-11.973,-40.904,-16.383
365,1436181045310,-11.973,-40.904,-16.383
366,1436181045373,-11.973,-40.904,-16.061
367,1436181045374,-11.973,-40.904,-16.061
368,1436181045375,-12.341,-40.904,-16.061
369,1436181045382,-12.341,-40.904,-16.061
370,1436181045403,-12.341,-40.904,-16.061
371,1436181045423,-12.341,-40.904,-16.061
372,1436181045440,-12.709,-40.904,-16.061
373,1436181045459,-12.709,-40.577,-16.061
374,1436181045497,-12.709,-40.577,-16.061
375,1436181045500,-12.709,-40.577,-16.061
376,1436181045521,-13.017,-40.577,-16.061
377,1436181045541,-13.017,-40.577,-16.061
378,1436181045561,-13.017,-40.577,-16.061
379,1436181045583,-13.017,-40.577,-16.061
380,1436181045603,-13.331,-40.577,-16.061
381,1436181045623,-13.331,-40.577,-16.061
382,1436181045643,-13.331,-40.577,-16.061
383,1436181045663,-13.331,-40.269,-16.061
384,1436181045683,-13.647,-40.269,-16.061
385,1436181045703,-13.647,-40.269,-16.061
386,1436181045723,-13.647,-40.269,-16.061
387,1436181045743,-13.647,-40.269,-16.061
388,1436181045765,-13.647,-40.269,-16.061
389,1436181045783,-13.647,-40.269,-16.061
390,1436181045802,-13.647,-40.269,-16.061
391,1436181045820,-13.647,-40.269,-16.061
392,1436181045842,-13.647,-40.269,-16.061
393,1436181045860,-13.647,-40.269,-16.363
394,1436181045884,-13.647,-40.269,-16.363
395,1436181045908,-13.647,-40.269,-16.363
396,1436181045923,-13.647,-40.269,-16.363
397,1436181045940,-13.647,-40.269,-16.363
398,1436181045963,-13.958,-40.269,-16.363
399,1436181045983,-13.958,-40.269,-16.363
400,1436181046001,-13.958,-40.269,-16.363
401,1436181046020,-13.958,-40.269,-16.363
402,1436181046040,-13.958,-40.269,-16.674
403,1436181046060,-13.958,-39.95,-16.674
404,1436181046085,-13.958,-39.95,-16.674
405,1436181046100,-13.958,-39.95,-16.674
406,1436181046120,-13.958,-39.95,-16.674
407,1436181046141,-13.958,-39.95,-16.674
408,1436181046174,-13.958,-39.95,-16.674
409,1436181046260,-13.958,-39.95,-16.674
410,1436181046261,-13.958,-39.95,-16.674
411,1436181046262,-13.642,-39.95,-16.674
412,1436181046263,-13.642,-39.95,-16.674
413,1436181046264,-13.642,-39.95,-17.007
414,1436181046281,-13.642,-39.95,-17.007
415,1436181046300,-13.642,-39.95,-17.007
416,1436181046321,-13.642,-39.95,-17.007
417,1436181046341,-13.642,-39.95,-17.007
418,1436181046362,-13.298,-39.95,-17.007
419,1436181046382,-13.298,-39.95,-17.007
420,1436181046401,-13.298,-39.95,-17.007
421,1436181046420,-13.298,-39.95,-17.007
422,1436181046440,-13.298,-39.95,-17.007
423,1436181046462,-13.298,-39.95,-17.007
424,1436181046481,-13.298,-39.95,-17.007
425,1436181046502,-13.298,-39.95,-17.007
426,1436181046521,-13.298,-39.95,-17.007
427,1436181046539,-13.298,-39.95,-17.007
428,1436181046560,-13.298,-39.95,-17.007
429,1436181046581,-13.298,-39.95,-17.007
430,1436181046602,-13.298,-39.95,-17.007
431,1436181046622,-13.298,-39.95,-17.007
432,1436181046642,-13.298,-39.95,-17.007
433,1436181046661,-13.298,-39.95,-17.007
434,1436181046682,-13.298,-39.95,-17.007
435,1436181046701,-13.298,-39.95,-17.007
436,1436181046769,-13.298,-39.95,-17.007
437,1436181046770,-13.298,-39.95,-17.007
438,1436181046771,-13.298,-39.95,-17.007
439,1436181046779,-13.298,-39.95,-17.007
440,1436181046815,-13.298,-39.95,-17.007
441,1436181046821,-13.298,-39.95,-16.693
442,1436181046845,-13.298,-39.95,-16.693
443,1436181046864,-13.298,-39.95,-16.693
444,1436181046882,-13.298,-39.95,-16.693
445,1436181046904,-13.298,-39.95,-16.693
446,1436181046923,-13.298,-39.95,-16.693
447,1436181046943,-13.298,-39.95,-16.693
448,1436181046964,-13.298,-39.95,-16.693
449,1436181046984,-13.298,-39.95,-16.693
450,1436181047003,-13.298,-39.95,-16.693
451,1436181047024,-12.969,-39.95,-17.056
452,1436181047044,-12.969,-39.95,-17.056
453,1436181047064,-12.969,-39.95,-17.056
454,1436181047084,-12.969,-39.95,-17.056
455,1436181047101,-12.969,-39.95,-17.356
456,1436181047124,-12.969,-39.95,-17.356
457,1436181047143,-12.969,-39.95,-17.356
458,1436181047164,-12.605,-39.95,-17.356
459,1436181047183,-12.605,-39.95,-17.657
460,1436181047203,-12.605,-39.95,-17.657
461,1436181047223,-12.605,-39.95,-17.657
462,1436181047245,-12.605,-39.95,-17.657
463,1436181047265,-12.605,-39.95,-18.003
464,1436181047284,-12.605,-39.95,-18.003
465,1436181047305,-12.605,-39.95,-18.003
466,1436181047324,-12.605,-39.95,-18.003
467,1436181047344,-12.605,-39.95,-18.003
468,1436181047475,-12.292,-39.95,-18.003
469,1436181047476,-12.292,-39.95,-18.003
470,1436181047477,-12.292,-39.95,-18.003
471,1436181047478,-12.292,-39.95,-18.003
472,1436181047479,-12.292,-39.95,-18.003
473,1436181047480,-12.292,-39.95,-18.003
474,1436181047491,-12.292,-39.95,-18.313
475,1436181047503,-12.292,-39.95,-18.313
476,1436181047523,-12.292,-39.95,-18.313
477,1436181047541,-12.292,-39.95,-18.313
478,1436181047562,-12.292,-39.95,-18.313
479,1436181047582,-12.292,-39.95,-18.313
480,1436181047604,-12.292,-39.95,-18.313
481,1436181047624,-12.292,-39.95,-18.313
482,1436181047643,-12.292,-39.95,-18.313
483,1436181047663,-12.292,-39.95,-18.313
484,1436181047683,-12.292,-39.95,-17.979
485,1436181047705,-12.292,-39.95,-17.979
486,1436181047725,-12.292,-39.95,-17.979
487,1436181047745,-12.644,-39.95,-17.979
488,1436181047765,-12.644,-39.95,-17.979
489,1436181047785,-12.644,-39.95,-17.979
490,1436181047802,-12.644,-39.95,-17.663
