id,attr_time,attr_light
1,1436374238008,723.0
2,1436374238028,722.0
3,1436374238049,722.0
4,1436374238068,722.0
5,1436374238088,722.0
6,1436374238108,723.0
7,1436374238128,723.0
8,1436374238148,723.0
9,1436374238168,723.0
10,1436374238192,723.0
11,1436374238211,723.0
12,1436374238233,723.0
13,1436374238253,723.0
14,1436374238275,723.0
15,1436374238290,723.0
16,1436374238313,723.0
17,1436374238334,723.0
18,1436374238352,722.0
19,1436374238372,722.0
20,1436374238393,722.0
21,1436374238413,722.0
22,1436374238433,722.0
23,1436374238453,722.0
24,1436374238472,722.0
25,1436374238493,722.0
26,1436374238513,722.0
27,1436374238533,722.0
28,1436374238556,722.0
29,1436374238630,721.0
30,1436374238631,721.0
31,1436374238632,722.0
32,1436374238633,722.0
33,1436374238653,722.0
34,1436374238674,722.0
35,1436374238690,721.0
36,1436374238721,721.0
37,1436374238730,722.0
38,1436374238751,720.0
39,1436374238771,720.0
40,1436374238791,719.0
41,1436374238813,719.0
42,1436374238833,718.0
43,1436374238853,718.0
44,1436374238901,719.0
45,1436374238902,719.0
46,1436374238912,719.0
47,1436374238933,719.0
48,1436374238953,720.0
49,1436374238973,720.0
50,1436374238993,721.0
51,1436374239010,721.0
52,1436374239034,722.0
53,1436374239053,722.0
54,1436374239074,723.0
55,1436374239093,723.0
56,1436374239113,723.0
57,1436374239133,723.0
58,1436374239153,723.0
59,1436374239173,722.0
60,1436374239194,722.0
61,1436374239214,722.0
62,1436374239232,722.0
63,1436374239251,721.0
64,1436374239279,721.0
65,1436374239351,720.0
66,1436374239352,720.0
67,1436374239353,720.0
68,1436374239354,720.0
69,1436374239373,718.0
70,1436374239398,718.0
71,1436374239410,718.0
72,1436374239442,718.0
73,1436374239450,717.0
74,1436374239471,717.0
75,1436374239492,717.0
76,1436374239512,717.0
77,1436374239534,717.0
78,1436374239551,716.0
79,1436374239581,716.0
80,1436374239612,715.0
81,1436374239613,715.0
82,1436374239631,714.0
83,1436374239653,714.0
84,1436374239673,715.0
85,1436374239693,715.0
86,1436374239713,715.0
87,1436374239732,715.0
88,1436374239753,715.0
89,1436374239773,715.0
90,1436374239793,714.0
91,1436374239813,714.0
92,1436374239834,714.0
93,1436374239852,714.0
94,1436374239872,714.0
95,1436374239893,715.0
96,1436374239914,715.0
97,1436374239934,716.0
98,1436374239954,716.0
99,1436374239973,715.0
100,1436374239999,715.0
101,1436374240057,715.0
102,1436374240058,715.0
103,1436374240059,714.0
104,1436374240083,714.0
105,1436374240091,713.0
106,1436374240112,713.0
107,1436374240133,713.0
108,1436374240151,713.0
109,1436374240171,713.0
110,1436374240197,713.0
111,1436374240213,713.0
112,1436374240234,713.0
113,1436374240253,713.0
114,1436374240274,712.0
115,1436374240295,712.0
116,1436374240315,711.0
117,1436374240335,711.0
118,1436374240355,711.0
119,1436374240375,711.0
120,1436374240395,710.0
121,1436374240415,710.0
122,1436374240435,708.0
123,1436374240462,708.0
124,1436374240488,707.0
125,1436374240491,707.0
126,1436374240511,708.0
127,1436374240531,708.0
128,1436374240552,710.0
129,1436374240571,710.0
130,1436374240596,711.0
131,1436374240617,714.0
132,1436374240633,714.0
133,1436374240655,715.0
134,1436374240672,715.0
135,1436374240692,714.0
136,1436374240712,714.0
137,1436374240732,714.0
138,1436374240755,714.0
139,1436374240817,715.0
140,1436374240829,715.0
141,1436374240830,717.0
142,1436374240832,717.0
143,1436374240853,719.0
144,1436374240874,719.0
145,1436374240891,721.0
146,1436374240912,721.0
147,1436374240947,721.0
148,1436374240952,722.0
149,1436374240972,722.0
150,1436374240992,721.0
151,1436374241015,721.0
152,1436374241033,720.0
153,1436374241055,720.0
154,1436374241075,720.0
155,1436374241095,720.0
156,1436374241115,720.0
157,1436374241135,720.0
158,1436374241155,720.0
159,1436374241175,720.0
160,1436374241195,721.0
161,1436374241214,721.0
162,1436374241233,721.0
163,1436374241255,721.0
164,1436374241272,720.0
165,1436374241293,720.0
166,1436374241313,719.0
167,1436374241336,719.0
168,1436374241356,719.0
169,1436374241376,719.0
170,1436374241395,719.0
171,1436374241412,718.0
172,1436374241433,718.0
173,1436374241453,717.0
174,1436374241473,717.0
175,1436374241493,714.0
176,1436374241566,714.0
177,1436374241567,713.0
178,1436374241568,713.0
179,1436374241598,713.0
180,1436374241599,713.0
181,1436374241633,713.0
182,1436374241634,713.0
183,1436374241687,713.0
184,1436374241688,713.0
185,1436374241708,713.0
186,1436374241712,713.0
187,1436374241732,713.0
188,1436374241753,712.0
189,1436374241772,712.0
190,1436374241792,711.0
191,1436374241812,711.0
192,1436374241832,711.0
193,1436374241852,711.0
194,1436374241873,711.0
195,1436374241893,711.0
196,1436374241913,710.0
197,1436374241933,710.0
198,1436374241953,709.0
199,1436374241972,709.0
200,1436374241993,710.0
201,1436374242014,710.0
202,1436374242031,710.0
203,1436374242052,710.0
204,1436374242072,711.0
205,1436374242092,712.0
206,1436374242112,712.0
207,1436374242134,712.0
208,1436374242154,712.0
209,1436374242173,713.0
210,1436374242193,713.0
211,1436374242214,712.0
212,1436374242246,712.0
213,1436374242253,712.0
214,1436374242272,712.0
215,1436374242292,712.0
216,1436374242313,712.0
217,1436374242333,711.0
218,1436374242353,711.0
219,1436374242377,710.0
220,1436374242395,710.0
221,1436374242417,710.0
222,1436374242437,709.0
223,1436374242453,709.0
224,1436374242477,710.0
225,1436374242492,710.0
226,1436374242516,711.0
227,1436374242537,711.0
228,1436374242554,711.0
229,1436374242574,711.0
230,1436374242593,711.0
231,1436374242613,711.0
232,1436374242633,711.0
233,1436374242653,711.0
234,1436374242675,710.0
235,1436374242698,710.0
236,1436374242720,711.0
237,1436374242740,711.0
238,1436374242754,710.0
239,1436374242773,710.0
240,1436374242793,710.0
241,1436374242813,709.0
242,1436374242834,709.0
243,1436374242854,709.0
244,1436374242891,709.0
245,1436374242895,708.0
246,1436374242913,708.0
247,1436374242935,709.0
248,1436374242953,709.0
249,1436374242973,710.0
250,1436374242994,710.0
251,1436374243015,714.0
252,1436374243035,714.0
253,1436374243056,715.0
254,1436374243077,715.0
255,1436374243094,713.0
256,1436374243116,713.0
257,1436374243137,712.0
258,1436374243156,712.0
259,1436374243177,713.0
260,1436374243197,712.0
261,1436374243216,712.0
262,1436374243237,711.0
263,1436374243257,711.0
264,1436374243276,712.0
265,1436374243297,712.0
266,1436374243317,714.0
267,1436374243337,714.0
268,1436374243358,714.0
269,1436374243376,714.0
270,1436374243397,715.0
271,1436374243416,715.0
272,1436374243436,715.0
273,1436374243458,715.0
274,1436374243478,715.0
275,1436374243498,715.0
276,1436374243514,715.0
277,1436374243536,715.0
278,1436374243617,715.0
279,1436374243618,715.0
280,1436374243619,715.0
281,1436374243620,716.0
282,1436374243637,716.0
283,1436374243681,717.0
284,1436374243682,717.0
285,1436374243694,717.0
286,1436374243729,717.0
287,1436374243745,717.0
288,1436374243758,717.0
289,1436374243780,718.0
290,1436374243794,718.0
291,1436374243818,717.0
292,1436374243837,717.0
293,1436374243858,718.0
294,1436374243878,718.0
295,1436374243897,718.0
296,1436374243917,718.0
297,1436374243935,718.0
298,1436374243958,718.0
299,1436374243979,718.0
300,1436374243999,719.0
301,1436374244015,719.0
302,1436374244035,719.0
303,1436374244058,719.0
304,1436374244078,719.0
305,1436374244098,719.0
306,1436374244118,721.0
307,1436374244137,721.0
308,1436374244158,721.0
309,1436374244179,721.0
310,1436374244198,721.0
311,1436374244219,721.0
312,1436374244237,721.0
313,1436374244257,721.0
314,1436374244275,720.0
315,1436374244343,720.0
316,1436374244344,720.0
317,1436374244345,720.0
318,1436374244355,720.0
319,1436374244379,720.0
320,1436374244398,720.0
321,1436374244417,721.0
322,1436374244437,721.0
323,1436374244456,720.0
324,1436374244479,720.0
325,1436374244495,719.0
326,1436374244518,719.0
327,1436374244535,719.0
328,1436374244563,719.0
329,1436374244575,719.0
330,1436374244596,719.0
331,1436374244616,719.0
332,1436374244641,719.0
333,1436374244660,719.0
334,1436374244676,719.0
335,1436374244697,719.0
336,1436374244717,719.0
337,1436374244737,719.0
338,1436374244759,719.0
339,1436374244776,719.0
340,1436374244795,719.0
341,1436374244816,719.0
342,1436374244838,718.0
343,1436374244859,718.0
344,1436374244876,719.0
345,1436374244895,719.0
346,1436374244916,722.0
347,1436374244963,722.0
348,1436374244964,749.0
349,1436374244976,749.0
350,1436374244995,781.0
351,1436374245015,800.0
352,1436374246017,800.0
353,1436374246018,818.0
354,1436374246019,818.0
355,1436374246020,836.0
356,1436374246021,836.0
357,1436374246022,849.0
358,1436374246023,849.0
359,1436374246024,858.0
360,1436374246025,858.0
361,1436374246026,865.0
362,1436374246027,865.0
363,1436374246028,864.0
364,1436374246029,864.0
365,1436374246030,846.0
366,1436374246031,846.0
367,1436374246032,829.0
368,1436374246033,829.0
369,1436374246034,814.0
370,1436374246035,802.0
371,1436374246036,802.0
372,1436374246037,783.0
373,1436374246038,783.0
374,1436374246039,757.0
375,1436374246040,757.0
376,1436374246041,722.0
377,1436374246042,722.0
378,1436374246043,687.0
379,1436374246044,687.0
380,1436374246045,669.0
381,1436374246046,669.0
382,1436374246047,669.0
383,1436374246048,669.0
384,1436374246049,683.0
385,1436374246050,683.0
386,1436374246051,695.0
387,1436374246052,695.0
388,1436374246053,689.0
389,1436374246054,661.0
390,1436374246055,661.0
391,1436374246056,609.0
392,1436374246057,609.0
393,1436374246058,553.0
394,1436374246059,553.0
395,1436374246060,510.0
396,1436374246061,510.0
397,1436374246062,487.0
398,1436374246063,487.0
399,1436374246064,475.0
400,1436374246065,475.0
401,1436374246066,471.0
402,1436374246067,471.0
403,1436374246068,477.0
404,1436374246075,477.0
405,1436374246095,502.0
406,1436374246115,534.0
407,1436374246135,534.0
408,1436374246155,543.0
409,1436374246175,543.0
410,1436374246195,517.0
411,1436374246215,517.0
412,1436374246237,498.0
413,1436374246260,498.0
414,1436374246280,466.0
415,1436374246300,466.0
416,1436374246320,447.0
417,1436374246340,447.0
418,1436374246361,456.0
419,1436374246381,456.0
420,1436374246401,465.0
421,1436374246420,465.0
422,1436374246438,455.0
423,1436374246459,455.0
424,1436374246477,434.0
425,1436374246502,418.0
426,1436374246523,418.0
427,1436374246543,421.0
428,1436374246559,421.0
429,1436374246578,427.0
430,1436374246619,427.0
431,1436374246620,421.0
432,1436374246637,421.0
433,1436374246659,418.0
434,1436374246677,418.0
435,1436374246698,426.0
436,1436374246718,426.0
437,1436374246739,444.0
438,1436374246759,444.0
439,1436374246781,460.0
440,1436374246801,460.0
441,1436374246821,464.0
442,1436374246840,464.0
443,1436374246862,455.0
444,1436374246879,440.0
445,1436374246901,440.0
446,1436374246919,427.0
447,1436374246941,427.0
448,1436374246961,416.0
449,1436374246981,416.0
450,1436374247001,408.0
451,1436374247021,408.0
452,1436374247041,401.0
453,1436374247059,401.0
454,1436374247081,392.0
455,1436374247101,392.0
456,1436374247122,379.0
457,1436374247141,379.0
458,1436374247161,364.0
459,1436374247181,364.0
460,1436374247200,350.0
461,1436374247220,339.0
462,1436374247329,339.0
463,1436374247330,327.0
464,1436374247331,327.0
465,1436374247332,316.0
466,1436374247333,316.0
467,1436374247356,311.0
468,1436374247360,311.0
469,1436374247395,315.0
470,1436374247400,315.0
471,1436374247418,324.0
472,1436374247442,324.0
473,1436374247459,336.0
474,1436374247480,336.0
475,1436374247501,351.0
476,1436374247518,351.0
477,1436374247543,366.0
478,1436374247562,366.0
479,1436374247582,377.0
480,1436374247602,386.0
481,1436374247622,386.0
482,1436374247642,392.0
483,1436374247662,392.0
484,1436374247679,396.0
485,1436374247700,396.0
486,1436374247729,396.0
487,1436374247739,396.0
488,1436374247759,394.0
489,1436374247780,394.0
490,1436374247803,391.0
491,1436374247822,391.0
492,1436374247842,390.0
493,1436374247862,390.0
494,1436374247882,390.0
495,1436374247902,390.0
496,1436374247922,391.0
497,1436374247942,391.0
498,1436374247961,389.0
499,1436374247992,384.0
500,1436374248082,384.0
501,1436374248083,377.0
502,1436374248084,377.0
503,1436374248085,369.0
504,1436374248086,369.0
505,1436374248099,360.0
506,1436374248120,360.0
507,1436374248139,350.0
508,1436374248161,350.0
509,1436374248179,340.0
510,1436374248204,340.0
511,1436374248220,332.0
512,1436374248241,332.0
513,1436374248262,328.0
514,1436374248282,328.0
515,1436374248302,326.0
516,1436374248322,325.0
517,1436374248342,325.0
518,1436374248362,326.0
519,1436374248382,326.0
520,1436374248402,328.0
521,1436374248422,328.0
522,1436374248441,332.0
523,1436374248463,332.0
524,1436374248480,336.0
525,1436374248499,336.0
526,1436374248519,340.0
527,1436374248539,340.0
528,1436374248559,343.0
529,1436374248580,343.0
530,1436374248599,346.0
531,1436374248619,346.0
532,1436374248639,351.0
533,1436374248659,351.0
534,1436374248680,357.0
535,1436374248699,361.0
536,1436374248719,361.0
537,1436374248746,363.0
538,1436374248762,363.0
539,1436374248788,362.0
540,1436374248799,362.0
541,1436374248819,358.0
542,1436374248840,358.0
543,1436374248872,353.0
544,1436374248911,353.0
545,1436374248915,349.0
546,1436374248924,349.0
547,1436374248942,345.0
548,1436374248960,345.0
549,1436374248984,342.0
550,1436374249003,342.0
551,1436374249023,339.0
552,1436374249044,339.0
553,1436374249064,336.0
554,1436374249084,335.0
555,1436374249104,335.0
556,1436374249124,334.0
557,1436374249139,334.0
558,1436374249164,333.0
559,1436374249184,333.0
560,1436374249200,334.0
561,1436374249220,334.0
562,1436374249241,335.0
563,1436374249264,335.0
564,1436374249284,337.0
565,1436374249304,337.0
566,1436374249324,341.0
567,1436374249340,341.0
568,1436374249359,344.0
569,1436374249381,344.0
570,1436374249402,347.0
571,1436374249434,347.0
572,1436374249453,347.0
573,1436374249460,348.0
574,1436374249480,348.0
575,1436374249500,351.0
576,1436374249520,351.0
577,1436374249540,354.0
578,1436374249560,354.0
579,1436374249580,355.0
580,1436374249601,355.0
581,1436374249621,355.0
582,1436374249643,355.0
583,1436374249662,356.0
584,1436374249683,356.0
585,1436374249703,358.0
586,1436374249723,358.0
587,1436374249743,360.0
588,1436374249764,360.0
589,1436374249784,360.0
590,1436374249804,358.0
591,1436374249823,358.0
592,1436374249840,357.0
593,1436374249864,357.0
594,1436374249884,354.0
595,1436374249904,354.0
596,1436374249924,352.0
597,1436374249942,352.0
598,1436374249963,351.0
599,1436374249983,351.0
600,1436374250004,351.0
601,1436374250024,351.0
602,1436374250044,350.0
603,1436374250061,350.0
604,1436374250082,349.0
605,1436374250101,349.0
606,1436374250121,348.0
607,1436374250176,348.0
608,1436374250177,346.0
609,1436374250193,346.0
610,1436374250201,346.0
611,1436374250221,346.0
612,1436374250242,346.0
613,1436374250261,347.0
614,1436374250283,347.0
615,1436374250301,349.0
616,1436374250322,349.0
617,1436374250343,351.0
618,1436374250362,351.0
619,1436374250383,352.0
620,1436374250404,352.0
621,1436374250424,353.0
622,1436374250444,353.0
623,1436374250462,354.0
624,1436374250483,354.0
625,1436374250504,354.0
626,1436374250524,354.0
627,1436374250543,353.0
628,1436374250564,352.0
629,1436374250581,352.0
630,1436374250603,352.0
631,1436374250625,352.0
632,1436374250642,351.0
633,1436374250664,351.0
634,1436374250684,351.0
635,1436374250705,351.0
636,1436374250725,349.0
637,1436374250745,349.0
638,1436374250764,349.0
639,1436374250783,349.0
640,1436374250802,349.0
641,1436374250823,349.0
642,1436374250843,348.0
643,1436374250865,348.0
644,1436374250934,347.0
645,1436374250935,346.0
646,1436374250936,346.0
647,1436374250942,345.0
648,1436374250962,345.0
649,1436374250982,345.0
650,1436374251001,345.0
651,1436374251022,345.0
652,1436374251041,345.0
653,1436374251063,347.0
654,1436374251088,347.0
655,1436374251102,350.0
656,1436374251123,350.0
657,1436374251143,353.0
658,1436374251165,353.0
659,1436374251185,358.0
660,1436374251205,358.0
661,1436374251225,367.0
662,1436374251245,367.0
663,1436374251265,383.0
664,1436374251285,406.0
665,1436374251305,406.0
666,1436374251323,432.0
667,1436374251345,432.0
668,1436374251365,458.0
669,1436374251385,458.0
670,1436374251405,483.0
671,1436374251423,483.0
672,1436374251445,509.0
673,1436374251465,509.0
674,1436374251485,534.0
675,1436374251505,534.0
676,1436374251524,551.0
677,1436374251543,551.0
678,1436374251564,552.0
679,1436374251583,552.0
680,1436374251602,537.0
681,1436374251651,537.0
682,1436374251652,513.0
683,1436374251663,486.0
684,1436374251682,486.0
685,1436374251706,465.0
686,1436374251722,465.0
687,1436374251743,453.0
688,1436374251762,453.0
689,1436374251782,438.0
690,1436374251803,438.0
691,1436374251869,429.0
692,1436374251870,429.0
693,1436374251871,436.0
694,1436374251883,436.0
695,1436374251902,429.0
696,1436374251922,429.0
697,1436374251942,399.0
698,1436374251962,399.0
699,1436374251982,384.0
700,1436374252002,378.0
701,1436374252022,378.0
702,1436374252042,373.0
703,1436374252062,373.0
704,1436374252082,360.0
705,1436374252103,360.0
706,1436374252126,340.0
707,1436374252142,340.0
708,1436374252165,338.0
709,1436374252182,338.0
710,1436374252203,378.0
711,1436374252222,378.0
712,1436374252244,432.0
713,1436374252266,432.0
714,1436374252283,470.0
715,1436374252303,470.0
716,1436374252324,489.0
717,1436374252344,489.0
718,1436374252369,500.0
719,1436374252382,496.0
720,1436374252404,496.0
721,1436374252422,480.0
722,1436374252443,480.0
723,1436374252463,442.0
724,1436374252483,442.0
725,1436374252502,375.0
726,1436374252524,375.0
727,1436374252544,329.0
728,1436374252566,329.0
729,1436374252587,313.0
730,1436374252604,313.0
731,1436374252626,296.0
732,1436374252642,296.0
733,1436374252662,261.0
734,1436374252686,261.0
735,1436374252704,220.0
736,1436374252728,220.0
737,1436374252747,191.0
738,1436374252764,173.0
739,1436374252788,173.0
740,1436374252809,158.0
741,1436374252824,158.0
742,1436374252843,146.0
743,1436374252863,146.0
744,1436374252882,151.0
745,1436374252911,151.0
746,1436374252923,176.0
747,1436374252944,176.0
748,1436374252965,210.0
749,1436374252983,210.0
750,1436374253058,243.0
751,1436374253059,243.0
752,1436374253060,266.0
753,1436374253067,266.0
754,1436374253084,281.0
755,1436374253104,296.0
756,1436374253123,296.0
757,1436374253144,303.0
758,1436374253164,303.0
759,1436374253184,287.0
760,1436374253209,287.0
761,1436374253223,267.0
762,1436374253244,267.0
763,1436374253264,264.0
764,1436374253288,264.0
765,1436374253307,263.0
766,1436374253328,263.0
767,1436374253344,256.0
768,1436374253364,256.0
769,1436374253384,258.0
770,1436374253408,258.0
771,1436374253426,262.0
772,1436374253448,262.0
773,1436374253468,257.0
774,1436374253485,252.0
775,1436374253505,252.0
776,1436374253525,257.0
777,1436374253547,257.0
778,1436374253570,272.0
779,1436374253589,272.0
780,1436374253608,293.0
781,1436374253624,293.0
782,1436374253646,320.0
783,1436374253672,320.0
784,1436374253700,339.0
785,1436374253747,339.0
786,1436374253748,341.0
787,1436374253749,341.0
788,1436374253770,333.0
789,1436374253785,333.0
790,1436374253805,320.0
791,1436374253825,320.0
792,1436374253848,294.0
793,1436374253865,264.0
794,1436374253886,264.0
795,1436374253906,249.0
796,1436374253926,249.0
797,1436374253946,240.0
798,1436374253965,240.0
799,1436374253989,231.0
800,1436374254007,231.0
801,1436374254028,231.0
802,1436374254049,231.0
803,1436374254067,234.0
804,1436374254088,234.0
805,1436374254109,234.0
806,1436374254128,234.0
807,1436374254149,231.0
808,1436374254166,231.0
809,1436374254189,226.0
810,1436374254205,231.0
811,1436374254225,231.0
812,1436374254245,249.0
813,1436374254270,249.0
814,1436374254291,280.0
815,1436374254311,280.0
816,1436374254328,314.0
817,1436374254345,314.0
818,1436374254365,332.0
819,1436374254385,332.0
820,1436374254409,330.0
821,1436374254431,330.0
822,1436374254496,319.0
823,1436374254497,319.0
824,1436374254498,308.0
825,1436374254506,308.0
826,1436374254526,288.0
827,1436374254548,288.0
828,1436374254565,255.0
829,1436374254585,227.0
830,1436374254605,227.0
831,1436374254626,215.0
832,1436374254653,215.0
833,1436374254668,209.0
834,1436374254686,209.0
835,1436374254709,214.0
836,1436374254728,214.0
