id,attr_time,attr_light
1,1436374238007,163.0
2,1436374238035,163.0
3,1436374238047,163.0
4,1436374238070,163.0
5,1436374238095,163.0
6,1436374238108,163.0
7,1436374238127,163.0
8,1436374238147,163.0
9,1436374238168,163.0
10,1436374238190,163.0
11,1436374238208,163.0
12,1436374238230,163.0
13,1436374238247,163.0
14,1436374238268,163.0
15,1436374238288,163.0
16,1436374238308,163.0
17,1436374238333,163.0
18,1436374238347,163.0
19,1436374238368,163.0
20,1436374238421,163.0
21,1436374238422,163.0
22,1436374238430,163.0
23,1436374238448,163.0
24,1436374238467,163.0
25,1436374238488,163.0
26,1436374238513,163.0
27,1436374238534,163.0
28,1436374238547,163.0
29,1436374238568,163.0
30,1436374238587,163.0
31,1436374238677,163.0
32,1436374238694,163.0
33,1436374238695,163.0
34,1436374238696,163.0
35,1436374238697,163.0
36,1436374238711,163.0
37,1436374238728,163.0
38,1436374238749,163.0
39,1436374238795,163.0
40,1436374238796,163.0
41,1436374238808,163.0
42,1436374238829,163.0
43,1436374238848,163.0
44,1436374238870,163.0
45,1436374238891,163.0
46,1436374238910,163.0
47,1436374238931,163.0
48,1436374238949,163.0
49,1436374238970,163.0
50,1436374238992,163.0
51,1436374239010,163.0
52,1436374239031,163.0
53,1436374239049,163.0
54,1436374239070,163.0
55,1436374239094,163.0
56,1436374239110,163.0
57,1436374239131,163.0
58,1436374239149,163.0
59,1436374239169,163.0
60,1436374239190,163.0
61,1436374239210,163.0
62,1436374239230,163.0
63,1436374239249,163.0
64,1436374239271,163.0
65,1436374239292,163.0
66,1436374239311,163.0
67,1436374239331,163.0
68,1436374239358,163.0
69,1436374239431,163.0
70,1436374239432,163.0
71,1436374239433,163.0
72,1436374239434,163.0
73,1436374239449,163.0
74,1436374239468,163.0
75,1436374239488,163.0
76,1436374239515,163.0
77,1436374239528,163.0
78,1436374239552,163.0
79,1436374239571,163.0
80,1436374239590,163.0
81,1436374239616,163.0
82,1436374239632,163.0
83,1436374239653,163.0
84,1436374239671,163.0
85,1436374239692,163.0
86,1436374239712,163.0
87,1436374239732,163.0
88,1436374239755,163.0
89,1436374239769,163.0
90,1436374239914,162.0
91,1436374239915,162.0
92,1436374239916,162.0
93,1436374239918,162.0
94,1436374239919,162.0
95,1436374239920,162.0
96,1436374239921,162.0
97,1436374239959,163.0
98,1436374239960,163.0
99,1436374239969,163.0
100,1436374239989,163.0
101,1436374240009,163.0
102,1436374240029,163.0
103,1436374240051,163.0
104,1436374240070,163.0
105,1436374240142,163.0
106,1436374240143,164.0
107,1436374240144,164.0
108,1436374240155,164.0
109,1436374240170,164.0
110,1436374240189,164.0
111,1436374240209,164.0
112,1436374240246,164.0
113,1436374240249,164.0
114,1436374240269,163.0
115,1436374240289,163.0
116,1436374240310,163.0
117,1436374240328,163.0
118,1436374240352,163.0
119,1436374240372,163.0
120,1436374240393,163.0
121,1436374240412,163.0
122,1436374240432,163.0
123,1436374240452,163.0
124,1436374240472,163.0
125,1436374240488,163.0
126,1436374240508,163.0
127,1436374240532,163.0
128,1436374240552,163.0
129,1436374240572,163.0
130,1436374240592,163.0
131,1436374240612,163.0
132,1436374240632,163.0
133,1436374240652,163.0
134,1436374240672,163.0
135,1436374240693,163.0
136,1436374240712,163.0
137,1436374240729,162.0
138,1436374240750,162.0
139,1436374240818,163.0
140,1436374240819,163.0
141,1436374240820,163.0
142,1436374240830,163.0
143,1436374240850,163.0
144,1436374240870,163.0
145,1436374240892,163.0
146,1436374240910,163.0
147,1436374240932,162.0
148,1436374240950,162.0
149,1436374240975,162.0
150,1436374240991,162.0
151,1436374241012,162.0
152,1436374241030,162.0
153,1436374241053,162.0
154,1436374241074,162.0
155,1436374241093,162.0
156,1436374241113,162.0
157,1436374241133,162.0
158,1436374241153,162.0
159,1436374241170,162.0
160,1436374241193,162.0
161,1436374241215,162.0
162,1436374241232,162.0
163,1436374241253,162.0
164,1436374241270,162.0
165,1436374241292,162.0
166,1436374241312,162.0
167,1436374241334,162.0
168,1436374241354,162.0
169,1436374241374,162.0
170,1436374241394,162.0
171,1436374241413,162.0
172,1436374241431,162.0
173,1436374241452,162.0
174,1436374241473,162.0
175,1436374241491,162.0
176,1436374241604,162.0
177,1436374241605,162.0
178,1436374241606,163.0
179,1436374241607,163.0
180,1436374241608,163.0
181,1436374241625,163.0
182,1436374241631,163.0
183,1436374241651,162.0
184,1436374241695,162.0
185,1436374241696,163.0
186,1436374241711,163.0
187,1436374241731,163.0
188,1436374241757,163.0
189,1436374241773,162.0
190,1436374241794,162.0
191,1436374241811,162.0
192,1436374241835,163.0
193,1436374241851,163.0
194,1436374241873,163.0
195,1436374241893,163.0
196,1436374241920,162.0
197,1436374241931,162.0
198,1436374241955,162.0
199,1436374241973,162.0
200,1436374241993,162.0
201,1436374242011,162.0
202,1436374242031,162.0
203,1436374242051,162.0
204,1436374242074,162.0
205,1436374242094,162.0
206,1436374242114,162.0
207,1436374242131,162.0
208,1436374242153,162.0
209,1436374242173,161.0
210,1436374242204,161.0
211,1436374242212,161.0
212,1436374242282,161.0
213,1436374242283,161.0
214,1436374242284,161.0
215,1436374242312,161.0
216,1436374242313,161.0
217,1436374242332,161.0
218,1436374242355,161.0
219,1436374242373,161.0
220,1436374242393,160.0
221,1436374242412,160.0
222,1436374242432,160.0
223,1436374242457,160.0
224,1436374242473,160.0
225,1436374242492,160.0
226,1436374242514,160.0
227,1436374242534,160.0
228,1436374242554,160.0
229,1436374242574,159.0
230,1436374242595,159.0
231,1436374242615,159.0
232,1436374242634,159.0
233,1436374242655,159.0
234,1436374242677,159.0
235,1436374242693,159.0
236,1436374242715,159.0
237,1436374242734,159.0
238,1436374242754,159.0
239,1436374242774,159.0
240,1436374242795,159.0
241,1436374242815,159.0
242,1436374242835,158.0
243,1436374242853,158.0
244,1436374242875,158.0
245,1436374242895,158.0
246,1436374242914,158.0
247,1436374242933,158.0
248,1436374242953,158.0
249,1436374243025,158.0
250,1436374243026,158.0
251,1436374243027,158.0
252,1436374243035,158.0
253,1436374243052,158.0
254,1436374243074,158.0
255,1436374243107,158.0
256,1436374243112,158.0
257,1436374243134,158.0
258,1436374243154,158.0
259,1436374243174,158.0
260,1436374243193,158.0
261,1436374243213,158.0
262,1436374243236,158.0
263,1436374243255,158.0
264,1436374243276,158.0
265,1436374243296,158.0
266,1436374243316,158.0
267,1436374243335,158.0
268,1436374243355,158.0
269,1436374243376,158.0
270,1436374243394,158.0
271,1436374243416,158.0
272,1436374243436,158.0
273,1436374243456,158.0
274,1436374243476,158.0
275,1436374243495,158.0
276,1436374243516,158.0
277,1436374243536,158.0
278,1436374243556,158.0
279,1436374243576,158.0
280,1436374243596,158.0
281,1436374243615,158.0
282,1436374243634,158.0
283,1436374243654,158.0
284,1436374243724,158.0
285,1436374243725,158.0
286,1436374243726,158.0
287,1436374243737,158.0
288,1436374243753,158.0
289,1436374243774,158.0
290,1436374243793,158.0
291,1436374243814,158.0
292,1436374243839,158.0
293,1436374243853,158.0
294,1436374243875,158.0
295,1436374243893,158.0
296,1436374243915,158.0
297,1436374243937,158.0
298,1436374243957,157.0
299,1436374243976,157.0
300,1436374243996,157.0
301,1436374244016,157.0
302,1436374244037,157.0
303,1436374244057,157.0
304,1436374244076,157.0
305,1436374244097,157.0
306,1436374244116,157.0
307,1436374244135,157.0
308,1436374244156,157.0
309,1436374244177,157.0
310,1436374244194,157.0
311,1436374244215,158.0
312,1436374244235,158.0
313,1436374244258,158.0
314,1436374244278,158.0
315,1436374244298,158.0
316,1436374244317,158.0
317,1436374244334,158.0
318,1436374244354,158.0
319,1436374244376,158.0
320,1436374244396,157.0
321,1436374244470,157.0
322,1436374244471,158.0
323,1436374244483,158.0
324,1436374244484,157.0
325,1436374244494,157.0
326,1436374244514,158.0
327,1436374244534,158.0
328,1436374244554,158.0
329,1436374244585,158.0
330,1436374244593,158.0
331,1436374244614,158.0
332,1436374244640,158.0
333,1436374244655,158.0
334,1436374244678,158.0
335,1436374244695,158.0
336,1436374244717,158.0
337,1436374244737,158.0
338,1436374244757,158.0
339,1436374244777,158.0
340,1436374244797,158.0
341,1436374244818,158.0
342,1436374244837,158.0
343,1436374244856,158.0
344,1436374244875,158.0
345,1436374244897,158.0
346,1436374244917,158.0
347,1436374244937,158.0
348,1436374244957,158.0
349,1436374244978,158.0
350,1436374244997,158.0
351,1436374245017,158.0
352,1436374245037,158.0
353,1436374245058,158.0
354,1436374245077,158.0
355,1436374245096,158.0
356,1436374245116,158.0
357,1436374245143,159.0
358,1436374245237,159.0
359,1436374245238,159.0
360,1436374245239,159.0
361,1436374245240,159.0
362,1436374245241,159.0
363,1436374245277,159.0
364,1436374245278,159.0
365,1436374245304,159.0
366,1436374245338,159.0
367,1436374245339,159.0
368,1436374245354,159.0
369,1436374245376,159.0
370,1436374245394,159.0
371,1436374245417,159.0
372,1436374245434,159.0
373,1436374245461,159.0
374,1436374245474,159.0
375,1436374245503,159.0
376,1436374245520,159.0
377,1436374245534,159.0
378,1436374245554,159.0
379,1436374245574,159.0
380,1436374245594,159.0
381,1436374245615,159.0
382,1436374245634,159.0
383,1436374245655,159.0
384,1436374245675,159.0
385,1436374245695,159.0
386,1436374245714,159.0
387,1436374245734,159.0
388,1436374245762,159.0
389,1436374245776,159.0
390,1436374245795,159.0
391,1436374245813,159.0
392,1436374245833,159.0
393,1436374245853,159.0
394,1436374245873,159.0
395,1436374245893,159.0
396,1436374245914,159.0
397,1436374245934,160.0
398,1436374245954,160.0
399,1436374245978,161.0
400,1436374245993,161.0
401,1436374246015,164.0
402,1436374246033,168.0
403,1436374246055,168.0
404,1436374246075,171.0
405,1436374246094,171.0
406,1436374246115,171.0
407,1436374246136,171.0
408,1436374246156,170.0
409,1436374246175,170.0
410,1436374246194,172.0
411,1436374246215,172.0
412,1436374246236,173.0
413,1436374246254,174.0
414,1436374246276,174.0
415,1436374246296,174.0
416,1436374246316,174.0
417,1436374246336,173.0
418,1436374246358,173.0
419,1436374246377,170.0
420,1436374246397,170.0
421,1436374246416,167.0
422,1436374246438,167.0
423,1436374246458,165.0
424,1436374246478,164.0
425,1436374246498,164.0
426,1436374246516,165.0
427,1436374246536,165.0
428,1436374246556,168.0
429,1436374246576,168.0
430,1436374246621,173.0
431,1436374246622,173.0
432,1436374246634,177.0
433,1436374246654,182.0
434,1436374246674,182.0
435,1436374246696,189.0
436,1436374246718,189.0
437,1436374246736,188.0
438,1436374246756,188.0
439,1436374246778,196.0
440,1436374246799,196.0
441,1436374246818,196.0
442,1436374246839,196.0
443,1436374246858,195.0
444,1436374246877,185.0
445,1436374246900,185.0
446,1436374246917,179.0
447,1436374246938,179.0
448,1436374246959,180.0
449,1436374246979,180.0
450,1436374246997,184.0
451,1436374247018,184.0
452,1436374247039,189.0
453,1436374247059,189.0
454,1436374247076,199.0
455,1436374247098,217.0
456,1436374247118,217.0
457,1436374247139,251.0
458,1436374247159,251.0
459,1436374247179,332.0
460,1436374247196,332.0
461,1436374247218,493.0
462,1436374247244,493.0
463,1436374247304,630.0
464,1436374247305,630.0
465,1436374247306,756.0
466,1436374247316,818.0
467,1436374247336,818.0
468,1436374247357,747.0
469,1436374247376,747.0
470,1436374247396,571.0
471,1436374247430,571.0
472,1436374247438,344.0
473,1436374247458,344.0
474,1436374247477,221.0
475,1436374247498,221.0
476,1436374247517,165.0
477,1436374247539,145.0
478,1436374247559,145.0
479,1436374247580,164.0
480,1436374247599,164.0
481,1436374247617,188.0
482,1436374247649,188.0
483,1436374247660,212.0
484,1436374247676,212.0
485,1436374247700,234.0
486,1436374247717,260.0
487,1436374247739,260.0
488,1436374247757,290.0
489,1436374247777,290.0
490,1436374247798,318.0
491,1436374247818,318.0
492,1436374247843,346.0
493,1436374247858,346.0
494,1436374247878,372.0
495,1436374247897,372.0
496,1436374247917,395.0
497,1436374247938,417.0
498,1436374247958,417.0
499,1436374248078,440.0
500,1436374248079,440.0
501,1436374248080,467.0
502,1436374248081,467.0
503,1436374248082,498.0
504,1436374248083,498.0
505,1436374248097,535.0
506,1436374248118,535.0
507,1436374248137,571.0
508,1436374248169,599.0
509,1436374248177,599.0
510,1436374248197,598.0
511,1436374248217,598.0
512,1436374248237,588.0
513,1436374248258,588.0
514,1436374248280,587.0
515,1436374248300,587.0
516,1436374248320,604.0
517,1436374248340,604.0
518,1436374248357,612.0
519,1436374248378,586.0
520,1436374248425,586.0
521,1436374248426,526.0
522,1436374248439,526.0
523,1436374248458,437.0
524,1436374248478,437.0
525,1436374248497,334.0
526,1436374248517,334.0
527,1436374248537,275.0
528,1436374248558,275.0
529,1436374248583,267.0
530,1436374248598,258.0
531,1436374248619,258.0
532,1436374248641,244.0
533,1436374248659,244.0
534,1436374248689,232.0
535,1436374248701,232.0
536,1436374248778,223.0
537,1436374248779,223.0
538,1436374248780,217.0
539,1436374248781,213.0
540,1436374248797,213.0
541,1436374248819,209.0
542,1436374248838,209.0
543,1436374248857,205.0
544,1436374248886,205.0
545,1436374248897,202.0
546,1436374248921,202.0
547,1436374248946,200.0
548,1436374248959,200.0
549,1436374248978,198.0
550,1436374249002,197.0
551,1436374249018,197.0
552,1436374249041,196.0
553,1436374249062,196.0
554,1436374249079,193.0
555,1436374249101,193.0
556,1436374249122,190.0
557,1436374249140,190.0
558,1436374249161,187.0
559,1436374249185,187.0
560,1436374249200,185.0
561,1436374249224,184.0
562,1436374249245,184.0
563,1436374249263,184.0
564,1436374249281,184.0
565,1436374249298,183.0
566,1436374249318,183.0
567,1436374249338,183.0
568,1436374249363,183.0
569,1436374249384,181.0
570,1436374249399,181.0
571,1436374249419,177.0
572,1436374249450,174.0
573,1436374249506,174.0
574,1436374249507,171.0
575,1436374249508,171.0
576,1436374249518,171.0
577,1436374249539,171.0
578,1436374249565,171.0
579,1436374249580,171.0
580,1436374249600,171.0
581,1436374249619,170.0
582,1436374249645,170.0
583,1436374249660,170.0
584,1436374249683,170.0
585,1436374249701,171.0
586,1436374249721,171.0
587,1436374249742,172.0
588,1436374249760,172.0
589,1436374249778,172.0
590,1436374249799,172.0
591,1436374249819,172.0
592,1436374249839,173.0
593,1436374249857,173.0
594,1436374249877,174.0
595,1436374249899,174.0
596,1436374249922,176.0
597,1436374249938,176.0
598,1436374249961,179.0
599,1436374249980,179.0
600,1436374249998,182.0
601,1436374250021,182.0
602,1436374250041,186.0
603,1436374250061,190.0
604,1436374250080,190.0
605,1436374250102,195.0
606,1436374250119,195.0
607,1436374250139,202.0
608,1436374250181,202.0
609,1436374250182,211.0
610,1436374250198,211.0
611,1436374250225,219.0
612,1436374250239,219.0
613,1436374250258,226.0
614,1436374250278,232.0
615,1436374250298,232.0
616,1436374250320,236.0
617,1436374250338,236.0
618,1436374250359,239.0
619,1436374250381,239.0
620,1436374250402,241.0
621,1436374250422,241.0
622,1436374250442,241.0
623,1436374250463,241.0
624,1436374250480,241.0
625,1436374250499,239.0
626,1436374250524,239.0
627,1436374250538,237.0
628,1436374250559,237.0
629,1436374250578,234.0
630,1436374250601,234.0
631,1436374250620,232.0
632,1436374250640,232.0
633,1436374250662,229.0
634,1436374250682,225.0
635,1436374250700,225.0
636,1436374250721,220.0
637,1436374250743,220.0
638,1436374250763,217.0
639,1436374250782,217.0
640,1436374250801,213.0
641,1436374250827,213.0
642,1436374250893,211.0
643,1436374250894,211.0
644,1436374250895,210.0
645,1436374250902,210.0
646,1436374250919,210.0
647,1436374250975,210.0
648,1436374250976,210.0
649,1436374250991,211.0
650,1436374251001,211.0
651,1436374251023,212.0
652,1436374251041,212.0
653,1436374251063,212.0
654,1436374251080,212.0
655,1436374251103,213.0
656,1436374251123,213.0
657,1436374251143,213.0
658,1436374251163,214.0
659,1436374251182,214.0
660,1436374251202,215.0
661,1436374251223,215.0
662,1436374251245,217.0
663,1436374251260,217.0
664,1436374251283,218.0
665,1436374251302,218.0
666,1436374251321,220.0
667,1436374251342,222.0
668,1436374251363,222.0
669,1436374251383,223.0
670,1436374251403,223.0
671,1436374251423,223.0
672,1436374251442,223.0
673,1436374251463,222.0
674,1436374251483,222.0
675,1436374251503,222.0
676,1436374251527,222.0
677,1436374251577,222.0
678,1436374251578,224.0
679,1436374251605,224.0
680,1436374251606,227.0
681,1436374251622,227.0
682,1436374251641,230.0
683,1436374251660,230.0
684,1436374251687,234.0
685,1436374251700,234.0
686,1436374251725,237.0
687,1436374251744,239.0
688,1436374251762,239.0
689,1436374251785,242.0
690,1436374251804,242.0
691,1436374251824,244.0
692,1436374251844,244.0
693,1436374251862,247.0
694,1436374251883,247.0
695,1436374251904,251.0
696,1436374251924,251.0
697,1436374251944,255.0
698,1436374251965,262.0
699,1436374251980,262.0
700,1436374252004,271.0
701,1436374252024,271.0
702,1436374252044,282.0
703,1436374252064,282.0
704,1436374252084,292.0
705,1436374252103,292.0
706,1436374252124,295.0
707,1436374252144,295.0
708,1436374252164,290.0
709,1436374252184,278.0
710,1436374252205,278.0
711,1436374252223,258.0
712,1436374252243,258.0
713,1436374252315,233.0
714,1436374252316,233.0
715,1436374252317,207.0
716,1436374252325,207.0
717,1436374252344,184.0
718,1436374252361,184.0
719,1436374252415,167.0
720,1436374252416,156.0
721,1436374252423,156.0
722,1436374252442,152.0
723,1436374252462,152.0
724,1436374252484,152.0
725,1436374252506,152.0
726,1436374252524,157.0
727,1436374252544,157.0
728,1436374252564,168.0
729,1436374252584,183.0
730,1436374252604,183.0
731,1436374252624,200.0
732,1436374252644,200.0
733,1436374252664,219.0
734,1436374252683,219.0
735,1436374252703,249.0
736,1436374252725,249.0
737,1436374252742,286.0
738,1436374252762,286.0
739,1436374252781,318.0
740,1436374252807,345.0
741,1436374252827,345.0
742,1436374252847,367.0
743,1436374252864,367.0
744,1436374252881,386.0
745,1436374252902,386.0
746,1436374252921,413.0
747,1436374252943,413.0
748,1436374252963,456.0
749,1436374253037,456.0
750,1436374253044,514.0
751,1436374253045,555.0
752,1436374253046,555.0
753,1436374253064,584.0
754,1436374253082,584.0
755,1436374253123,601.0
756,1436374253124,601.0
757,1436374253143,628.0
758,1436374253166,628.0
759,1436374253191,618.0
760,1436374253203,618.0
761,1436374253225,583.0
762,1436374253245,481.0
763,1436374253265,481.0
764,1436374253294,316.0
765,1436374253304,316.0
766,1436374253322,160.0
767,1436374253344,160.0
768,1436374253364,115.0
769,1436374253384,115.0
770,1436374253405,117.0
771,1436374253423,117.0
772,1436374253444,139.0
773,1436374253464,172.0
774,1436374253483,172.0
775,1436374253502,220.0
776,1436374253524,220.0
777,1436374253547,263.0
778,1436374253567,263.0
779,1436374253587,289.0
780,1436374253604,289.0
781,1436374253622,312.0
782,1436374253642,338.0
783,1436374253663,338.0
784,1436374253684,372.0
785,1436374253786,372.0
786,1436374253787,420.0
787,1436374253788,420.0
788,1436374253789,440.0
789,1436374253790,440.0
790,1436374253813,462.0
791,1436374253823,462.0
792,1436374253852,479.0
793,1436374253863,443.0
794,1436374253884,443.0
795,1436374253903,387.0
796,1436374253923,387.0
797,1436374253948,312.0
798,1436374253965,312.0
799,1436374253983,244.0
800,1436374254005,244.0
801,1436374254025,159.0
802,1436374254045,159.0
803,1436374254065,94.0
804,1436374254085,93.0
805,1436374254105,93.0
806,1436374254123,119.0
807,1436374254146,119.0
808,1436374254167,143.0
809,1436374254184,143.0
810,1436374254206,175.0
811,1436374254228,175.0
812,1436374254248,205.0
813,1436374254267,205.0
814,1436374254286,229.0
815,1436374254304,255.0
816,1436374254324,255.0
817,1436374254345,280.0
818,1436374254368,280.0
819,1436374254389,321.0
820,1436374254410,321.0
821,1436374254425,361.0
822,1436374254505,361.0
823,1436374254506,412.0
824,1436374254507,412.0
825,1436374254508,467.0
826,1436374254523,492.0
827,1436374254544,492.0
828,1436374254566,453.0
829,1436374254584,453.0
830,1436374254604,387.0
831,1436374254625,387.0
832,1436374254645,291.0
833,1436374254664,291.0
834,1436374254685,174.0
835,1436374254706,125.0
836,1436374254724,125.0
