id,attr_time,attr_db
1,1437227272348,37.3925297091747
2,1437227273072,36.7466882110511
3,1437227273812,36.3123463009701
4,1437227274617,36.6714566415593
5,1437227275294,36.976957062623
6,1437227276083,38.4621673936904
7,1437227276781,36.8806162591837
8,1437227277520,37.6189473448288
9,1437227278263,43.6291005534753
10,1437227278987,38.592610132104
11,1437227279685,52.5533983298085
12,1437227280382,53.129428892884
13,1437227281080,53.6035249040824
14,1437227281834,62.7969423765432
15,1437227282490,59.3965327614731
16,1437227283233,58.5075340704012
17,1437227283963,59.0385453670872
18,1437227284697,57.710621748484
19,1437227285441,45.9919937830885
20,1437227286198,56.4399309958395
21,1437227286901,54.5480046996477
22,1437227287594,59.8846751229158
23,1437227288264,53.6212069793987
24,1437227288981,50.0983604275986
25,1437227289660,54.2753368319695
26,1437227290316,53.3188818543056
27,1437227291015,55.3509115613032
28,1437227291683,49.1660216052295
29,1437227292390,54.6486703661762
30,1437227293119,59.284812141352
31,1437227293790,56.0860229122781
32,1437227294503,48.8665021265075
33,1437227295222,57.1425102996262
34,1437227295953,45.402659033681
35,1437227296685,51.9413421232285
36,1437227297427,48.5918318495091
37,1437227298188,50.9888314306212
38,1437227298920,55.8886522642549
39,1437227299624,55.5562470953249
40,1437227300332,49.5771735944041
41,1437227302478,56.2221354618409
42,1437227303242,54.5322905154629
43,1437227303979,55.9609258296082
44,1437227304699,44.3449208411011
45,1437227305455,58.2302159623723
46,1437227306116,56.243549114001
47,1437227306856,62.5735883792103
48,1437227307588,54.0146830073622
49,1437227308322,54.8224309927876
50,1437227309066,54.2824694349621
51,1437227309801,57.9059699144532
52,1437227310457,61.6062079494289
53,1437227311108,53.824536190461
54,1437227311778,54.739212603182
55,1437227312506,55.3728698949516
56,1437227313292,50.1215433688659
57,1437227314013,45.0295957173453
58,1437227314741,61.1641585137205
59,1437227315466,48.9611993607482
60,1437227316188,54.6562246697713
61,1437227316914,55.178374847177
62,1437227317610,50.32700381921
63,1437227319168,48.9243860331499
64,1437227319825,50.9639430998685
65,1437227320514,54.1093951489887
66,1437227321196,49.9110209930024
67,1437227321914,52.0792305653676
68,1437227322649,56.2665991351675
69,1437227323511,58.8706731460798
70,1437227324159,49.4625336941272
71,1437227324873,54.844297912088
72,1437227325631,52.7811541208561
73,1437227326351,51.1096796879381
74,1437227327052,52.2528495861143
75,1437227327769,55.5411108589117
76,1437227328522,49.5336807563732
77,1437227329236,56.7718075929228
78,1437227329984,58.5573960076711
79,1437227330713,51.4388134111451
80,1437227331406,57.0104780043324
81,1437227332155,56.0182177500058
82,1437227332854,49.1885940278277
83,1437227333586,58.6863650065522
84,1437227334329,57.5271825256522
85,1437227335053,56.3387830038425
86,1437227335780,47.7837470853851
87,1437227336453,47.2305452499553
88,1437227337066,50.0880514609923
89,1437227337741,57.346974196025
90,1437227338479,53.8070101497396
91,1437227339214,55.4112583660912
92,1437227339938,41.7793982749756
93,1437227340642,43.1220555385205
94,1437227341313,56.4556386786498
95,1437227342045,54.6143173256884
96,1437227342754,56.1749715850189
97,1437227343406,57.0877473077521
98,1437227344112,53.6627867191355
99,1437227344857,53.9220322675045
100,1437227345596,59.0153388427913
101,1437227346333,52.3224545341071
102,1437227347059,59.9416293956433
103,1437227347797,49.2990691021575
104,1437227348532,45.5321341568859
105,1437227349241,51.6861432857253
106,1437227350008,50.2013867554262
107,1437227350686,43.2760525590815
108,1437227351324,52.1933185744825
109,1437227352019,60.5158135517856
110,1437227352786,53.1076248613834
111,1437227353669,55.7100600441561
112,1437227354306,46.670440925605
113,1437227355037,57.3767024134902
114,1437227355709,50.5895120730235
115,1437227356396,51.8365563929415
116,1437227357152,41.8776646922209
117,1437227357872,47.6572254135323
118,1437227358600,56.9427107570719
119,1437227359352,49.8198378418198
120,1437227360092,46.208522586329
121,1437227360820,51.6507966637345
122,1437227361497,55.0821025201334
123,1437227362235,45.4359339250424
124,1437227362955,53.445315021581
125,1437227363670,54.5397377774183
126,1437227364398,52.0053796940661
127,1437227365109,43.0984845114242
128,1437227365767,48.6161926722377
129,1437227366540,48.7085199043137
130,1437227367285,49.6342360943976
131,1437227367999,53.2327752620664
132,1437227368731,54.1854173920848
133,1437227369445,54.5616144310315
134,1437227370187,53.5315274803553
135,1437227370915,48.0760986819205
136,1437227371629,51.5006740562135
137,1437227372283,43.5114007675529
138,1437227373008,51.1701110364978
139,1437227373733,53.248708412675
140,1437227374471,49.3355264990845
141,1437227375189,44.4524339700899
142,1437227375859,48.4949944824663
143,1437227376531,45.4008012097262
144,1437227377266,50.9792684435999
145,1437227377992,50.2681645106555
146,1437227378716,57.8361482971164
147,1437227379451,49.1555324727241
148,1437227380199,50.3381539314064
149,1437227380960,53.9344646153406
150,1437227381659,52.177598227242
151,1437227382329,54.5139640895884
152,1437227383049,48.500550759014
153,1437227383765,50.0639584706488
154,1437227384481,55.0437968041002
155,1437227385216,52.6980500391691
156,1437227385981,52.5499281224391
157,1437227386693,50.9706476960464
158,1437227387360,51.2831591127206
159,1437227388094,56.2444340765755
160,1437227388809,49.9033290778212
161,1437227389532,48.9516022570046
162,1437227390305,49.5938447535495
163,1437227391028,49.5827575501787
164,1437227391714,51.406550411011
165,1437227392383,48.1306971932021
166,1437227393128,57.0522942748267
167,1437227393852,52.6313601920991
168,1437227394583,49.7685977866137
169,1437227395329,51.6467620539795
170,1437227396093,46.172985441841
171,1437227396791,50.8445465140558
172,1437227397534,54.1366435059319
173,1437227398263,49.9522045671725
174,1437227398997,47.1862135718871
175,1437227399727,55.1623246824893
176,1437227400450,43.87848122786
177,1437227401185,38.5511824782165
178,1437227401951,51.1448372748956
179,1437227402583,57.7678683901347
180,1437227403311,51.8970865873561
181,1437227403936,54.3302201375769
182,1437227404605,51.2827658708525
183,1437227405430,51.1536891664849
184,1437227406174,48.5466394299527
185,1437227406907,47.9868495997605
186,1437227407630,51.949614813407
187,1437227408354,44.4872424565915
188,1437227409073,48.6295124006415
189,1437227409816,48.6416955334102
190,1437227410551,47.5569694058523
191,1437227411293,50.9481185731149
192,1437227412046,55.1393895596966
193,1437227412723,45.2357786154442
194,1437227413376,54.7938214564375
195,1437227414097,48.2688670039768
196,1437227414816,47.7572413950582
197,1437227415514,48.608132692209
198,1437227416234,43.8905343344876
199,1437227416947,56.4885496420583
200,1437227417684,45.7080453182771
201,1437227418424,38.887578758151
202,1437227419166,54.5679267627758
203,1437227419882,51.1649058023745
204,1437227420612,59.3664291426823
205,1437227421347,53.4614808308901
206,1437227422114,52.9678191375926
207,1437227422836,47.6269859219112
208,1437227423491,54.092755516193
209,1437227424239,45.1294159274713
210,1437227424959,51.4494400453916
211,1437227425647,46.2111566990025
212,1437227426364,46.57721759106
213,1437227427116,55.8084016578009
214,1437227427857,52.3439680758868
215,1437227428590,46.6445923370795
216,1437227429342,42.2892404074288
217,1437227430090,57.113900634865
218,1437227430831,54.0615085628175
219,1437227431567,54.1284140282396
220,1437227432325,50.3455043495562
221,1437227433037,55.0630541966958
222,1437227433694,56.678710804135
223,1437227434443,52.3598701216074
224,1437227435203,49.9985613668083
225,1437227435913,45.9722723110588
226,1437227436671,46.7990215762827
227,1437227437420,54.0292034125768
228,1437227438004,56.6507849802322
229,1437227438686,47.2880159500873
230,1437227439308,49.2724525083246
231,1437227440001,49.7402340680799
232,1437227440725,48.1885850002057
233,1437227441459,46.1095519984409
234,1437227442221,46.8581858784274
235,1437227442978,47.6847894393461
236,1437227443608,52.1268512912702
237,1437227444275,53.3718406781485
238,1437227444996,51.4271954645152
239,1437227445733,49.0325515600925
240,1437227446438,42.8160177899925
241,1437227447149,46.0731410803045
242,1437227447776,48.4405916088336
243,1437227448467,49.2515865361393
244,1437227449145,48.9022819403364
245,1437227449817,53.5642025406433
246,1437227450594,47.41500869622
247,1437227451338,44.3446813856531
248,1437227452084,51.6480799025169
249,1437227452807,56.3691159211974
250,1437227453512,44.9074044678696
251,1437227454166,57.1554616893842
252,1437227454905,45.6535279033243
253,1437227455659,49.2090081464604
254,1437227457556,49.461665896012
255,1437227458295,44.7050503068949
256,1437227459022,49.4156566941302
257,1437227459765,50.1445225493159
258,1437227460505,46.8724049074617
259,1437227461249,48.6681388400756
260,1437227461979,49.0657723806375
261,1437227462727,45.9349716042068
262,1437227463446,47.9342796348675
263,1437227464143,51.0187843155874
264,1437227464799,54.2033598625613
265,1437227465386,47.5035728546898
266,1437227466075,45.6472307915263
267,1437227466817,50.5620592948205
268,1437227467529,48.5384775108525
269,1437227468208,43.1037141976408
270,1437227468940,54.3863994499458
271,1437227469683,45.9725968058095
272,1437227470402,43.0807370584495
273,1437227471124,47.098228446033
274,1437227471863,46.4966071809807
275,1437227472582,49.2108826304644
276,1437227473339,54.776521834137
277,1437227474103,53.1338789661673
278,1437227474734,48.9889089330859
279,1437227475505,49.473253935851
280,1437227476295,47.657562185942
281,1437227477028,43.7950519574558
282,1437227477741,51.2084189990989
283,1437227479575,44.3438259932328
284,1437227480248,44.8054389773136
285,1437227480982,44.72200895194
286,1437227481696,52.2293612580087
287,1437227482453,47.6903974478198
288,1437227483185,54.8723936150929
289,1437227483909,48.7173189238959
290,1437227484582,52.3654056846581
291,1437227485334,47.856849805107
292,1437227486057,45.5065283767349
293,1437227486765,47.9649380914241
294,1437227487517,48.7958428574057
295,1437227488241,50.9359213327321
296,1437227488999,47.0584282322363
297,1437227489729,55.6856373227535
298,1437227490468,47.7501960357647
299,1437227491217,46.8337209774992
300,1437227491942,45.7269244926812
301,1437227492684,55.5428797682196
302,1437227493416,46.2407792121233
303,1437227494138,49.067870186064
304,1437227494815,52.0325122463576
305,1437227495498,47.621315712205
306,1437227496249,47.1260883278819
307,1437227496980,46.9236871955049
308,1437227497701,52.5768543840486
309,1437227498457,49.1981087585905
310,1437227499187,48.2038135891651
311,1437227499915,53.3466321119637
312,1437227500688,47.2745187136341
313,1437227501427,44.7134755433691
314,1437227502161,54.027418963619
315,1437227502906,51.7025964539543
316,1437227503636,46.0241969910756
317,1437227504355,54.7425299638038
318,1437227505015,49.1806718494846
319,1437227505606,51.5171898840037
320,1437227506307,54.0297693044309
321,1437227507030,55.03830048071
322,1437227507749,46.6983816886373
323,1437227508483,49.4354001310626
324,1437227509226,49.4683561575023
325,1437227509958,49.1209035893835
326,1437227510682,54.3469761241131
327,1437227511414,52.039476260661
328,1437227512135,57.772997764916
329,1437227512872,50.0097608491536
330,1437227513596,48.3313288708044
331,1437227514329,53.7558427997544
332,1437227515013,47.8574863110344
333,1437227515656,48.3625635729484
334,1437227516416,49.7743569596695
335,1437227517106,54.2532583297887
336,1437227518877,48.216662724884
337,1437227519551,50.9772044343497
338,1437227520284,46.2455555639381
339,1437227521034,49.2813406977626
340,1437227521763,44.6674446610402
341,1437227522482,47.5948464086358
342,1437227523222,57.8148496379893
343,1437227523977,49.9878499448219
344,1437227524678,57.2374199923472
345,1437227525322,48.7805742224536
346,1437227525968,48.1020079877109
347,1437227526677,55.8568414623375
348,1437227527411,54.1167240840007
349,1437227528155,47.6037096369655
350,1437227528887,47.4194765229851
351,1437227529607,50.54680576108
352,1437227530327,48.150168588847
353,1437227531084,45.187688324364
354,1437227531808,52.3341375074815
355,1437227532555,49.6471059707228
356,1437227533276,47.6475807212045
357,1437227533992,47.5692736402192
358,1437227534709,45.9836476323981
359,1437227535496,43.8461704328642
360,1437227536093,56.9923655955217
361,1437227536819,45.3164430996665
362,1437227537554,45.4734166801386
363,1437227539806,51.9836729676144
364,1437227540538,47.7670178072029
365,1437227541281,52.0485478105051
366,1437227542004,52.5429092730028
367,1437227542764,52.6858492789902
368,1437227543514,50.8606025801481
369,1437227544251,47.7715192966564
370,1437227544996,44.0125865044418
371,1437227545722,50.1303286285101
372,1437227546317,44.3795831514349
373,1437227547024,48.4865969436626
374,1437227547771,52.7967347486811
375,1437227548508,53.9903168456958
376,1437227549286,47.8366837061156
377,1437227550002,55.9490467278031
378,1437227550760,40.6951390858978
379,1437227551444,49.9827355226052
380,1437227552176,47.7322369261034
381,1437227552896,51.5444471951685
382,1437227553615,43.3994681311089
383,1437227554341,56.4556765244188
384,1437227555062,49.2809162042118
385,1437227555752,47.1097942438727
386,1437227556418,41.4421384732863
387,1437227557209,44.8530413128347
388,1437227557935,54.0185822324901
389,1437227558652,47.2850866655872
390,1437227559385,44.9876052277973
391,1437227560128,44.5593483115274
392,1437227560921,44.5496024462017
393,1437227561621,53.8585916193733
394,1437227562304,48.9426841593047
395,1437227563019,44.5744845379367
396,1437227563745,44.8974292939072
397,1437227564486,47.5264942002912
398,1437227565255,47.3750994323591
399,1437227565912,52.8629420208436
400,1437227566591,51.9861415657905
401,1437227567332,42.9390448736253
402,1437227568052,50.5603865134785
403,1437227568759,50.2420515286732
404,1437227569464,46.7696654525476
405,1437227570241,46.0966073406638
406,1437227571023,48.9455274159621
407,1437227571760,45.6823196355244
408,1437227572493,47.6038263083224
409,1437227573233,45.8124852997127
410,1437227573945,53.2021855077474
411,1437227574670,50.6598494743279
412,1437227575399,47.169375462603
413,1437227576163,54.8569095864199
414,1437227576802,49.4263732561846
415,1437227577473,54.0858821304579
416,1437227578226,50.4584681403992
417,1437227578952,46.6770121426712
418,1437227579676,45.0636236918504
419,1437227580449,48.2950303547973
420,1437227581162,48.8640490548056
421,1437227581834,49.5178742380962
422,1437227582549,46.089904288839
423,1437227583285,44.1066818837448
424,1437227584031,46.965973569304
425,1437227584769,44.5058050737421
426,1437227585533,53.4064946809746
427,1437227586233,50.8580768818308
428,1437227586898,52.6013673095839
429,1437227587636,47.6004703591259
430,1437227588383,56.7316477403414
431,1437227589146,44.6515033685273
432,1437227589870,47.9961123265557
433,1437227590595,49.9656327903971
434,1437227591345,44.6218010439467
435,1437227592077,47.0521061932779
436,1437227592780,50.266118745706
437,1437227593356,41.2400381379093
438,1437227594044,50.5495504216159
439,1437227594774,53.6590998224279
440,1437227595512,50.3380236643479
441,1437227596297,58.7284609840146
442,1437227597012,49.3001001609554
443,1437227597701,45.1277171415147
444,1437227598405,51.9905454441466
445,1437227599140,45.7915490976199
446,1437227599860,56.1600207865876
447,1437227600617,47.4551211209667
448,1437227601396,50.5815781505788
449,1437227602113,57.3429634663856
450,1437227602842,53.0293634497467
451,1437227603557,49.9869040531323
452,1437227604283,47.7864138537231
453,1437227605004,51.0171216454992
454,1437227605780,50.8716569039724
455,1437227606517,52.8107244437401
456,1437227607234,54.9529180752977
457,1437227607921,40.6638975939735
458,1437227608547,60.9150415727081
459,1437227609200,43.5197794025555
460,1437227609955,45.499488207586
461,1437227610695,41.1078030653967
462,1437227611417,44.5340990693112
463,1437227612146,45.4983272524004
464,1437227612883,41.0911843452752
465,1437227613612,47.873361783886
466,1437227614358,40.237035967703
467,1437227615105,54.1498342082457
468,1437227615856,48.0799409411123
469,1437227616579,43.7942801985666
470,1437227617312,51.3118868724413
471,1437227618021,44.5154422464062
472,1437227618655,48.1069931230059
473,1437227619364,41.7058793041571
474,1437227620119,54.9509316725441
475,1437227620881,50.7133050195756
476,1437227621599,49.8162001174679
477,1437227622389,49.550732288203
478,1437227623123,46.6183727611589
479,1437227623844,51.7897179480824
480,1437227624581,46.6004196900365
481,1437227625339,46.9171532749412
482,1437227626073,46.0742386376266
483,1437227626659,46.3731837719332
484,1437227627324,46.5938936598563
485,1437227627973,45.3828243138696
486,1437227628579,48.5895290033681
487,1437227629263,55.6388549679481
488,1437227629992,46.7088353897837
489,1437227630746,46.2713731035617
490,1437227631560,44.7986143055517
491,1437227632185,37.2837558092293
492,1437227632860,42.1442891607974
493,1437227633556,44.1638577693351
494,1437227634249,51.3181089494641
495,1437227634972,48.1766411496077
496,1437227635726,48.8072763561742
497,1437227636453,43.8656871481279
498,1437227637179,48.0580077982599
499,1437227637899,54.286033494351
500,1437227638589,44.6964816417135
501,1437227639232,47.7234651864207
502,1437227639962,57.4680263895805
503,1437227640666,59.063867891189
504,1437227641380,42.869705629488
505,1437227642122,43.62976136695
506,1437227642863,51.0996512007284
507,1437227643591,50.1548538072037
508,1437227644310,59.063674262296
509,1437227645035,52.857846371837
510,1437227645771,44.8802161522784
511,1437227646472,48.7304978485605
512,1437227647081,53.5095637341304
513,1437227647766,45.9332443509794
514,1437227648452,50.561032932876
515,1437227649115,50.0493438112261
516,1437227649854,46.1914619764232
517,1437227650593,47.088947425849
518,1437227651329,58.0910578054199
519,1437227652026,53.3596297237683
520,1437227652668,44.2524734874092
521,1437227653366,47.6225565640165
522,1437227654576,45.9668874217626
523,1437227655222,47.8782647714458
524,1437227655948,46.7553535861448
525,1437227656676,45.1902168090887
526,1437227657407,49.9180301483485
527,1437227658182,42.4914525135697
528,1437227658900,53.4099514964783
529,1437227659580,56.8771765562376
530,1437227660254,49.3436211798236
531,1437227661777,48.1814576095101
532,1437227662454,44.3867389179148
533,1437227663045,54.4091726572779
534,1437227663737,45.0755957165924
535,1437227664470,42.4667995211396
536,1437227665208,57.1405767277758
537,1437227665924,45.0233077586298
538,1437227666651,48.4510195173393
539,1437227667283,43.9531794806864
540,1437227667948,44.0178581494015
541,1437227668681,54.8198401088655
542,1437227669392,54.0747723708431
543,1437227670036,51.7537972257401
544,1437227670765,46.4093224996318
545,1437227671483,48.2413347135024
546,1437227672236,48.9943260105949
547,1437227672975,50.2948033715388
548,1437227673698,46.2512475438891
549,1437227674437,41.9760275075347
550,1437227675179,50.5940732541205
551,1437227675949,43.4109004430995
552,1437227676673,47.4723756287707
553,1437227677407,52.3034502978856
554,1437227678152,49.0892307311107
555,1437227678876,56.2839438620827
556,1437227679586,48.9860810601702
557,1437227680234,47.2489186133707
558,1437227680973,46.7890407793081
559,1437227681698,52.2309508989697
560,1437227682434,46.9093362587681
561,1437227683139,49.7299000452129
562,1437227683853,44.5585469684885
563,1437227684571,44.8188967461538
564,1437227685280,46.8205261496065
565,1437227686007,47.7914572503592
566,1437227687849,37.31859675107
567,1437227688561,45.8169659739151
568,1437227689278,45.8349968789888
569,1437227689974,43.1666079011169
570,1437227690651,46.6251403066851
571,1437227691382,47.5306863645523
572,1437227692079,47.5736757983757
573,1437227692791,41.586679211123
574,1437227693497,44.2280088174429
575,1437227694162,57.8784539341503
576,1437227694879,45.9831176033543
