id,attr_time,attr_light
1,1436293824041,0.0
2,1436293824061,0.0
3,1436293824083,0.0
4,1436293824104,0.0
5,1436293824126,0.0
6,1436293824144,0.0
7,1436293824162,0.0
8,1436293824183,0.0
9,1436293824201,0.0
10,1436293824224,0.0
11,1436293824251,0.0
12,1436293824308,0.0
13,1436293824309,0.0
14,1436293824310,0.0
15,1436293824334,0.0
16,1436293824343,0.0
17,1436293824361,0.0
18,1436293824393,0.0
19,1436293824406,0.0
20,1436293824421,0.0
21,1436293824450,0.0
22,1436293824461,0.0
23,1436293824483,0.0
24,1436293824512,0.0
25,1436293824522,0.0
26,1436293824543,0.0
27,1436293824564,0.0
28,1436293824582,0.0
29,1436293824604,0.0
30,1436293824621,0.0
31,1436293824645,0.0
32,1436293824662,0.0
33,1436293824684,0.0
34,1436293824702,0.0
35,1436293824724,0.0
36,1436293824748,0.0
37,1436293824762,0.0
38,1436293824787,0.0
39,1436293824808,0.0
40,1436293824822,0.0
41,1436293824843,0.0
42,1436293824862,0.0
43,1436293824881,0.0
44,1436293824901,0.0
45,1436293824928,0.0
46,1436293824943,0.0
47,1436293824963,0.0
48,1436293824983,0.0
49,1436293825010,0.0
50,1436293825062,0.0
51,1436293825063,0.0
52,1436293825064,0.0
53,1436293825082,0.0
54,1436293825103,0.0
55,1436293825122,0.0
56,1436293825142,0.0
57,1436293825162,0.0
58,1436293825184,0.0
59,1436293825203,0.0
60,1436293825224,0.0
61,1436293825243,0.0
62,1436293825264,0.0
63,1436293825286,0.0
64,1436293825304,0.0
65,1436293825327,0.0
66,1436293825344,0.0
67,1436293825362,0.0
68,1436293825391,0.0
69,1436293825402,0.0
70,1436293825425,0.0
71,1436293825446,0.0
72,1436293825464,0.0
73,1436293825489,0.0
74,1436293825506,0.0
75,1436293825524,0.0
76,1436293825545,0.0
77,1436293825564,0.0
78,1436293825584,0.0
79,1436293825604,0.0
80,1436293825624,0.0
81,1436293825644,0.0
82,1436293825665,0.0
83,1436293825684,0.0
84,1436293825705,0.0
85,1436293825724,0.0
86,1436293825753,0.0
87,1436293825811,0.0
88,1436293825812,0.0
89,1436293825813,0.0
90,1436293825833,0.0
91,1436293825842,0.0
92,1436293825864,0.0
93,1436293825883,0.0
94,1436293825902,0.0
95,1436293825926,0.0
96,1436293825943,0.0
97,1436293825965,0.0
98,1436293825983,0.0
99,1436293826006,0.0
100,1436293826023,0.0
101,1436293826046,0.0
102,1436293826065,0.0
103,1436293826082,0.0
104,1436293826105,0.0
105,1436293826126,0.0
106,1436293826146,0.0
107,1436293826165,0.0
108,1436293826185,0.0
109,1436293826205,0.0
110,1436293826225,0.0
111,1436293826247,0.0
112,1436293826263,0.0
113,1436293826284,0.0
114,1436293826303,0.0
115,1436293826332,0.0
116,1436293826551,0.0
117,1436293826552,0.0
118,1436293826553,0.0
119,1436293826554,0.0
120,1436293826555,0.0
121,1436293826556,0.0
122,1436293826557,0.0
123,1436293826558,0.0
124,1436293826559,0.0
125,1436293826560,0.0
126,1436293826561,0.0
127,1436293826569,0.0
128,1436293826585,0.0
129,1436293826603,0.0
130,1436293826623,0.0
131,1436293826646,0.0
132,1436293826663,0.0
133,1436293826684,0.0
134,1436293826707,0.0
135,1436293826724,0.0
136,1436293826744,0.0
137,1436293826765,0.0
138,1436293826787,0.0
139,1436293826806,0.0
140,1436293826826,0.0
141,1436293826846,0.0
142,1436293826866,0.0
143,1436293826887,0.0
144,1436293826907,0.0
145,1436293826928,0.0
146,1436293826943,0.0
147,1436293826963,0.0
148,1436293826986,0.0
149,1436293827009,0.0
150,1436293827026,0.0
151,1436293827047,0.0
152,1436293827066,0.0
153,1436293827087,0.0
154,1436293827107,0.0
155,1436293827127,0.0
156,1436293827147,0.0
157,1436293827168,0.0
158,1436293827186,0.0
159,1436293827206,0.0
160,1436293827278,0.0
161,1436293827279,0.0
162,1436293827280,0.0
163,1436293827287,0.0
164,1436293827304,0.0
165,1436293827326,0.0
166,1436293827344,0.0
167,1436293827367,0.0
168,1436293827386,0.0
169,1436293827405,0.0
170,1436293827426,0.0
171,1436293827445,0.0
172,1436293827469,0.0
173,1436293827487,0.0
174,1436293827507,0.0
175,1436293827527,0.0
176,1436293827547,0.0
177,1436293827567,0.0
178,1436293827587,0.0
179,1436293827607,0.0
180,1436293827624,0.0
181,1436293827648,0.0
182,1436293827667,0.0
183,1436293827686,0.0
184,1436293827705,0.0
185,1436293827727,0.0
186,1436293827747,0.0
187,1436293827768,0.0
188,1436293827787,0.0
189,1436293827807,0.0
190,1436293827828,0.0
191,1436293827847,0.0
192,1436293827868,0.0
193,1436293827888,0.0
194,1436293827908,0.0
195,1436293827929,0.0
196,1436293827946,0.0
197,1436293827970,0.0
198,1436293828047,0.0
199,1436293828048,0.0
200,1436293828049,0.0
201,1436293828050,0.0
202,1436293828068,0.0
203,1436293828090,0.0
204,1436293828104,0.0
205,1436293828132,0.0
206,1436293828147,0.0
207,1436293828167,0.0
208,1436293828192,0.0
209,1436293828207,0.0
210,1436293828229,0.0
211,1436293828246,0.0
212,1436293828268,0.0
213,1436293828287,0.0
214,1436293828308,0.0
215,1436293828328,0.0
216,1436293828346,0.0
217,1436293828469,0.0
218,1436293828470,0.0
219,1436293828471,0.0
220,1436293828472,0.0
221,1436293828473,0.0
222,1436293828474,0.0
223,1436293828488,0.0
224,1436293828508,0.0
225,1436293828529,0.0
226,1436293828546,0.0
227,1436293828568,0.0
228,1436293828587,0.0
229,1436293828608,0.0
230,1436293828629,0.0
231,1436293828651,0.0
232,1436293828679,0.0
233,1436293828686,0.0
234,1436293828760,0.0
235,1436293828761,0.0
236,1436293828762,0.0
237,1436293828768,0.0
238,1436293828785,0.0
239,1436293828805,0.0
240,1436293828827,0.0
241,1436293828845,0.0
242,1436293828881,0.0
243,1436293828885,0.0
244,1436293828906,0.0
245,1436293828930,0.0
246,1436293828945,0.0
247,1436293828966,0.0
248,1436293828988,0.0
249,1436293829009,0.0
250,1436293829029,0.0
251,1436293829049,0.0
252,1436293829067,0.0
253,1436293829088,0.0
254,1436293829109,0.0
255,1436293829129,0.0
256,1436293829150,0.0
257,1436293829167,0.0
258,1436293829188,0.0
259,1436293829211,0.0
260,1436293829231,0.0
261,1436293829250,0.0
262,1436293829270,0.0
263,1436293829287,0.0
264,1436293829306,0.0
265,1436293829327,0.0
266,1436293829346,0.0
267,1436293829374,0.0
268,1436293829399,0.0
269,1436293829409,0.0
270,1436293829427,0.0
271,1436293829508,0.0
272,1436293829509,0.0
273,1436293829510,0.0
274,1436293829511,0.0
275,1436293829528,0.0
276,1436293829550,0.0
277,1436293829566,0.0
278,1436293829592,0.0
279,1436293829608,0.0
280,1436293829628,0.0
281,1436293829648,0.0
282,1436293829667,0.0
283,1436293829690,0.0
284,1436293829709,0.0
285,1436293829729,0.0
286,1436293829749,0.0
287,1436293829769,0.0
288,1436293829788,0.0
289,1436293829809,0.0
290,1436293829829,0.0
291,1436293829849,0.0
292,1436293829869,0.0
293,1436293829887,0.0
294,1436293829909,0.0
295,1436293829929,0.0
296,1436293829949,0.0
297,1436293829969,0.0
298,1436293829987,0.0
299,1436293830010,0.0
300,1436293830029,0.0
301,1436293830050,0.0
302,1436293830070,0.0
303,1436293830088,0.0
304,1436293830110,0.0
305,1436293830128,0.0
306,1436293830160,0.0
307,1436293830229,0.0
308,1436293830230,0.0
309,1436293830231,0.0
310,1436293830232,0.0
311,1436293830249,0.0
312,1436293830271,0.0
313,1436293830287,0.0
314,1436293830309,0.0
315,1436293830329,0.0
316,1436293830353,0.0
317,1436293830368,0.0
318,1436293830388,0.0
319,1436293830412,0.0
320,1436293830431,0.0
321,1436293830450,0.0
322,1436293830470,0.0
323,1436293830490,0.0
324,1436293830509,0.0
325,1436293830531,0.0
326,1436293830550,0.0
327,1436293830570,0.0
328,1436293830590,0.0
329,1436293830608,0.0
330,1436293830630,0.0
331,1436293830650,0.0
332,1436293830669,0.0
333,1436293830689,0.0
334,1436293830708,0.0
335,1436293830730,0.0
336,1436293830750,0.0
337,1436293830772,0.0
338,1436293830790,0.0
339,1436293830809,0.0
340,1436293830829,0.0
341,1436293830849,0.0
342,1436293830868,0.0
343,1436293830936,0.0
344,1436293830937,0.0
345,1436293830938,0.0
346,1436293830957,0.0
347,1436293830968,0.0
348,1436293831013,0.0
349,1436293831014,0.0
350,1436293831029,0.0
351,1436293831048,0.0
352,1436293831082,0.0
353,1436293831088,0.0
354,1436293831109,0.0
355,1436293831130,0.0
356,1436293831149,0.0
357,1436293831171,0.0
358,1436293831191,0.0
359,1436293831211,0.0
360,1436293831231,0.0
361,1436293831251,0.0
362,1436293831271,0.0
363,1436293831291,0.0
364,1436293831311,0.0
365,1436293831330,0.0
366,1436293831354,0.0
367,1436293831368,0.0
368,1436293831394,0.0
369,1436293831409,0.0
370,1436293831428,0.0
371,1436293831451,0.0
372,1436293831468,0.0
373,1436293831487,0.0
374,1436293831508,0.0
375,1436293831528,0.0
376,1436293831554,0.0
377,1436293831575,0.0
378,1436293831590,0.0
379,1436293831616,0.0
380,1436293831693,0.0
381,1436293831694,0.0
382,1436293831695,0.0
383,1436293831696,0.0
384,1436293831708,0.0
385,1436293831735,0.0
386,1436293831750,0.0
387,1436293831770,0.0
388,1436293831789,0.0
389,1436293831809,0.0
390,1436293831830,0.0
391,1436293831850,0.0
392,1436293831871,0.0
393,1436293831891,0.0
394,1436293831911,0.0
395,1436293831931,0.0
396,1436293831949,0.0
397,1436293831970,0.0
398,1436293831991,0.0
399,1436293832011,0.0
400,1436293832031,0.0
401,1436293832049,0.0
402,1436293832073,0.0
403,1436293832088,0.0
404,1436293832112,0.0
405,1436293832131,0.0
406,1436293832153,0.0
407,1436293832171,0.0
408,1436293832192,0.0
409,1436293832212,0.0
410,1436293832232,0.0
411,1436293832252,0.0
412,1436293832272,0.0
413,1436293832292,0.0
414,1436293832312,0.0
415,1436293832330,0.0
416,1436293832452,0.0
417,1436293832453,0.0
418,1436293832454,0.0
419,1436293832455,0.0
420,1436293832456,0.0
421,1436293832457,0.0
422,1436293832472,0.0
423,1436293832489,0.0
424,1436293832509,0.0
425,1436293832530,0.0
426,1436293832554,0.0
427,1436293832569,0.0
428,1436293832589,0.0
429,1436293832609,0.0
430,1436293832634,0.0
431,1436293832649,0.0
432,1436293832669,0.0
433,1436293832689,0.0
434,1436293832709,0.0
435,1436293832729,0.0
436,1436293832758,0.0
437,1436293832772,0.0
438,1436293832801,0.0
439,1436293832809,0.0
440,1436293832829,0.0
441,1436293832849,0.0
442,1436293832869,0.0
443,1436293832889,0.0
444,1436293832912,0.0
445,1436293832929,0.0
446,1436293832974,0.0
447,1436293832975,0.0
448,1436293832992,0.0
449,1436293833013,0.0
450,1436293833030,0.0
451,1436293833050,0.0
452,1436293833070,0.0
453,1436293833092,0.0
454,1436293833110,0.0
455,1436293833129,0.0
456,1436293833163,0.0
457,1436293833168,0.0
458,1436293833188,0.0
459,1436293833208,0.0
460,1436293833228,0.0
461,1436293833248,0.0
462,1436293833268,0.0
463,1436293833288,0.0
464,1436293833308,0.0
465,1436293833328,0.0
466,1436293833348,0.0
467,1436293833368,0.0
468,1436293833388,0.0
469,1436293833408,0.0
470,1436293833428,0.0
471,1436293833448,0.0
472,1436293833468,0.0
473,1436293833489,0.0
474,1436293833508,0.0
475,1436293833529,0.0
476,1436293833549,0.0
477,1436293833569,0.0
478,1436293833588,0.0
479,1436293833610,0.0
480,1436293833631,0.0
481,1436293833649,0.0
482,1436293833671,0.0
483,1436293833691,0.0
484,1436293833711,0.0
485,1436293833730,0.0
486,1436293833750,0.0
487,1436293833785,0.0
488,1436293833791,0.0
489,1436293833810,0.0
490,1436293833830,0.0
491,1436293833850,0.0
492,1436293833869,0.0
493,1436293833891,0.0
494,1436293833910,0.0
495,1436293833931,0.0
496,1436293833951,0.0
497,1436293833969,0.0
498,1436293833989,0.0
499,1436293834009,0.0
500,1436293834031,0.0
501,1436293834051,0.0
502,1436293834071,0.0
503,1436293834091,0.0
504,1436293834113,0.0
505,1436293834130,0.0
506,1436293834151,0.0
507,1436293834173,0.0
508,1436293834191,0.0
509,1436293834210,0.0
510,1436293834230,0.0
511,1436293834256,0.0
512,1436293834271,0.0
513,1436293834292,0.0
514,1436293834311,0.0
515,1436293834332,0.0
516,1436293834351,0.0
517,1436293834375,0.0
518,1436293834393,0.0
519,1436293834503,0.0
520,1436293834504,0.0
521,1436293834505,0.0
522,1436293834506,0.0
523,1436293834507,0.0
524,1436293834533,0.0
525,1436293834534,0.0
526,1436293834566,0.0
527,1436293834571,0.0
528,1436293834604,0.0
529,1436293834611,0.0
530,1436293834632,0.0
531,1436293834658,0.0
532,1436293834671,0.0
533,1436293834692,0.0
534,1436293834711,0.0
535,1436293834732,0.0
536,1436293834754,0.0
537,1436293834772,0.0
538,1436293834794,0.0
539,1436293834811,0.0
540,1436293834832,0.0
541,1436293834854,0.0
542,1436293834874,0.0
543,1436293834894,0.0
544,1436293834911,0.0
545,1436293834931,0.0
546,1436293834951,0.0
547,1436293834971,0.0
548,1436293834996,0.0
549,1436293835016,0.0
550,1436293835035,0.0
551,1436293835054,0.0
552,1436293835071,0.0
553,1436293835092,0.0
554,1436293835113,0.0
555,1436293835134,0.0
556,1436293835153,0.0
557,1436293835229,0.0
558,1436293835230,0.0
559,1436293835231,0.0
560,1436293835232,0.0
561,1436293835254,0.0
562,1436293835276,0.0
563,1436293835291,0.0
564,1436293835320,0.0
565,1436293835332,0.0
566,1436293835352,0.0
567,1436293835376,0.0
568,1436293835392,0.0
569,1436293835413,0.0
570,1436293835432,0.0
571,1436293835455,0.0
572,1436293835472,0.0
573,1436293835495,0.0
574,1436293835515,0.0
575,1436293835533,0.0
576,1436293835555,0.0
577,1436293835574,0.0
578,1436293835593,0.0
579,1436293835615,0.0
580,1436293835632,0.0
581,1436293835652,0.0
582,1436293835672,0.0
583,1436293835692,0.0
584,1436293835716,0.0
585,1436293835738,0.0
586,1436293835757,0.0
587,1436293835775,0.0
588,1436293835792,0.0
589,1436293835812,0.0
590,1436293835833,0.0
591,1436293835856,0.0
592,1436293835873,0.0
593,1436293835946,0.0
594,1436293835947,0.0
595,1436293835948,0.0
596,1436293835955,0.0
597,1436293835974,0.0
598,1436293835994,0.0
599,1436293836012,0.0
600,1436293836040,0.0
601,1436293836054,0.0
602,1436293836074,0.0
603,1436293836094,0.0
604,1436293836113,0.0
605,1436293836133,0.0
606,1436293836155,0.0
607,1436293836176,0.0
608,1436293836195,0.0
609,1436293836216,0.0
610,1436293836236,0.0
611,1436293836255,0.0
612,1436293836276,0.0
613,1436293836296,0.0
614,1436293836315,0.0
615,1436293836344,0.0
616,1436293836353,0.0
617,1436293836378,0.0
618,1436293836393,0.0
619,1436293836415,0.0
620,1436293836435,0.0
621,1436293836457,0.0
622,1436293836476,0.0
623,1436293836496,0.0
624,1436293836516,0.0
625,1436293836536,0.0
626,1436293836555,0.0
627,1436293836574,0.0
628,1436293836593,0.0
629,1436293836663,0.0
630,1436293836664,0.0
631,1436293836665,0.0
632,1436293836683,0.0
633,1436293836709,0.0
634,1436293836713,0.0
635,1436293836760,0.0
636,1436293836761,0.0
637,1436293836818,0.0
638,1436293836819,0.0
639,1436293836820,0.0
640,1436293836833,0.0
641,1436293836854,0.0
642,1436293836873,0.0
643,1436293836893,0.0
644,1436293836914,0.0
645,1436293836936,0.0
646,1436293836954,0.0
647,1436293836976,0.0
648,1436293836997,0.0
649,1436293837016,0.0
650,1436293837036,0.0
651,1436293837058,0.0
652,1436293837076,0.0
653,1436293837095,0.0
654,1436293837116,0.0
655,1436293837136,0.0
656,1436293837154,0.0
657,1436293837175,0.0
658,1436293837194,0.0
659,1436293837219,0.0
660,1436293837238,0.0
661,1436293837261,0.0
662,1436293837277,0.0
663,1436293837294,0.0
664,1436293837313,0.0
665,1436293837336,0.0
666,1436293837466,0.0
667,1436293837467,0.0
668,1436293837468,0.0
669,1436293837469,0.0
670,1436293837470,0.0
671,1436293837471,0.0
672,1436293837498,0.0
673,1436293837499,0.0
674,1436293837514,0.0
675,1436293837541,0.0
676,1436293837554,0.0
677,1436293837577,0.0
678,1436293837596,0.0
679,1436293837615,0.0
680,1436293837640,0.0
681,1436293837657,0.0
682,1436293837677,0.0
683,1436293837697,0.0
684,1436293837717,0.0
685,1436293837737,0.0
686,1436293837758,0.0
687,1436293837776,0.0
688,1436293837797,0.0
689,1436293837819,0.0
690,1436293837834,0.0
691,1436293837857,0.0
692,1436293837876,0.0
693,1436293837897,0.0
694,1436293837917,0.0
695,1436293837937,0.0
696,1436293837958,0.0
697,1436293837978,0.0
698,1436293837997,0.0
699,1436293838018,0.0
700,1436293838038,0.0
701,1436293838058,0.0
702,1436293838079,0.0
703,1436293838101,0.0
704,1436293838167,0.0
705,1436293838168,0.0
706,1436293838169,0.0
707,1436293838176,0.0
708,1436293838194,0.0
709,1436293838221,0.0
710,1436293838236,0.0
711,1436293838256,0.0
712,1436293838277,0.0
713,1436293838295,0.0
714,1436293838317,0.0
715,1436293838337,0.0
716,1436293838357,0.0
717,1436293838378,0.0
718,1436293838396,0.0
719,1436293838417,0.0
720,1436293838437,0.0
721,1436293838457,0.0
722,1436293838477,0.0
723,1436293838496,0.0
724,1436293838518,0.0
725,1436293838537,0.0
726,1436293838557,0.0
727,1436293838578,0.0
728,1436293838598,0.0
729,1436293838617,0.0
730,1436293838637,0.0
731,1436293838658,0.0
732,1436293838677,0.0
733,1436293838700,0.0
734,1436293838718,0.0
735,1436293838738,0.0
736,1436293838758,0.0
737,1436293838778,0.0
738,1436293838796,0.0
739,1436293838824,0.0
740,1436293838896,0.0
741,1436293838897,0.0
742,1436293838898,0.0
743,1436293838899,0.0
744,1436293838916,0.0
745,1436293838937,0.0
746,1436293838956,0.0
747,1436293838975,0.0
748,1436293839011,0.0
749,1436293839020,0.0
750,1436293839036,0.0
751,1436293839067,0.0
752,1436293839078,0.0
753,1436293839095,0.0
754,1436293839116,0.0
755,1436293839139,0.0
756,1436293839158,0.0
757,1436293839179,1.0
758,1436293839198,1.0
759,1436293839216,0.0
760,1436293839238,0.0
761,1436293839258,0.0
762,1436293839280,0.0
763,1436293839296,0.0
764,1436293839318,0.0
765,1436293839337,0.0
766,1436293839358,0.0
767,1436293839385,0.0
768,1436293839401,0.0
769,1436293839418,0.0
770,1436293839438,0.0
771,1436293839458,0.0
772,1436293839477,0.0
773,1436293839497,0.0
774,1436293839518,0.0
775,1436293839538,0.0
776,1436293839556,0.0
777,1436293839637,0.0
778,1436293839638,0.0
779,1436293839639,0.0
780,1436293839640,0.0
781,1436293839657,0.0
782,1436293839679,0.0
783,1436293839696,0.0
784,1436293839721,0.0
785,1436293839737,0.0
786,1436293839757,0.0
787,1436293839778,0.0
788,1436293839797,0.0
789,1436293839819,0.0
790,1436293839837,0.0
791,1436293839860,0.0
792,1436293839879,0.0
793,1436293839899,0.0
794,1436293839919,0.0
795,1436293839939,0.0
796,1436293839960,0.0
797,1436293839979,0.0
798,1436293839999,0.0
799,1436293840018,0.0
800,1436293840039,0.0
801,1436293840060,0.0
802,1436293840078,0.0
803,1436293840098,0.0
804,1436293840118,0.0
805,1436293840140,0.0
806,1436293840161,0.0
807,1436293840193,0.0
808,1436293840196,0.0
809,1436293840216,0.0
810,1436293840236,0.0
811,1436293840258,0.0
812,1436293840276,0.0
813,1436293840296,0.0
814,1436293840338,0.0
815,1436293840352,0.0
816,1436293840369,0.0
817,1436293840406,0.0
818,1436293840407,0.0
819,1436293840418,0.0
820,1436293840437,0.0
821,1436293840458,0.0
822,1436293840477,0.0
823,1436293840501,0.0
824,1436293840517,0.0
825,1436293840538,0.0
826,1436293840559,0.0
827,1436293840578,0.0
828,1436293840600,0.0
829,1436293840620,0.0
830,1436293840642,1.0
831,1436293840661,1.0
832,1436293840680,1.0
833,1436293840700,1.0
834,1436293840720,0.0
835,1436293840740,0.0
836,1436293840761,0.0
837,1436293840780,0.0
838,1436293840798,0.0
839,1436293840820,0.0
840,1436293840840,0.0
841,1436293840860,0.0
842,1436293840879,0.0
843,1436293840900,0.0
844,1436293840919,0.0
845,1436293840940,0.0
846,1436293840960,0.0
847,1436293840980,0.0
848,1436293841037,0.0
849,1436293841038,0.0
850,1436293841039,0.0
851,1436293841070,0.0
852,1436293841138,0.0
853,1436293841139,0.0
854,1436293841140,0.0
855,1436293841141,0.0
856,1436293841159,0.0
857,1436293841179,0.0
858,1436293841197,0.0
859,1436293841217,0.0
860,1436293841251,0.0
861,1436293841259,0.0
862,1436293841278,0.0
863,1436293841299,0.0
864,1436293841321,0.0
865,1436293841337,0.0
866,1436293841360,0.0
867,1436293841378,0.0
868,1436293841399,0.0
869,1436293841418,0.0
870,1436293841441,0.0
871,1436293841461,0.0
872,1436293841481,0.0
873,1436293841500,0.0
874,1436293841519,0.0
875,1436293841539,0.0
876,1436293841562,0.0
877,1436293841579,0.0
878,1436293841601,0.0
879,1436293841621,0.0
880,1436293841642,0.0
881,1436293841661,0.0
882,1436293841682,0.0
883,1436293841701,0.0
884,1436293841720,0.0
885,1436293841739,0.0
886,1436293841760,0.0
887,1436293841778,0.0
888,1436293841847,0.0
889,1436293841848,0.0
890,1436293841849,0.0
891,1436293841859,0.0
892,1436293841878,0.0
893,1436293841898,0.0
894,1436293841918,0.0
895,1436293841938,0.0
896,1436293841961,0.0
897,1436293841979,0.0
898,1436293841998,0.0
899,1436293842020,0.0
900,1436293842040,0.0
901,1436293842060,0.0
902,1436293842080,0.0
903,1436293842100,0.0
904,1436293842121,0.0
905,1436293842141,0.0
906,1436293842161,0.0
907,1436293842179,0.0
908,1436293842201,0.0
909,1436293842221,0.0
910,1436293842241,0.0
911,1436293842263,0.0
912,1436293842278,0.0
