id,attr_time,attr_x,attr_y,attr_z
1,1436988059010,41.304,10.0098,11.4273
2,1436988059029,41.8304,11.2396,11.9308
3,1436988059050,41.8304,11.2396,11.9308
4,1436988059069,40.0772,10.8887,9.24072
5,1436988059090,40.4282,12.6465,10.5865
6,1436988059110,40.4282,12.6465,10.5865
7,1436988059129,40.2527,11.4151,11.4273
8,1436988059150,39.9033,13.1729,11.0901
9,1436988059168,39.9033,13.1729,11.0901
10,1436988059192,41.1285,13.7009,10.9222
11,1436988059207,41.655,13.8763,11.0901
12,1436988059229,41.655,13.8763,11.0901
13,1436988059249,41.304,13.8763,10.4187
14,1436988059269,41.8304,12.6465,12.2681
15,1436988059288,41.8304,12.6465,12.2681
16,1436988059308,42.3553,12.822,12.4359
17,1436988059328,41.4795,12.6465,12.6038
18,1436988059348,41.4795,12.6465,12.6038
19,1436988059368,40.0772,12.294,10.5865
20,1436988059391,41.1285,12.294,11.5952
21,1436988059407,41.1285,12.294,11.5952
22,1436988059427,41.4795,11.5921,10.9222
23,1436988059448,40.2527,12.1185,12.1002
24,1436988059467,40.2527,12.1185,12.1002
25,1436988059488,41.8304,13.3499,12.2681
26,1436988059507,41.1285,11.2396,11.2595
27,1436988059525,41.1285,11.2396,11.2595
28,1436988059547,41.304,8.6029,10.4187
29,1436988059566,40.7791,8.07648,12.2681
30,1436988059588,40.7791,8.07648,12.2681
31,1436988059606,40.2527,11.0641,12.1002
32,1436988059625,40.2527,9.65729,12.1002
33,1436988059646,40.2527,9.65729,12.1002
34,1436988059665,40.9531,8.6029,10.7544
35,1436988059688,40.7791,8.77838,12.941
36,1436988059705,40.7791,8.77838,12.941
37,1436988059725,40.7791,9.13086,11.9308
38,1436988059745,40.7791,9.48181,12.6038
39,1436988059765,40.7791,9.48181,12.6038
40,1436988059787,40.7791,9.48181,11.2595
41,1436988059805,40.7791,8.77838,12.2681
42,1436988059824,40.7791,8.77838,12.2681
43,1436988059844,41.1285,11.2396,12.941
44,1436988059864,40.9531,9.65729,12.7716
45,1436988059884,40.9531,9.65729,12.7716
46,1436988059904,41.8304,9.13086,12.2681
47,1436988059924,40.2527,10.0098,11.763
48,1436988059942,40.2527,10.0098,11.763
49,1436988059963,41.1285,9.83429,12.2681
50,1436988059982,40.4282,9.48181,11.2595
51,1436988060019,40.4282,9.48181,11.2595
52,1436988060020,42.3553,11.4151,12.4359
53,1436988060047,40.6036,12.1185,12.4359
54,1436988060059,40.6036,12.1185,12.4359
55,1436988060083,41.304,13.1729,11.4273
56,1436988060099,40.0772,14.4043,12.6038
57,1436988060118,40.0772,14.4043,12.6038
58,1436988060140,41.8304,12.294,11.2595
59,1436988060164,39.3768,12.294,11.5952
60,1436988060180,39.3768,12.294,11.5952
61,1436988060199,41.655,14.5798,12.4359
62,1436988060219,40.7791,12.294,12.941
63,1436988060240,40.7791,12.294,12.941
64,1436988060259,41.655,13.5254,12.4359
65,1436988060279,40.4282,11.2396,12.941
66,1436988060299,40.4282,11.2396,12.941
67,1436988060320,42.1799,12.294,12.2681
68,1436988060340,41.4795,10.1852,11.9308
69,1436988060362,41.4795,10.1852,11.9308
70,1436988060379,40.4282,12.294,11.9308
71,1436988060399,40.6036,13.5254,12.1002
72,1436988060420,40.6036,13.5254,12.1002
73,1436988060440,40.2527,12.471,11.0901
74,1436988060462,40.4282,12.294,12.941
75,1436988060479,40.4282,12.294,12.941
76,1436988060499,41.655,11.4151,11.4273
77,1436988060519,39.7278,11.9431,11.2595
78,1436988060538,39.7278,11.9431,11.2595
79,1436988060558,40.0772,11.2396,12.941
80,1436988060577,39.5523,12.471,12.7716
81,1436988060598,39.5523,12.471,12.7716
82,1436988060617,41.304,12.1185,10.4187
83,1436988060638,39.3768,11.2396,11.9308
84,1436988060660,39.3768,11.2396,11.9308
85,1436988060677,41.1285,10.8887,11.9308
86,1436988060696,41.304,11.7676,12.4359
87,1436988060716,41.304,11.7676,12.4359
88,1436988060736,40.7791,12.6465,12.941
89,1436988060759,40.7791,10.8887,12.6038
90,1436988060777,40.7791,10.8887,12.6038
91,1436988060796,39.5523,10.7132,13.1088
92,1436988060817,41.1285,11.2396,12.2681
93,1436988060836,41.1285,11.2396,12.2681
94,1436988060858,39.2014,11.7676,12.4359
95,1436988060876,40.0772,11.2396,9.91363
96,1436988060895,40.0772,11.2396,9.91363
97,1436988060916,40.9531,11.7676,12.1002
98,1436988060935,39.5523,11.4151,12.4359
99,1436988060958,39.5523,11.4151,12.4359
100,1436988060975,39.9033,11.7676,12.1002
101,1436988060995,39.9033,10.3607,12.1002
102,1436988061015,39.9033,10.3607,12.1002
103,1436988061034,41.655,10.7132,12.1002
104,1436988061055,40.4282,11.5921,12.2681
105,1436988061073,40.4282,11.5921,12.2681
106,1436988061094,40.7791,12.294,12.6038
107,1436988061115,39.3768,11.2396,11.2595
108,1436988061134,39.3768,11.2396,11.2595
109,1436988061154,39.7278,12.294,10.9222
110,1436988061173,39.7278,12.6465,11.5952
111,1436988061193,39.7278,12.6465,11.5952
112,1436988061213,42.0044,12.471,11.4273
113,1436988061234,40.0772,9.83429,12.2681
114,1436988061255,40.0772,9.83429,12.2681
115,1436988061273,41.4795,11.9431,11.5952
116,1436988061292,39.9033,11.7676,13.1088
117,1436988061313,39.9033,11.7676,13.1088
118,1436988061331,39.9033,11.7676,10.7544
119,1436988061353,40.4282,12.294,10.5865
120,1436988061372,40.4282,12.294,10.5865
121,1436988061391,39.7278,12.294,11.2595
122,1436988061411,39.0259,9.48181,11.9308
123,1436988061431,39.0259,9.48181,11.9308
124,1436988061453,41.4795,11.2396,11.2595
125,1436988061472,41.655,10.3607,12.1002
126,1436988061490,41.655,10.3607,12.1002
127,1436988061511,40.0772,11.9431,12.6038
128,1436988061530,38.501,10.3607,11.4273
129,1436988061551,38.501,10.3607,11.4273
130,1436988061570,40.2527,11.0641,12.4359
131,1436988061591,40.0772,11.5921,10.9222
132,1436988061610,40.0772,11.5921,10.9222
133,1436988061630,41.4795,11.2396,11.2595
134,1436988061651,40.9531,10.0098,10.4187
135,1436988061670,40.9531,10.0098,10.4187
136,1436988061692,39.2014,11.0641,12.7716
137,1436988061710,39.2014,12.1185,11.0901
138,1436988061728,39.2014,12.1185,11.0901
139,1436988061749,40.7791,12.9974,12.2681
140,1436988061769,40.6036,13.1729,12.1002
141,1436988061791,40.6036,13.1729,12.1002
142,1436988061807,39.5523,11.0641,12.7716
143,1436988061829,40.2527,12.471,12.4359
144,1436988061848,40.2527,12.471,12.4359
145,1436988061868,39.5523,13.5254,12.1002
146,1436988061891,38.8519,11.7676,11.763
147,1436988061908,38.8519,11.7676,11.763
148,1436988061928,39.9033,12.1185,11.4273
149,1436988061947,38.8519,11.7676,11.763
150,1436988061967,38.8519,11.7676,11.763
151,1436988061987,40.6036,12.822,11.763
152,1436988062007,39.5523,12.822,12.1002
153,1436988062027,39.5523,12.822,12.1002
154,1436988062047,39.5523,11.7676,12.4359
155,1436988062066,39.9033,12.471,11.763
156,1436988062089,39.9033,12.471,11.763
157,1436988062106,40.6036,12.822,13.4445
158,1436988062126,38.501,14.5798,14.1174
159,1436988062146,38.501,14.5798,14.1174
160,1436988062165,39.9033,14.9307,11.0901
161,1436988062188,40.9531,14.5798,12.1002
162,1436988062205,40.9531,14.5798,12.1002
163,1436988062225,40.2527,15.6342,11.0901
164,1436988062246,40.0772,14.7552,10.9222
165,1436988062263,40.0772,14.7552,10.9222
166,1436988062287,41.1285,15.4587,11.9308
167,1436988062303,41.1285,15.1077,11.9308
168,1436988062324,41.1285,15.1077,11.9308
169,1436988062344,41.655,17.041,11.4273
170,1436988062365,41.8304,15.1077,11.5952
171,1436988062384,41.8304,15.1077,11.5952
172,1436988062403,42.1799,16.5131,8.23212
173,1436988062424,41.4795,16.5131,8.56781
174,1436988062444,41.4795,16.5131,8.56781
175,1436988062463,43.0557,16.6885,7.39136
176,1436988062484,41.304,17.7444,6.38275
177,1436988062503,41.304,17.7444,6.38275
178,1436988062523,42.1799,17.2165,6.5506
179,1436988062544,41.4795,17.2165,4.86908
180,1436988062563,41.4795,17.2165,4.86908
181,1436988062584,41.8304,17.5674,5.20477
182,1436988062603,41.8304,18.9743,4.19617
183,1436988062621,41.8304,18.9743,4.19617
184,1436988062642,42.7063,18.7988,5.03693
185,1436988062662,42.0044,20.9076,5.37262
186,1436988062684,42.0044,20.9076,5.37262
187,1436988062701,40.6036,20.5566,4.70123
188,1436988062721,40.9531,21.962,3.6911
189,1436988062742,40.9531,21.962,3.6911
190,1436988062761,42.3553,21.611,4.02832
191,1436988062784,40.4282,22.8409,4.19617
192,1436988062801,40.4282,22.8409,4.19617
193,1436988062821,41.304,23.0179,4.36401
194,1436988062841,39.5523,21.962,4.70123
195,1436988062860,39.5523,21.962,4.70123
196,1436988062883,39.9033,23.7198,5.37262
197,1436988062900,39.2014,23.3688,4.02832
198,1436988062920,39.2014,23.3688,4.02832
199,1436988062939,40.4282,25.3021,5.20477
200,1436988062960,39.7278,25.3021,5.87769
201,1436988062980,39.7278,25.3021,5.87769
202,1436988062999,38.3255,26.0056,5.54199
203,1436988063022,39.5523,24.7757,5.70984
204,1436988063037,39.5523,24.7757,5.70984
205,1436988063058,39.5523,24.7757,5.03693
206,1436988063078,40.0772,23.1934,6.88629
207,1436988063098,40.0772,23.1934,6.88629
208,1436988063121,39.9033,23.0179,6.38275
209,1436988063138,40.0772,20.7321,6.21338
210,1436988063156,40.0772,20.7321,6.21338
211,1436988063178,39.7278,18.6234,7.22351
212,1436988063198,39.5523,16.6885,8.06427
213,1436988063217,39.5523,16.6885,8.06427
214,1436988063237,40.9531,14.5798,8.39996
215,1436988063258,42.1799,14.4043,10.9222
216,1436988063277,42.1799,14.4043,10.9222
217,1436988063297,40.7791,12.294,10.9222
218,1436988063317,39.5523,10.7132,12.7716
219,1436988063337,39.5523,10.7132,12.7716
220,1436988063355,41.304,11.0641,13.1088
221,1436988063377,41.655,7.89947,13.7817
222,1436988063394,41.655,7.89947,13.7817
223,1436988063418,42.5308,9.13086,14.6225
224,1436988063436,42.1799,7.37305,13.9496
225,1436988063456,42.1799,7.37305,13.9496
226,1436988063476,42.3553,6.49414,15.4633
227,1436988063494,42.1799,7.02057,15.2954
228,1436988063518,42.1799,7.02057,15.2954
229,1436988063535,41.655,7.19757,14.7903
230,1436988063555,43.2312,7.37305,14.6225
231,1436988063575,43.2312,7.37305,14.6225
232,1436988063595,42.8802,7.724,13.6139
233,1436988063617,42.8802,6.31866,14.2853
234,1436988063634,42.8802,6.31866,14.2853
235,1436988063654,42.3553,8.25195,12.7716
236,1436988063675,42.7063,6.84509,13.7817
237,1436988063694,42.7063,6.84509,13.7817
238,1436988063713,42.5308,7.724,12.941
239,1436988063733,43.2312,7.02057,13.6139
240,1436988063753,43.2312,7.02057,13.6139
241,1436988063774,42.8802,6.66962,12.941
242,1436988063793,41.8304,5.61523,16.304
243,1436988063811,41.8304,5.61523,16.304
244,1436988063833,41.1285,3.85742,17.3126
245,1436988063852,41.4795,2.80304,18.6584
246,1436988063873,41.4795,2.80304,18.6584
247,1436988063892,41.1285,4.56085,20.6757
248,1436988063915,39.9033,2.62604,21.5164
249,1436988063932,39.9033,2.62604,21.5164
250,1436988063952,41.4795,3.15399,22.6944
251,1436988063972,40.7791,3.85742,22.0215
252,1436988063991,40.7791,3.85742,22.0215
253,1436988064014,39.2014,2.97852,23.5352
254,1436988064032,40.7791,2.09961,24.0387
255,1436988064050,40.7791,2.09961,24.0387
256,1436988064071,40.0772,3.15399,22.6944
257,1436988064091,38.8519,0.868225,22.1893
258,1436988064113,38.8519,0.868225,22.1893
259,1436988064129,39.3768,1.74713,22.6944
260,1436988064151,39.3768,3.15399,25.0488
261,1436988064169,39.3768,3.15399,25.0488
262,1436988064190,40.2527,3.32947,22.8622
263,1436988064210,40.4282,1.74713,22.3572
264,1436988064230,40.4282,1.74713,22.3572
265,1436988064249,39.5523,2.97852,21.5164
266,1436988064268,39.2014,4.0329,21.8536
267,1436988064289,39.2014,4.0329,21.8536
268,1436988064308,40.4282,6.66962,20.6757
269,1436988064329,41.304,7.54852,20.1721
270,1436988064349,41.304,7.54852,20.1721
271,1436988064368,42.3553,6.84509,17.4805
272,1436988064388,40.2527,10.3607,15.4633
273,1436988064408,40.2527,10.3607,15.4633
274,1436988064428,42.5308,12.6465,13.9496
275,1436988064448,39.7278,11.9431,10.9222
276,1436988064468,39.7278,11.9431,10.9222
277,1436988064489,40.4282,18.9743,8.23212
278,1436988064508,41.4795,20.0287,6.88629
279,1436988064527,41.4795,20.0287,6.88629
280,1436988064548,39.3768,22.139,7.5592
281,1436988064567,39.3768,23.1934,5.20477
282,1436988064585,39.3768,23.1934,5.20477
283,1436988064607,38.501,24.7757,3.6911
284,1436988064626,38.501,26.8845,3.35541
285,1436988064647,38.501,26.8845,3.35541
286,1436988064666,37.8006,26.8845,5.03693
287,1436988064689,38.15,27.5879,3.35541
288,1436988064706,38.15,27.5879,3.35541
289,1436988064725,38.15,27.2354,3.6911
290,1436988064746,37.9761,24.9512,4.53186
291,1436988064765,37.9761,24.9512,4.53186
292,1436988064788,38.501,26.181,3.35541
293,1436988064806,38.8519,24.0723,3.35541
294,1436988064825,38.8519,24.0723,3.35541
295,1436988064845,39.0259,22.8409,4.86908
296,1436988064865,40.0772,21.4355,4.53186
297,1436988064887,40.0772,21.4355,4.53186
298,1436988064903,40.9531,20.9076,6.04553
299,1436988064925,42.3553,18.7988,6.04553
300,1436988064943,42.3553,18.7988,6.04553
301,1436988064964,41.8304,17.2165,6.5506
302,1436988064985,43.9316,14.7552,6.88629
303,1436988065014,43.9316,14.7552,6.88629
304,1436988065025,43.0557,13.1729,8.06427
305,1436988065043,41.8304,12.9974,9.24072
306,1436988065062,41.8304,12.9974,9.24072
307,1436988065083,42.7063,11.7676,10.4187
308,1436988065103,41.4795,8.42743,10.9222
309,1436988065123,41.4795,8.42743,10.9222
310,1436988065143,40.6036,7.54852,13.1088
311,1436988065163,41.8304,8.77838,13.9496
312,1436988065185,41.8304,8.77838,13.9496
313,1436988065201,43.2312,7.37305,13.6139
314,1436988065222,42.3553,8.95538,14.4547
315,1436988065242,42.3553,8.95538,14.4547
316,1436988065260,41.8304,9.13086,13.2767
317,1436988065284,41.655,7.19757,13.4445
318,1436988065301,41.655,7.19757,13.4445
319,1436988065320,41.655,8.25195,14.4547
320,1436988065342,40.4282,7.37305,13.6139
321,1436988065359,40.4282,7.37305,13.6139
322,1436988065380,42.0044,6.14166,15.126
323,1436988065400,40.6036,5.79071,14.7903
324,1436988065420,40.6036,5.79071,14.7903
325,1436988065441,42.5308,5.96619,16.6397
326,1436988065460,41.8304,8.07648,14.2853
327,1436988065482,41.8304,8.07648,14.2853
328,1436988065500,42.1799,7.37305,15.6311
329,1436988065520,41.1285,8.42743,14.9582
330,1436988065539,41.1285,8.42743,14.9582
331,1436988065559,41.4795,7.724,12.941
332,1436988065582,41.304,10.7132,8.73566
333,1436988065599,41.304,10.7132,8.73566
334,1436988065621,41.8304,11.2396,5.54199
335,1436988065639,40.7791,12.6465,2.85034
336,1436988065658,40.7791,12.6465,2.85034
337,1436988065677,39.9033,16.3376,-1.68915
338,1436988065696,40.6036,17.041,-4.3808
339,1436988065719,40.6036,17.041,-4.3808
340,1436988065736,39.2014,18.0954,-8.07953
341,1436988065758,37.4496,18.0954,-12.1155
342,1436988065778,37.4496,18.0954,-12.1155
343,1436988065797,36.5738,18.2709,-13.6291
344,1436988065819,35.347,19.1498,-14.8071
345,1436988065837,35.347,19.1498,-14.8071
346,1436988065856,35.8734,20.7321,-16.3193
347,1436988065877,34.2957,19.5023,-17.1616
348,1436988065896,34.2957,19.5023,-17.1616
349,1436988065919,34.1217,18.9743,-16.6565
350,1436988065937,34.1217,21.0831,-17.6651
351,1436988065956,34.1217,21.0831,-17.6651
352,1436988065976,32.3685,20.0287,-19.0109
353,1436988065996,33.0704,20.0287,-21.701
354,1436988066018,33.0704,20.0287,-21.701
355,1436988066034,32.7194,19.6777,-22.374
356,1436988066055,31.1432,19.5023,-24.2233
357,1436988066076,31.1432,19.5023,-24.2233
358,1436988066095,32.3685,18.2709,-25.0641
359,1436988066118,32.019,20.3812,-23.7198
360,1436988066133,32.019,20.3812,-23.7198
361,1436988066154,31.8436,20.9076,-23.8876
362,1436988066174,29.5654,25.6546,-24.3912
363,1436988066194,29.5654,25.6546,-24.3912
364,1436988066214,28.5156,26.3565,-22.0383
365,1436988066234,28.6896,27.2354,-22.879
366,1436988066254,28.6896,27.2354,-22.879
367,1436988066274,26.9379,28.9932,-22.2061
368,1436988066294,25.5371,30.0491,-19.5145
369,1436988066313,25.5371,30.0491,-19.5145
370,1436988066333,28.1647,29.5212,-19.3466
371,1436988066353,27.8137,32.3334,-18.6737
372,1436988066373,27.8137,32.3334,-18.6737
373,1436988066392,27.8137,30.928,-15.6479
374,1436988066415,26.2375,33.2123,-16.4886
375,1436988066432,26.2375,33.2123,-16.4886
376,1436988066451,27.2888,32.8613,-15.4785
377,1436988066473,25.5371,32.8613,-14.4699
378,1436988066491,25.5371,32.8613,-14.4699
379,1436988066514,29.0405,33.2123,-12.7884
380,1436988066532,29.216,31.279,-12.9562
381,1436988066551,29.216,31.279,-12.9562
382,1436988066572,28.3401,33.5648,-11.1069
383,1436988066590,27.4643,34.0912,-9.25751
384,1436988066613,27.4643,34.0912,-9.25751
385,1436988066630,28.3401,36.0245,-9.76105
386,1436988066651,27.9892,35.6735,-7.40662
387,1436988066671,27.9892,35.6735,-7.40662
388,1436988066689,27.2888,35.3226,-8.07953
389,1436988066712,27.9892,32.8613,-6.73523
390,1436988066730,27.9892,32.8613,-6.73523
391,1436988066750,28.8651,34.7946,-4.21295
392,1436988066770,28.8651,33.7402,-5.22156
393,1436988066789,28.8651,33.7402,-5.22156
394,1436988066811,28.6896,33.9157,-4.71649
395,1436988066886,29.216,31.6299,-3.54004
396,1436988066887,29.216,31.6299,-3.54004
397,1436988066888,30.2673,31.6299,-2.86713
398,1436988066889,31.6681,33.3878,-2.52991
399,1436988066964,31.6681,33.3878,-2.52991
400,1436988066965,32.019,34.0912,-1.5213
401,1436988066966,32.7194,33.0368,-2.52991
402,1436988066999,33.9462,31.4545,-1.68915
403,1436988067061,34.9976,30.4001,-3.03497
404,1436988067062,34.9976,30.4001,-3.03497
405,1436988067063,34.8221,30.928,-3.54004
406,1436988067128,34.1217,30.2246,-5.22156
407,1436988067129,34.1217,30.2246,-5.22156
408,1436988067130,33.9462,30.4001,-3.70789
409,1436988067131,35.347,30.751,-4.71649
410,1436988067758,35.347,30.751,-4.71649
411,1436988067759,33.4198,31.6299,-4.54864
412,1436988067760,32.1945,31.8069,-6.06232
413,1436988067761,32.1945,31.8069,-6.06232
414,1436988067762,34.1217,33.0368,-6.23016
415,1436988067763,31.4926,33.2123,-5.3894
416,1436988067764,31.4926,33.2123,-5.3894
417,1436988067765,31.3187,34.0912,-5.55725
418,1436988067766,31.6681,34.7946,-4.88434
419,1436988067767,31.6681,34.7946,-4.88434
420,1436988067768,28.3401,36.7279,-5.05371
421,1436988067769,27.1133,38.6612,-6.90308
422,1436988067770,27.1133,38.6612,-6.90308
423,1436988067771,25.5371,38.4857,-6.06232
424,1436988067772,25.1862,40.596,-6.39801
425,1436988067773,25.1862,40.596,-6.39801
426,1436988067774,22.5586,40.0681,-8.2489
427,1436988067775,20.2805,40.2435,-11.7798
428,1436988067776,15.5502,39.0137,-19.0109
429,1436988067777,15.5502,39.0137,-19.0109
430,1436988067778,10.1196,39.1891,-22.5418
431,1436988067779,6.96564,34.6191,-25.5692
432,1436988067780,6.96564,34.6191,-25.5692
433,1436988067781,1.35956,36.0245,-28.9322
434,1436988067782,-2.84576,37.7823,-25.2335
435,1436988067783,-2.84576,37.7823,-25.2335
436,1436988067784,-6.34918,37.7823,-24.5605
437,1436988067785,-10.9039,39.5401,-21.8689
438,1436988067786,-10.9039,39.5401,-21.8689
439,1436988067787,-11.9553,38.4857,-21.1975
440,1436988067788,-12.6556,39.5401,-20.5246
441,1436988067789,-12.6556,39.5401,-20.5246
442,1436988067810,-14.7583,39.5401,-19.8517
443,1436988067884,-14.4073,38.1348,-20.8603
444,1436988067885,-14.4073,38.1348,-20.8603
445,1436988067886,-16.3345,37.6068,-19.6838
446,1436988067887,-17.3859,36.5524,-21.701
447,1436988067913,-17.3859,36.5524,-21.701
448,1436988067926,-20.3644,36.7279,-22.5418
449,1436988067941,-20.5399,34.4437,-22.374
450,1436988067961,-20.5399,34.4437,-22.374
451,1436988067982,-21.2402,32.6859,-22.374
452,1436988068001,-21.5912,31.6299,-23.7198
453,1436988068021,-21.5912,31.6299,-23.7198
454,1436988068041,-22.818,33.9157,-22.2061
455,1436988068062,-23.8678,33.5648,-20.1874
456,1436988068080,-23.8678,33.5648,-20.1874
457,1436988068101,-26.1459,30.2246,-19.3466
458,1436988068121,-26.4969,31.6299,-18.338
459,1436988068142,-26.4969,31.6299,-18.338
460,1436988068161,-28.4241,27.2354,-19.1788
461,1436988068180,-29.8248,27.9388,-14.8071
462,1436988068200,-29.8248,27.9388,-14.8071
463,1436988068221,-30.1758,27.9388,-15.8157
464,1436988068240,-34.2056,23.5443,-14.6378
465,1436988068260,-34.2056,23.5443,-14.6378
466,1436988068279,-33.5037,21.7865,-14.975
467,1436988068299,-35.6064,21.7865,-12.6205
468,1436988068320,-35.6064,21.7865,-12.6205
469,1436988068339,-35.0815,19.1498,-12.7884
470,1436988068360,-37.5336,15.6342,-11.4426
471,1436988068379,-37.5336,15.6342,-11.4426
472,1436988068399,-37.0087,15.1077,-10.939
473,1436988068418,-39.6362,14.5798,-11.4426
474,1436988068438,-39.6362,14.5798,-11.4426
475,1436988068459,-37.709,11.2396,-14.975
476,1436988068478,-40.1611,11.2396,-15.6479
477,1436988068498,-40.1611,11.2396,-15.6479
