id,attr_time,attr_db
1,1438345018565,2.58172251999292
2,1438345019250,7.38582582729398
3,1438345019977,4.83436725961134
4,1438345020776,6.16351447132334
5,1438345021514,15.8015246190202
6,1438345022240,24.9523178347023
7,1438345022957,3.4881274126343
8,1438345023712,14.7805293497845
9,1438345024441,3.63339207106952
10,1438345025177,26.097336160357
11,1438345025943,22.0358231507536
12,1438345026677,10.7424728321664
13,1438345027371,49.3413939737807
14,1438345028106,65.4389660550303
15,1438345028838,29.457794398108
16,1438345029661,29.9892109179885
17,1438345030337,27.4336830886136
18,1438345031036,39.3173936453758
19,1438345031699,38.6937167062967
20,1438345032426,34.7487805907928
21,1438345033189,41.8673090802765
22,1438345033913,41.6260054037567
23,1438345034586,37.5296124612443
24,1438345035317,33.5075391511697
25,1438345036071,41.4019642793308
26,1438345036826,56.8160736369477
27,1438345037572,47.3344358763931
28,1438345038294,27.1894403669764
29,1438345039026,57.4942153933462
30,1438345039801,59.6589880474071
31,1438345040560,39.8407840992395
32,1438345041366,35.5407793962512
33,1438345042103,49.4874730952635
34,1438345042808,58.5346401273008
35,1438345043544,62.6745757083958
36,1438345044285,55.5528254063651
37,1438345045038,72.6881424538909
38,1438345045811,20.8013463686479
39,1438345046552,69.3425590494694
40,1438345047274,60.5185531259835
41,1438345047990,37.7591184880908
42,1438345048777,5.26694907936992
43,1438345049521,27.232883112068
44,1438345050187,3.84635919880835
45,1438345050846,4.81193757732659
46,1438345051586,28.2537740652378
47,1438345052325,9.55816718624351
48,1438345053069,1.7865840707136
49,1438345053819,6.20894864809361
50,1438345054489,14.741205681061
51,1438345055235,2.10335568443034
52,1438345055968,6.97135791713175
53,1438345056701,9.08130414603732
54,1438345058114,22.0563200660356
55,1438345058859,6.43183542053001
56,1438345059603,57.657455114395
57,1438345061090,13.152082141981
58,1438345061822,49.1258377127186
59,1438345062584,42.8261978880074
60,1438345063323,56.5934427819094
61,1438345064076,7.29853867100641
62,1438345064879,25.9832649463225
63,1438345065599,52.3289129130074
64,1438345066270,36.3119233469273
65,1438345067017,35.6361328898661
66,1438345067800,3.66342520438071
67,1438345068530,18.1567574329189
68,1438345069264,16.3168049250011
69,1438345069990,11.1215586345901
70,1438345070612,11.4997310803415
71,1438345071312,20.5123074544542
72,1438345072059,44.366877345282
73,1438345072804,36.3100038065794
74,1438345073587,36.4039850219714
75,1438345074289,46.3755959113148
76,1438345075042,23.6848299406436
77,1438345075788,41.6150531799815
78,1438345076508,54.8618468050114
79,1438345077242,55.1941330292682
80,1438345077969,49.7449912887427
81,1438345078748,58.9691882344007
82,1438345079473,18.3997069543833
83,1438345080255,56.1623648070442
84,1438345080962,5.26911540676314
85,1438345081643,34.4866799953007
86,1438345082367,47.0539348651262
87,1438345083111,49.9623179182651
88,1438345083844,34.3938670167724
89,1438345084608,44.4263601641163
90,1438345085251,4.31975841076508
91,1438345085936,58.9695082864607
92,1438345086699,56.9385378774891
93,1438345087446,18.488343290944
94,1438345088193,55.0201969794623
95,1438345088930,64.8286073769174
96,1438345089621,47.4558872725325
97,1438345090946,45.8498723300441
98,1438345091683,37.3164515846603
99,1438345092431,39.1035861439531
100,1438345093094,43.8551951231915
101,1438345093808,44.7592657489677
102,1438345094504,43.3130262567779
103,1438345095149,2.98808203323319
104,1438345095875,9.72205918049981
105,1438345096619,6.60613318569847
106,1438345097290,3.65470505628845
107,1438345098783,11.0073919119751
108,1438345099517,22.0939008382097
109,1438345100259,18.2294742521615
110,1438345101002,20.9386244005854
111,1438345101748,26.1924968153213
112,1438345102464,27.9437855852959
113,1438345103186,21.2815519150885
114,1438345103914,31.6393834782369
115,1438345106061,27.9214839409519
116,1438345106805,26.3054118106396
117,1438345107569,29.2716554313158
118,1438345108312,33.5003080004294
119,1438345108988,27.3011597702128
120,1438345110387,30.1218045485039
121,1438345111054,21.6715435366015
122,1438345111801,41.228886435578
123,1438345112532,53.047387009026
124,1438345113262,55.6499692095597
125,1438345113944,39.1413125962448
126,1438345114506,61.7830832663122
127,1438345115182,4.44330773789713
128,1438345115925,49.7266559980363
129,1438345116708,58.559686640721
130,1438345117465,55.2639893053605
131,1438345118189,38.7832435937237
132,1438345118942,37.1417381599005
133,1438345119704,62.8888416967055
134,1438345120427,60.5468182545858
135,1438345121186,18.9715558875521
136,1438345121924,36.9799698531463
137,1438345122706,31.175929068561
138,1438345123445,49.5009434914262
139,1438345124186,35.3691683608991
140,1438345124943,55.9534530678736
141,1438345125688,36.7570773722346
142,1438345126416,47.6118973301095
143,1438345127137,38.8524244873847
144,1438345127854,52.4943339741141
145,1438345128595,25.0261969998345
146,1438345129331,63.0305170884775
147,1438345130180,25.1378870786386
148,1438345130827,27.6875661665252
149,1438345131482,17.112698746202
150,1438345132098,16.2660295368351
151,1438345132673,35.434223301759
152,1438345133251,41.2465493944964
153,1438345133812,18.4869044910101
154,1438345134383,20.5651187166168
155,1438345135075,15.561584927186
156,1438345136040,11.543592663254
157,1438345136594,16.2745938340731
158,1438345137144,27.096795740524
159,1438345137686,10.9773056690846
160,1438345138987,6.97767811595721
161,1438345139753,8.50487947311821
162,1438345140521,1.51653466264066
163,1438345141260,4.33411356158692
164,1438345142051,3.23577567042992
165,1438345142746,2.6531277694221
166,1438345143317,3.48515838521245
167,1438345143866,7.49129864032859
168,1438345144416,2.91083547001498
169,1438345145045,1.84998500650374
170,1438345145837,5.49031934851782
171,1438345146516,8.72322006525883
172,1438345147066,7.05897557873184
173,1438345147613,10.8117908057903
174,1438345148156,22.9343786733263
175,1438345148705,15.6707953731144
176,1438345149722,15.8455836399374
177,1438345150605,45.7502195354088
178,1438345151259,37.1230344864484
179,1438345151974,21.473824781826
180,1438345152648,21.2151746819558
181,1438345153283,25.6739902242443
182,1438345153856,32.2184138235666
183,1438345154410,53.2523277137767
184,1438345154963,38.5309820213434
185,1438345155535,42.766781010049
186,1438345156103,41.0075675109697
187,1438345156786,21.5588931605892
188,1438345157490,47.2618592988659
189,1438345158066,43.0094413984525
190,1438345158615,43.5010677919917
191,1438345159162,44.1773573461985
192,1438345159718,47.7665359230377
193,1438345160263,19.2373098379375
194,1438345161586,25.4773624397244
195,1438345162215,31.1977307010287
196,1438345162908,58.8307812261969
197,1438345163647,28.2963431129754
198,1438345164301,29.695908097124
199,1438345165038,34.9063855172166
200,1438345165802,27.723936429779
201,1438345166546,31.3459531365608
202,1438345167307,20.7662583698942
203,1438345168054,33.2398679272247
204,1438345168801,30.1659063704174
205,1438345169537,33.2545983880006
206,1438345170282,57.1134278097402
207,1438345171072,47.156264694754
208,1438345171702,23.3907812318587
209,1438345172443,16.9714896269706
210,1438345173193,6.23164773937081
211,1438345173918,10.5043764796032
212,1438345174662,5.04502971896884
213,1438345175298,9.5809173073449
214,1438345175957,7.48743352083526
215,1438345176727,11.2554384583412
216,1438345177465,13.3067046193383
217,1438345178192,19.8014246161977
218,1438345178955,8.45392997875093
219,1438345179727,27.6298593622181
220,1438345180501,9.57092250377338
221,1438345181145,17.4620585756318
222,1438345181850,7.10608416393589
223,1438345182589,20.5197307634778
224,1438345183297,31.555031232577
225,1438345183992,3.73397088872533
226,1438345184621,1.37829477431406
227,1438345185321,1.31254207849771
228,1438345186088,6.32967823561734
229,1438345186756,21.3034343653366
230,1438345187474,2.98808203323319
231,1438345188200,7.77599969800495
232,1438345188929,45.8711625647647
233,1438345189707,32.0600358821257
234,1438345190426,2.65032993089314
235,1438345191223,8.55002014408456
236,1438345191883,5.60927707081497
237,1438345192663,57.0061435493893
238,1438345193402,8.63503768715773
239,1438345194149,7.69485534919142
240,1438345195512,3.87871752652828
241,1438345196121,47.4906230249892
242,1438345196786,44.5483156963322
243,1438345197523,46.273251027166
244,1438345198250,48.3384554308715
245,1438345198988,23.8464432548558
246,1438345199770,16.4241606914022
247,1438345200496,41.4633510761523
248,1438345201307,41.265032573931
249,1438345202057,24.387425176483
250,1438345202800,17.0401984943493
251,1438345203534,21.7709944560659
252,1438345204270,18.3002374229745
253,1438345205006,31.7888512604776
254,1438345205802,36.2399602454016
255,1438345206522,31.0506966333614
256,1438345207250,36.7170440346949
257,1438345208006,9.34957776358016
258,1438345208779,4.22430234986537
259,1438345209495,55.4748752723325
260,1438345210225,20.0692143233315
261,1438345210979,9.86035760700778
262,1438345211758,15.0423584261777
263,1438345212476,21.7807110970405
264,1438345213175,20.2080088942678
265,1438345213847,22.6812384776154
266,1438345214477,28.6285240838243
267,1438345215187,30.9827093339612
268,1438345215919,34.5741533960097
269,1438345216585,39.324327860282
270,1438345217327,44.4293090647044
271,1438345218069,38.01447512965
272,1438345218833,33.4708797675236
273,1438345219586,36.9244436244741
274,1438345220316,35.8948828325668
275,1438345221071,23.0508552151162
276,1438345221828,17.2177863737221
277,1438345222586,13.6410126925889
278,1438345223323,8.31343982132857
279,1438345224064,8.92776769309243
280,1438345224874,9.09471582557152
281,1438345225621,13.3731437246618
282,1438345226290,16.3162358693974
283,1438345227037,13.8601956599413
284,1438345227801,24.5063121369951
285,1438345228539,18.7767272490998
286,1438345229273,10.8707289989833
287,1438345230064,15.482285478987
288,1438345230803,21.4967313325507
289,1438345231561,18.7569483731091
290,1438345232258,18.6220342256094
291,1438345232977,18.2672660016503
292,1438345233741,18.9609890270997
293,1438345234488,16.566321819726
294,1438345235198,15.5696650151695
295,1438345235942,11.108158290645
296,1438345236604,16.8738528632407
297,1438345237332,13.0557691927261
298,1438345238081,19.9549173662185
299,1438345238833,15.1917316830896
300,1438345239575,18.3669192323264
301,1438345240299,39.8208547527837
302,1438345241041,16.8928382221367
303,1438345241803,9.6749420974005
304,1438345242532,4.2754528261685
305,1438345243263,5.49170934106154
306,1438345244008,17.9805727803629
307,1438345244774,17.1567771777953
308,1438345245568,22.2244848036313
309,1438345246302,22.0328891930736
310,1438345247061,23.5401812746673
311,1438345247822,15.0278973723464
312,1438345248541,14.115043293721
313,1438345249276,11.0342345285408
314,1438345249988,15.277088260478
315,1438345250868,20.5428486262279
316,1438345251561,19.9045705940723
317,1438345252254,22.8507387898928
318,1438345253008,16.4820738225391
319,1438345253763,12.303843765634
320,1438345254497,16.1189847689848
321,1438345255213,33.9301336720714
322,1438345255913,23.5922767158691
323,1438345256512,22.5939859404638
324,1438345257180,22.9634965110353
325,1438345257919,18.7357998715906
326,1438345258686,10.6298237476961
327,1438345259402,19.1783423689467
328,1438345260215,9.01857138130318
329,1438345260975,12.7415659080376
330,1438345261749,18.0213925191452
331,1438345262399,13.4565346981052
332,1438345263101,13.9577880103484
333,1438345263869,6.99928423982018
334,1438345264602,6.31570669555357
335,1438345265280,9.57948226353671
336,1438345266045,12.4374919874981
337,1438345266799,7.43327160438568
338,1438345267492,6.92516214759975
339,1438345268142,2.03127319905384
340,1438345268894,26.7879533933455
341,1438345269648,19.5381404869875
342,1438345270462,34.9021577719643
343,1438345271151,38.5811649278779
344,1438345271795,40.8282248833338
345,1438345272391,53.1143779077448
346,1438345273066,16.6967560354864
347,1438345273752,26.2018171502164
348,1438345274443,59.1188711865044
349,1438345275096,18.0780838278554
350,1438345275847,27.4484032580798
351,1438345276581,24.2860444541691
352,1438345277211,36.6670295234589
353,1438345277922,27.510680372263
354,1438345278666,56.0398833398135
355,1438345279374,21.8988604715821
356,1438345280114,3.79473818258342
357,1438345280920,5.09275541789843
358,1438345281664,31.7158959833468
359,1438345282340,42.4345046267446
360,1438345283079,15.4592853716199
361,1438345283841,43.1466741578411
362,1438345284565,30.4575712523931
363,1438345285312,43.5368539901138
364,1438345286068,16.2702729933842
365,1438345286823,20.8098838382294
366,1438345287571,15.0863062205782
367,1438345288304,21.6405326356919
368,1438345289056,10.4352420937831
369,1438345289796,31.5507516891642
370,1438345290535,40.8556895960923
371,1438345291267,34.7027350654302
372,1438345292039,4.82682087369958
373,1438345292774,6.96014163246614
374,1438345293505,8.84819905079886
375,1438345295508,49.6247858469263
376,1438345296154,60.5513566280426
377,1438345296839,65.5324161368694
378,1438345297612,66.5718495748251
379,1438345298893,21.9939082084056
380,1438345299552,64.5943077221417
381,1438345300323,70.7758056873759
382,1438345301105,15.5111598008282
383,1438345301846,56.2665299865074
384,1438345302566,62.5527484908792
385,1438345303307,68.396838746231
386,1438345304061,17.5153313334797
387,1438345304794,58.4202884437612
388,1438345305395,65.1466701912512
389,1438345307144,8.41471679070818
390,1438345307813,8.82658627897985
391,1438345308564,13.3450310584332
392,1438345309284,12.659077279932
393,1438345310027,12.8474958717565
394,1438345310780,3.78481145048803
395,1438345311529,3.45038962840161
396,1438345312254,2.64790945166943
397,1438345312976,3.03643303480087
398,1438345313739,7.11664694168939
399,1438345314435,8.74367444842618
400,1438345315171,15.8656967980935
401,1438345315910,17.0202247971411
402,1438345316655,19.1085881161904
403,1438345317319,23.4386073076907
404,1438345318063,20.1204159226176
405,1438345318794,35.8677767654308
406,1438345319515,31.410278208334
407,1438345320243,59.6036443622318
408,1438345322508,7.34751474228086
409,1438345323234,12.0812250085927
410,1438345323984,11.1340757517871
411,1438345324743,9.94305897008906
412,1438345325527,9.67853509706171
413,1438345326287,25.9863733055206
414,1438345327027,42.5614852067188
415,1438345327806,53.1599114228075
416,1438345328534,10.7813381997168
417,1438345329215,10.2137372381806
418,1438345330640,10.4316539385775
419,1438345331271,16.9857489818661
420,1438345332041,15.8777412484739
421,1438345332894,31.8819999994833
422,1438345333464,31.6103031731005
423,1438345334125,30.8016500951614
424,1438345334837,19.119028934402
425,1438345335637,6.85838505268162
426,1438345336371,12.2068537379954
427,1438345337096,15.4877285615163
428,1438345337793,8.55759982234154
429,1438345338487,12.5896090246927
430,1438345339157,12.8202301333244
431,1438345339903,15.3101316819454
432,1438345340756,11.7173044299545
433,1438345341474,9.37747940163522
434,1438345342199,8.25618656871766
435,1438345342934,19.3825350004403
436,1438345343699,8.121797880735
437,1438345344415,12.6025699693945
438,1438345345169,7.21351805550561
439,1438345345920,13.185352377478
440,1438345346693,6.56536207632361
441,1438345347432,3.33604073762061
442,1438345348171,15.9585739136512
443,1438345348927,19.2463491660903
444,1438345349678,33.0393662844486
445,1438345350407,8.62645620484791
446,1438345351125,17.158973051867
447,1438345351800,9.0081924765266
448,1438345352533,9.11449488092284
449,1438345353256,17.8966451173592
450,1438345353979,23.4996308155959
451,1438345354778,16.3173333105794
452,1438345355511,6.58878764839351
453,1438345356308,3.88353462746188
454,1438345357062,2.28455421664694
455,1438345357802,2.65469689410129
456,1438345358539,1.67956970303158
457,1438345359262,3.98587121684719
458,1438345360086,5.16884586141706
459,1438345360808,7.9145801676378
460,1438345361556,13.3106261343679
461,1438345362299,8.8729401570352
462,1438345362991,12.3337005422246
463,1438345363621,13.5526216108397
464,1438345364310,13.9637452976618
465,1438345365054,9.75918780627769
466,1438345365856,11.887333526638
467,1438345366566,9.65377859017817
468,1438345367226,7.26941711276417
469,1438345367949,7.71760241621835
470,1438345368698,4.7248688515637
471,1438345369429,8.69718515737991
472,1438345370171,8.11800160023835
473,1438345370903,17.8704015898434
474,1438345371655,15.5397108502784
475,1438345372390,19.3965217937859
476,1438345373114,13.6201082824809
477,1438345373779,17.3571664718999
478,1438345374508,27.0053013591842
479,1438345375239,22.9289877679565
480,1438345375973,11.9956352296791
481,1438345376780,10.854302377082
482,1438345377464,12.733299754644
483,1438345378048,15.4184960896129
484,1438345378705,15.4437705213649
485,1438345379446,12.2141876305797
486,1438345380216,14.289212687568
487,1438345380949,14.1006507063917
488,1438345381737,12.0465814533399
489,1438345382489,18.9202989416423
490,1438345383234,15.0644143977525
491,1438345383967,13.5298631714662
492,1438345384739,8.20895597701875
493,1438345385561,9.54474350594102
494,1438345386273,9.15049553973988
495,1438345387018,14.9350889866233
496,1438345387807,12.167772507099
497,1438345388527,10.2880694934128
498,1438345389257,13.3147867180504
499,1438345390076,7.13221232224003
500,1438345390844,15.3052753317599
501,1438345391590,7.84863955460472
502,1438345392329,10.1964072111324
503,1438345393117,13.7913247908037
504,1438345393801,12.3220616409166
505,1438345394445,12.8907715329259
506,1438345395188,7.12007628297311
507,1438345395918,12.7841373234539
508,1438345396653,18.9859952525785
509,1438345397373,20.945007167823
510,1438345398052,14.0559550495865
511,1438345398672,9.16069247993924
512,1438345399389,7.61140411648601
513,1438345400123,9.16191932217198
514,1438345400861,9.28678503122957
515,1438345401612,12.5648484474053
516,1438345402351,18.0743215653799
517,1438345403124,16.6122466763301
518,1438345403891,10.7848559302047
519,1438345404438,11.9154175494383
520,1438345404999,15.212019844177
521,1438345405569,11.3943680517793
522,1438345406162,3.74196710529749
523,1438345406803,23.5881567944773
524,1438345407548,4.05765583731607
525,1438345408265,17.5271466078152
526,1438345408999,0.234921981185641
527,1438345409612,2.92889345913477
528,1438345410184,2.28455421664694
529,1438345410742,5.89927749867584
530,1438345411314,0.482047885986819
531,1438345411863,3.07472504232041
532,1438345413146,2.50818703445611
533,1438345413807,17.1931023281473
534,1438345414532,13.1480384570878
535,1438345415259,6.13946867181648
536,1438345415870,14.947015518181
537,1438345416443,6.08487813228294
538,1438345417063,8.31273431106233
539,1438345417639,46.922336047824
540,1438345418279,9.13771461856809
541,1438345419060,21.5357095363639
542,1438345419770,13.5743695633574
543,1438345420325,12.9443016377336
544,1438345420883,9.24902400507511
545,1438345421433,7.50514542701569
546,1438345422002,8.68501120056698
547,1438345422572,8.21611911392112
548,1438345424242,15.4075578362788
549,1438345424922,14.1238085147501
550,1438345425579,12.934548445743
551,1438345426187,10.3851930254376
552,1438345426847,18.2350284821097
553,1438345427466,21.3988288019344
554,1438345428012,19.9849321417201
555,1438345428578,11.7432656148891
556,1438345429153,13.7410221575305
557,1438345429725,16.8929225219029
558,1438345430467,7.00309058517265
559,1438345431225,15.2490391655442
560,1438345431772,16.5586787376997
561,1438345432333,17.3859426444515
562,1438345432888,26.6155459414415
563,1438345433458,13.8437685673076
564,1438345434543,8.6195563469384
565,1438345435285,15.8379135834408
566,1438345436101,10.1120127284801
567,1438345436842,8.44923617175312
568,1438345437593,3.74274894873274
569,1438345438247,6.84782790809655
570,1438345438893,6.73552742254059
571,1438345439645,7.1220301441079
572,1438345440386,8.6912572338343
573,1438345441186,0.519730763477847
574,1438345441914,0.218455834760329
575,1438345444111,2.51846011624273
