id,attr_time,attr_db
1,1438345018729,2.68065834599817
2,1438345019456,10.5555165675244
3,1438345020181,3.0236314265321
4,1438345020916,4.2873994206825
5,1438345022368,0.7790303067652
6,1438345023114,2.54522713168798
7,1438345024580,1.43488057469135
8,1438345025304,32.7021346423477
9,1438345026065,24.7150812733928
10,1438345026810,37.2690580184052
11,1438345027499,45.0261636162461
12,1438345028225,64.8784720782224
13,1438345028905,62.5126629740771
14,1438345029626,58.6429035848484
15,1438345030341,48.9054218738522
16,1438345031074,50.7193037337182
17,1438345031821,44.0471237651889
18,1438345032452,44.8421902524995
19,1438345033114,46.9978797794143
20,1438345033826,65.3938992333035
21,1438345034561,35.2343818070863
22,1438345035293,37.2681240893169
23,1438345036013,42.0097454798697
24,1438345036762,44.4921941543611
25,1438345037460,58.3632720175296
26,1438345038212,38.335364360425
27,1438345038901,43.488820039694
28,1438345039657,46.0847283216302
29,1438345040394,42.7279535736319
30,1438345041129,41.107480157157
31,1438345041874,38.4088005178312
32,1438345042602,45.0342132956642
33,1438345043264,48.49152681996
34,1438345043995,47.053089417043
35,1438345044725,51.1137964600292
36,1438345045450,55.5418733582211
37,1438345046174,3.2778050389312
38,1438345046933,43.5266354864035
39,1438345047653,16.7081275310871
40,1438345048363,10.7961362601724
41,1438345049063,1.52728452742625
42,1438345049725,21.8553424123806
43,1438345050464,0.561190935935153
44,1438345051205,3.37606004587056
45,1438345051987,0.891835653819054
46,1438345053419,0.746004070633405
47,1438345054101,22.564945391321
48,1438345056281,1.14289040328558
49,1438345057039,1.52728452742625
50,1438345058469,25.8368687680525
51,1438345059083,33.1817358965679
52,1438345059749,32.5179411545368
53,1438345060497,0.685632744095496
54,1438345061236,1.14289040328558
55,1438345061958,48.0952176921768
56,1438345062718,14.3855881923644
57,1438345063452,28.7888671204556
58,1438345064197,2.82759913751924
59,1438345064952,0.657970651804447
60,1438345065598,31.9898489574612
61,1438345066324,2.6531277694221
62,1438345067060,33.5838188632397
63,1438345067811,0.607026871526848
64,1438345069217,1.43488057469135
65,1438345069865,4.46776959087317
66,1438345070573,1.63007732047447
67,1438345071305,9.75607811474419
68,1438345072080,41.8612053102938
69,1438345072790,33.5300902392125
70,1438345073441,39.8158628960629
71,1438345074165,47.8903281595398
72,1438345074915,41.4904614525515
73,1438345075650,30.9039578490656
74,1438345076365,46.6897335665875
75,1438345077095,30.2401657193663
76,1438345077816,30.3010813522872
77,1438345078544,44.3966594663108
78,1438345079269,41.0372341740927
79,1438345080034,34.5978512606788
80,1438345080839,27.2872819166594
81,1438345081606,32.0134170943917
82,1438345082344,49.1802750227975
83,1438345083051,40.5179617477979
84,1438345083859,41.3136378981426
85,1438345084542,41.6191282477283
86,1438345085949,43.6217654414207
87,1438345086660,42.739437919716
88,1438345087402,0.0779801642210781
89,1438345088225,32.5063303627941
90,1438345088947,48.4386771562104
91,1438345089632,37.5409659739581
92,1438345090299,38.7570407438189
93,1438345090990,40.0660361124824
94,1438345091583,36.0680844828733
95,1438345092318,37.7693635865132
96,1438345093055,39.4019188947728
97,1438345093713,46.1419577109033
98,1438345094430,46.3465162930707
99,1438345095119,1.65203912645552
100,1438345095786,1.33172152794241
101,1438345096517,2.47546057477155
102,1438345097273,5.38874175172746
103,1438345098098,4.86251238117465
104,1438345098794,15.5281489322477
105,1438345099509,23.8664704940141
106,1438345100191,13.9557157893545
107,1438345100873,18.6476626212695
108,1438345101582,16.8836159118756
109,1438345102404,16.2731903294273
110,1438345103135,14.4942970309193
111,1438345103845,21.3684193167729
112,1438345104565,27.1266082945676
113,1438345105318,16.6966306536467
114,1438345106037,19.8913755361888
115,1438345106763,19.6025957421814
116,1438345107563,28.9302728151187
117,1438345108271,34.0880893106046
118,1438345108992,30.9761672078944
119,1438345109709,16.1441148976447
120,1438345110399,17.1413243287337
121,1438345111142,14.8720449158096
122,1438345111865,40.2492225595443
123,1438345112605,44.9461793582449
124,1438345113292,39.4559280636764
125,1438345113983,39.5278899647772
126,1438345114704,44.2631155994048
127,1438345115364,9.93169239159662
128,1438345116094,36.989873918039
129,1438345116818,43.531695628137
130,1438345117511,25.7905683762884
131,1438345118187,33.2470568602953
132,1438345118938,35.0561731273514
133,1438345119688,45.6503360036637
134,1438345120389,40.8672126848663
135,1438345121085,10.9798402152473
136,1438345121824,39.1393515157215
137,1438345122587,21.9343940596374
138,1438345123315,39.5905391912948
139,1438345124070,30.6179335511342
140,1438345124829,46.2670285405878
141,1438345125577,37.9954836384801
142,1438345126288,40.0989639470313
143,1438345126966,40.6634083115174
144,1438345127713,34.5198332559262
145,1438345128459,19.1472159864998
146,1438345129186,45.7821127840287
147,1438345129907,21.6510987521807
148,1438345130611,40.9768302632998
149,1438345131256,10.5289848050379
150,1438345131984,42.5824876494732
151,1438345132733,35.9306884840049
152,1438345133435,33.7975579013824
153,1438345134116,25.5913561070731
154,1438345134876,13.9637380218287
155,1438345135547,17.8986349220763
156,1438345136288,2.09893088064741
157,1438345136998,10.1143665603697
158,1438345137707,4.85743736517397
159,1438345138440,0.115663041712107
160,1438345139156,2.79709171656025
161,1438345139878,2.09403355889043
162,1438345140585,2.88589391766358
163,1438345141297,0.814195899891974
164,1438345142023,2.10335568443034
165,1438345142772,4.12885205264047
166,1438345143496,1.29645709308972
167,1438345144229,1.66696013444188
168,1438345144967,2.19065179247934
169,1438345145726,0.234921981185641
170,1438345146412,5.01213599904713
171,1438345147066,2.4657455897424
172,1438345147868,3.43559278093775
173,1438345148610,5.96425951975338
174,1438345149337,9.13166120093043
175,1438345150077,28.3216045991949
176,1438345150802,37.9535338322518
177,1438345151510,42.5886214032118
178,1438345152246,29.1012809760454
179,1438345152974,8.25973121563834
180,1438345153692,38.1872065628781
181,1438345154329,39.5982532033409
182,1438345155079,39.6437743089308
183,1438345155820,21.2528009978158
184,1438345156544,41.3041813522596
185,1438345157265,41.1231579171987
186,1438345158001,46.9030383940859
187,1438345158642,41.0094665124614
188,1438345159335,46.2560760800049
189,1438345160084,41.5484776784062
190,1438345160816,31.7519205743266
191,1438345161537,16.6125574575814
192,1438345162252,28.4024667490348
193,1438345162979,43.6543620339305
194,1438345163751,21.4447525975762
195,1438345164485,22.1831174074719
196,1438345165226,33.6867502920478
197,1438345165953,23.595478791409
198,1438345166711,37.4151767390525
199,1438345167461,18.9927285309085
200,1438345168198,12.5733314604103
201,1438345168913,31.3444567829662
202,1438345169601,24.0247924013215
203,1438345170335,31.8642653824806
204,1438345171094,22.0192010780861
205,1438345171823,12.3787487113244
206,1438345172557,12.7382839759233
207,1438345173292,6.25707004341118
208,1438345173951,3.73131262102652
209,1438345174606,1.01379837219008
210,1438345175328,6.1522037465479
211,1438345176074,8.28417619386381
212,1438345176866,4.4082708939356
213,1438345177607,6.17441226208349
214,1438345178286,4.56542080255393
215,1438345178958,5.32711876824391
216,1438345179675,14.0728769359407
217,1438345180387,5.68404523089709
218,1438345181128,12.3753873407237
219,1438345181856,1.27550198126584
220,1438345182579,0.657970651804447
221,1438345183304,0.891835653819054
222,1438345183974,14.117913807461
223,1438345184735,0.416120513402239
224,1438345186124,4.52373321655562
225,1438345188208,1.43488057469135
226,1438345188950,39.2696382251003
227,1438345189665,29.9561640368204
228,1438345190364,2.20888031887176
229,1438345191840,0.447648278101341
230,1438345192623,40.6004820407058
231,1438345196202,40.2626676516958
232,1438345197495,51.7164563988408
233,1438345198231,39.6377784640457
234,1438345198894,41.1444137029812
235,1438345199629,0.447648278101341
236,1438345200329,43.7013122618322
237,1438345200987,5.53520776696687
238,1438345201755,10.1759333572801
239,1438345202478,8.81315853695587
240,1438345203219,17.4526264552058
241,1438345203946,3.79948976346672
242,1438345204727,38.1086788435612
243,1438345205449,38.3953108606989
244,1438345207169,37.3447549005735
245,1438345207865,21.4044937944168
246,1438345208602,1.77364901301694
247,1438345209300,34.6527061690867
248,1438345210030,10.1793517876591
249,1438345210753,3.83929558526802
250,1438345211425,10.2780221182256
251,1438345212146,16.3106833759283
252,1438345212887,14.2684477129525
253,1438345213661,16.6672112453707
254,1438345214355,18.3527948915159
255,1438345214933,24.3391510126328
256,1438345215609,28.0118943249338
257,1438345216348,34.6811260460972
258,1438345217075,37.5037966207754
259,1438345217950,35.1421395065337
260,1438345218641,25.09243094367
261,1438345219337,21.3952009879603
262,1438345220078,22.9753760736039
263,1438345220759,21.0230732330765
264,1438345222557,6.15800486781601
265,1438345223203,14.1142693304028
266,1438345223938,6.08789796745265
267,1438345224707,1.99607972860796
268,1438345225446,3.66229881246627
269,1438345226206,6.4481718319504
270,1438345226947,11.5478088863871
271,1438345227673,14.1605106308676
272,1438345228405,14.8858122616156
273,1438345229147,6.719427529816
274,1438345231134,17.409779484678
275,1438345231826,15.2245036584007
276,1438345232564,9.88914966464986
277,1438345233286,15.0441065937281
278,1438345234012,11.9053330062122
279,1438345234783,13.1821645254498
280,1438345235499,5.97826902220671
281,1438345236228,5.29737254178058
282,1438345236945,1.52728452742625
283,1438345237564,1.70528029794061
284,1438345238255,30.250544201878
285,1438345238989,5.16753867077572
286,1438345239637,4.90245267724594
287,1438345240364,5.6595678375794
288,1438345241124,0.626745131159869
289,1438345241814,1.58123432595087
290,1438345242495,1.67775844462901
291,1438345243214,2.45793102363898
292,1438345243962,22.9155863533775
293,1438345244748,6.3392720177179
294,1438345245486,9.96345150436085
295,1438345246215,7.96092055731905
296,1438345246928,6.54033067675747
297,1438345247664,7.68605768853103
298,1438345248317,6.68703222151369
299,1438345249047,7.83960615541301
300,1438345249777,7.01578560535287
301,1438345250510,17.2566638644183
302,1438345251254,13.1709834073215
303,1438345251979,21.9483118685587
304,1438345252761,12.2509492486959
305,1438345253487,12.3578975027234
306,1438345254231,14.1105115800603
307,1438345254973,11.9661177615904
308,1438345255740,24.0298298339477
309,1438345256460,21.743911851642
310,1438345257202,14.3168602151083
311,1438345257924,23.2979717703609
312,1438345258639,7.34890381786963
313,1438345259355,9.9109648297306
314,1438345260030,3.01608299119694
315,1438345260765,6.40361907999064
316,1438345261482,7.15637947733215
317,1438345262181,8.98027837781821
318,1438345262814,5.08778443955723
319,1438345263498,7.0414002121996
320,1438345264213,1.80364310658277
321,1438345264933,3.84920167273965
322,1438345265698,11.9018827589143
323,1438345266436,7.42876287343196
324,1438345267180,2.04466701764936
325,1438345268635,27.7634628751161
326,1438345269283,40.0357781027459
327,1438345269979,2.32701078820871
328,1438345270709,35.4614114001798
329,1438345271435,39.6449560586155
330,1438345272145,25.5592290740489
331,1438345272817,32.2760661373514
332,1438345273570,6.46959348521747
333,1438345274291,38.6432901731492
334,1438345275038,12.4205576894021
335,1438345275626,38.9578578192088
336,1438345276364,13.7923368019945
337,1438345277056,30.5795184173236
338,1438345277660,34.8011332911355
339,1438345278326,22.7484077626916
340,1438345279029,44.0348752227889
341,1438345279731,8.64357139307234
342,1438345280487,2.8648244358028
343,1438345281230,23.0981825384167
344,1438345281954,22.0675559266514
345,1438345282631,44.1836489353244
346,1438345283246,8.68183397319964
347,1438345283919,34.1061715271547
348,1438345284557,17.3004645051319
349,1438345285249,28.4810175930014
350,1438345285974,7.60402059710467
351,1438345286716,35.8140811192137
352,1438345287460,7.96402987886221
353,1438345288217,14.4496384676411
354,1438345288891,3.70317762909098
355,1438345289610,40.5355089506287
356,1438345290354,5.27236816427362
357,1438345291105,35.7382955036512
358,1438345291872,3.05432364800146
359,1438345292553,3.77427671343184
360,1438345293174,3.857395908855
361,1438345293872,1.21964397758244
362,1438345294603,17.6525110467333
363,1438345295308,39.7169680220769
364,1438345295950,41.0380706383754
365,1438345296656,39.7272023895637
366,1438345297374,56.6525684736773
367,1438345298109,44.9739426311798
368,1438345298863,24.5736438233292
369,1438345299456,38.0866875299963
370,1438345300186,47.435934189157
371,1438345300931,46.0415049072054
372,1438345301670,37.8955937501423
373,1438345302403,20.4639141772845
374,1438345303142,46.6546055913609
375,1438345303795,28.7179441813279
376,1438345304554,31.3792040831926
377,1438345305345,47.1698674526576
378,1438345306080,1.33561218406035
379,1438345306823,1.52728452742625
380,1438345307548,0.814195899891974
381,1438345308205,2.35866263300797
382,1438345308849,2.88589391766358
383,1438345309583,6.01393536373976
384,1438345310311,1.46462680115468
385,1438345311068,1.27550198126584
386,1438345311801,0.33557072774137
387,1438345312529,4.26672621159848
388,1438345313219,10.5245773738989
389,1438345313859,6.41342786640832
390,1438345314568,7.60247954570237
391,1438345315302,4.98119376085512
392,1438345316004,11.3208724997455
393,1438345316766,16.8924259071003
394,1438345317489,28.5906948942664
395,1438345318160,2.4235314157535
396,1438345318790,12.0366922897511
397,1438345319529,29.2675111504118
398,1438345320202,33.1161564337824
399,1438345320918,16.7770128596123
400,1438345321643,10.2454296235555
401,1438345322388,8.13267427789629
402,1438345323108,5.28260061706699
403,1438345323739,5.63167741755817
404,1438345324435,7.55777913283883
405,1438345325162,8.73227506611311
406,1438345325898,4.5467552775407
407,1438345326610,31.8434070997799
408,1438345327297,17.2479823371527
409,1438345328082,14.7367323489016
410,1438345328797,0.934835195290234
411,1438345329536,2.74910542705747
412,1438345330276,3.386389631911
413,1438345331007,5.04317063847049
414,1438345331758,5.74829512595059
415,1438345332492,8.38870403344422
416,1438345333214,19.1501352509337
417,1438345333904,21.6517464171523
418,1438345334576,11.5617520102564
419,1438345335315,4.69464484239801
420,1438345336011,7.1976022979249
421,1438345336676,9.88663248351844
422,1438345337412,4.4170359620931
423,1438345338214,5.08860656993409
424,1438345338947,6.27936157274647
425,1438345339667,7.17209617245405
426,1438345340277,5.75855607178425
427,1438345340973,4.64384527361547
428,1438345341700,6.3775701978446
429,1438345342425,6.89875699791261
430,1438345343193,7.327997110664
431,1438345343965,6.89085570596589
432,1438345344640,3.43621010398757
433,1438345345361,15.3627521477206
434,1438345346104,1.87476644881471
435,1438345346870,3.72918856808804
436,1438345347625,1.21964397758244
437,1438345348356,8.17436889179156
438,1438345349097,10.9300354047261
439,1438345349834,11.421224457796
440,1438345350557,4.36821731342938
441,1438345351275,3.25953817701867
442,1438345352004,2.50586273965014
443,1438345352785,3.338681226967
444,1438345353509,9.96942708362429
445,1438345354224,13.9815204705987
446,1438345354971,6.03858750813319
447,1438345355735,4.98214029707772
448,1438345356413,1.03081285292561
449,1438345357064,0.271150979019676
450,1438345357755,2.15108047283759
451,1438345358468,0.838933231352389
452,1438345359187,1.98334148304267
453,1438345360038,3.31529275201247
454,1438345360686,2.87634373568106
455,1438345361409,7.70594288979598
456,1438345362139,6.26693984787206
457,1438345362973,10.7729223654509
458,1438345363690,15.2171489955321
459,1438345364358,13.4907599545808
460,1438345365084,3.87132676932008
461,1438345365915,3.16610820651988
462,1438345366663,6.32875592187736
463,1438345367461,2.16823658097343
464,1438345368191,3.44992146208672
465,1438345369609,4.19179355732419
466,1438345370326,6.83425421444107
467,1438345371079,6.50836784533294
468,1438345371809,15.131241123365
469,1438345372536,12.1163400726128
470,1438345373262,13.6921818253267
471,1438345373990,3.9887540212673
472,1438345374694,21.7452993193883
473,1438345375370,10.6796212323676
474,1438345376066,9.22361182764874
475,1438345376714,5.74951707082484
476,1438345377498,8.83347785704055
477,1438345378236,8.81598415563387
478,1438345378967,7.48284463139279
479,1438345379706,8.01236251670858
480,1438345380329,9.09697297564825
481,1438345381066,3.0236314265321
482,1438345381796,6.68429899432058
483,1438345382518,12.9184851402638
484,1438345383255,12.6118115442665
485,1438345383983,8.56809017412008
486,1438345384693,7.85949495719076
487,1438345385358,7.39082354904973
488,1438345386099,4.16423250741741
489,1438345386843,3.65420793855256
490,1438345387614,10.508272127345
491,1438345388316,9.09889973017182
492,1438345389054,1.84612375298913
493,1438345389811,2.35610231179914
494,1438345390514,4.56542080255393
495,1438345391275,2.3296289915859
496,1438345392005,3.54263926243554
497,1438345392736,10.9139047332945
498,1438345393492,5.69711730621631
499,1438345394234,8.12769846086332
500,1438345394974,3.84863776378418
501,1438345395625,8.04630795666505
502,1438345396454,19.762058987161
503,1438345397139,15.0795572633518
504,1438345397902,13.5945302216084
505,1438345398635,6.56352398730225
506,1438345399365,5.83119257520309
507,1438345400046,6.55933700740046
508,1438345401562,6.72868005156078
509,1438345402205,6.7861741528485
510,1438345402939,9.97294729438462
511,1438345403683,6.00018879389284
512,1438345404419,4.3995390741942
513,1438345405146,4.75097140385027
514,1438345405820,2.54522713168798
515,1438345406560,1.03081285292561
516,1438345407974,1.63007732047447
517,1438345412307,0.416120513402239
518,1438345414938,1.90584301018714
519,1438345415770,5.13495441886839
520,1438345416461,2.85912690221834
521,1438345417111,6.1924825016683
522,1438345417803,32.8575539100964
523,1438345418520,7.16265300132495
524,1438345419265,14.3179674988586
525,1438345419993,5.28730777861726
526,1438345420834,8.11317889525898
527,1438345421558,8.08256950565077
528,1438345422248,6.8625816415484
529,1438345422926,8.77879948660963
530,1438345423660,6.84747935714795
531,1438345424368,15.9917542651379
532,1438345425085,6.79382220268494
533,1438345425793,5.66565265729492
534,1438345426432,4.03570489038701
535,1438345427131,11.0524585940275
536,1438345427840,8.70094140055863
537,1438345428562,8.78762844033308
538,1438345429276,9.50520609469405
539,1438345429975,6.14225529026774
540,1438345430713,1.54695812505132
541,1438345431443,1.24012152648891
542,1438345432154,17.8210149417465
543,1438345432862,19.1796353834347
544,1438345433574,14.184618227143
545,1438345434277,8.14112671127176
546,1438345435009,4.70547287991674
547,1438345435729,8.9621371323083
548,1438345436393,3.94403891794222
549,1438345437585,2.44453720504346
550,1438345438448,2.38584853826247
551,1438345439173,0.714927509260971
552,1438345440655,0.851715999867079
553,1438345450000,2.23152664267907
554,1438345451285,1.43488057469135
555,1438345452035,6.85306493513676
556,1438345452719,7.5670875006869
557,1438345453445,12.1344765423793
558,1438345454196,9.66868714857132
559,1438345454919,4.98590205098583
560,1438345455655,4.65134238754948
561,1438345456358,1.15823650204442
562,1438345456965,4.29056211558422
563,1438345457659,6.00495880376761
564,1438345458389,6.19707456608298
565,1438345459129,3.06704521013304
566,1438345459865,3.66856478419817
567,1438345460576,5.3821752122818
568,1438345461266,9.21999261335143
569,1438345461935,8.10651102662561
570,1438345462646,20.3847209428835
571,1438345463314,15.2381501059217
572,1438345464027,12.2662543774601
573,1438345464766,22.3102382100176
574,1438345465498,9.56366444388035
575,1438345466232,23.2836397667204
