id,attr_time,attr_light
1,1437152993022,667.0
2,1437152993042,667.0
3,1437152993062,667.0
4,1437152993087,667.0
5,1437152993103,666.0
6,1437152993128,666.0
7,1437152993145,666.0
8,1437152993165,666.0
9,1437152993188,667.0
10,1437152993202,667.0
11,1437152993227,667.0
12,1437152993248,667.0
13,1437152993265,668.0
14,1437152993288,668.0
15,1437152993308,669.0
16,1437152993324,669.0
17,1437152993344,670.0
18,1437152993364,670.0
19,1437152993384,669.0
20,1437152993404,669.0
21,1437152993424,670.0
22,1437152993446,670.0
23,1437152993466,670.0
24,1437152993487,670.0
25,1437152993504,670.0
26,1437152993537,671.0
27,1437152993544,671.0
28,1437152993565,670.0
29,1437152993584,670.0
30,1437152993604,669.0
31,1437152993649,669.0
32,1437152993650,669.0
33,1437152993675,669.0
34,1437152993687,668.0
35,1437152993708,668.0
36,1437152993727,666.0
37,1437152993744,666.0
38,1437152993764,665.0
39,1437152993784,665.0
40,1437152993815,664.0
41,1437152993826,664.0
42,1437152993843,664.0
43,1437152993863,663.0
44,1437152993888,663.0
45,1437152993908,661.0
46,1437152993928,661.0
47,1437152993946,660.0
48,1437152993968,660.0
49,1437152993988,660.0
50,1437152994008,660.0
51,1437152994028,660.0
52,1437152994048,660.0
53,1437152994065,659.0
54,1437152994086,659.0
55,1437152994109,661.0
56,1437152994125,661.0
57,1437152994146,661.0
58,1437152994166,661.0
59,1437152994189,661.0
60,1437152994209,661.0
61,1437152994229,661.0
62,1437152994248,661.0
63,1437152994266,661.0
64,1437152994285,662.0
65,1437152994306,662.0
66,1437152994329,661.0
67,1437152994348,661.0
68,1437152994401,661.0
69,1437152994416,661.0
70,1437152994417,661.0
71,1437152994425,661.0
72,1437152994454,661.0
73,1437152994467,661.0
74,1437152994485,661.0
75,1437152994507,661.0
76,1437152994525,661.0
77,1437152994546,661.0
78,1437152994565,661.0
79,1437152994588,661.0
80,1437152994605,661.0
81,1437152994628,660.0
82,1437152994649,660.0
83,1437152994667,659.0
84,1437152994692,659.0
85,1437152994707,658.0
86,1437152994729,658.0
87,1437152994748,659.0
88,1437152994766,659.0
89,1437152994788,659.0
90,1437152994805,659.0
91,1437152994826,659.0
92,1437152994848,659.0
93,1437152994869,659.0
94,1437152994887,659.0
95,1437152994907,659.0
96,1437152994928,659.0
97,1437152994948,658.0
98,1437152994968,658.0
99,1437152994988,658.0
100,1437152995009,657.0
101,1437152995028,657.0
102,1437152995046,658.0
103,1437152995069,658.0
104,1437152995138,658.0
105,1437152995139,658.0
106,1437152995140,658.0
107,1437152995149,658.0
108,1437152995166,659.0
109,1437152995188,659.0
110,1437152995205,660.0
111,1437152995227,660.0
112,1437152995246,661.0
113,1437152995269,661.0
114,1437152995285,662.0
115,1437152995308,662.0
116,1437152995328,663.0
117,1437152995349,663.0
118,1437152995369,662.0
119,1437152995389,663.0
120,1437152995409,663.0
121,1437152995429,663.0
122,1437152995449,663.0
123,1437152995469,662.0
124,1437152995489,662.0
125,1437152995509,663.0
126,1437152995527,663.0
127,1437152995549,664.0
128,1437152995570,664.0
129,1437152995590,663.0
130,1437152995609,663.0
131,1437152995627,664.0
132,1437152995648,664.0
133,1437152995666,662.0
134,1437152995691,662.0
135,1437152995711,659.0
136,1437152995732,659.0
137,1437152995750,657.0
138,1437152995768,657.0
139,1437152995789,657.0
140,1437152995855,657.0
141,1437152995856,657.0
142,1437152995857,658.0
143,1437152995866,658.0
144,1437152995905,658.0
145,1437152995936,658.0
146,1437152995937,659.0
147,1437152995961,659.0
148,1437152995967,660.0
149,1437152995988,660.0
150,1437152996006,661.0
151,1437152996028,661.0
152,1437152996049,662.0
153,1437152996069,662.0
154,1437152996090,665.0
155,1437152996106,665.0
156,1437152996130,666.0
157,1437152996150,666.0
158,1437152996170,666.0
159,1437152996190,665.0
160,1437152996210,665.0
161,1437152996229,665.0
162,1437152996249,665.0
163,1437152996270,663.0
164,1437152996286,663.0
165,1437152996306,663.0
166,1437152996326,663.0
167,1437152996350,661.0
168,1437152996370,661.0
169,1437152996391,660.0
170,1437152996409,660.0
171,1437152996430,659.0
172,1437152996448,659.0
173,1437152996469,659.0
174,1437152996488,659.0
175,1437152996507,660.0
176,1437152996561,662.0
177,1437152996562,662.0
178,1437152996578,666.0
179,1437152996598,666.0
180,1437152996607,669.0
181,1437152996642,669.0
182,1437152996649,673.0
183,1437152996705,673.0
184,1437152996707,677.0
185,1437152996708,677.0
186,1437152996744,680.0
187,1437152996770,680.0
188,1437152996771,684.0
189,1437152996788,684.0
190,1437152996807,688.0
191,1437152996827,688.0
192,1437152996894,690.0
193,1437152996895,690.0
194,1437152996896,694.0
195,1437152996906,697.0
196,1437152996927,697.0
197,1437152996948,700.0
198,1437152996967,700.0
199,1437152996987,703.0
200,1437152997011,703.0
201,1437152997031,707.0
202,1437152997050,707.0
203,1437152997070,710.0
204,1437152997088,710.0
205,1437152997107,714.0
206,1437152997127,714.0
207,1437152997147,717.0
208,1437152997171,717.0
209,1437152997191,719.0
210,1437152997211,719.0
211,1437152997230,721.0
212,1437152997247,721.0
213,1437152997276,722.0
214,1437152997291,724.0
215,1437152997307,724.0
216,1437152997327,724.0
217,1437152997348,724.0
218,1437152997369,724.0
219,1437152997389,724.0
220,1437152997408,723.0
221,1437152997432,723.0
222,1437152997452,721.0
223,1437152997471,721.0
224,1437152997488,718.0
225,1437152997512,718.0
226,1437152997532,714.0
227,1437152997552,714.0
228,1437152997572,711.0
229,1437152997592,711.0
230,1437152997612,705.0
231,1437152997628,705.0
232,1437152997652,701.0
233,1437152997672,696.0
234,1437152997692,696.0
235,1437152997712,692.0
236,1437152997732,692.0
237,1437152997751,687.0
238,1437152997771,687.0
239,1437152997791,683.0
240,1437152997812,683.0
241,1437152997832,679.0
242,1437152997850,679.0
243,1437152997869,676.0
244,1437152997898,676.0
245,1437152997909,674.0
246,1437152997955,674.0
247,1437152997956,670.0
248,1437152997975,670.0
249,1437152997989,668.0
250,1437152998014,668.0
251,1437152998030,667.0
252,1437152998050,667.0
253,1437152998071,667.0
254,1437152998090,668.0
255,1437152998109,668.0
256,1437152998130,669.0
257,1437152998151,669.0
258,1437152998168,670.0
259,1437152998189,670.0
260,1437152998212,669.0
261,1437152998244,669.0
262,1437152998248,668.0
263,1437152998274,668.0
264,1437152998289,665.0
265,1437152998308,665.0
266,1437152998330,663.0
267,1437152998348,663.0
268,1437152998368,660.0
269,1437152998390,660.0
270,1437152998409,658.0
271,1437152998429,657.0
272,1437152998448,657.0
273,1437152998468,657.0
274,1437152998489,657.0
275,1437152998509,660.0
276,1437152998529,660.0
277,1437152998549,667.0
278,1437152998569,667.0
279,1437152998589,675.0
280,1437152998609,675.0
281,1437152998629,685.0
282,1437152998669,685.0
283,1437152998670,693.0
284,1437152998690,693.0
285,1437152998709,699.0
286,1437152998729,699.0
287,1437152998749,699.0
288,1437152998769,699.0
289,1437152998795,697.0
290,1437152998809,697.0
291,1437152998829,693.0
292,1437152998850,687.0
293,1437152998868,687.0
294,1437152998889,680.0
295,1437152998908,680.0
296,1437152998928,675.0
297,1437152998948,675.0
298,1437152998968,673.0
299,1437152998988,673.0
300,1437152999011,673.0
301,1437152999033,673.0
302,1437152999053,675.0
303,1437152999071,675.0
304,1437152999093,675.0
305,1437152999114,675.0
306,1437152999133,674.0
307,1437152999153,674.0
308,1437152999172,674.0
309,1437152999190,674.0
310,1437152999210,673.0
311,1437152999230,672.0
312,1437152999254,672.0
313,1437152999273,671.0
314,1437152999292,671.0
315,1437152999314,674.0
316,1437152999330,674.0
317,1437152999350,681.0
318,1437152999371,681.0
319,1437152999389,690.0
320,1437152999411,690.0
321,1437152999430,699.0
322,1437152999449,699.0
323,1437152999473,706.0
324,1437152999492,706.0
325,1437152999510,711.0
326,1437152999533,711.0
327,1437152999553,716.0
328,1437152999569,716.0
329,1437152999594,720.0
330,1437152999614,726.0
331,1437152999634,726.0
332,1437152999654,731.0
333,1437152999674,731.0
334,1437152999694,733.0
335,1437152999713,733.0
336,1437152999732,733.0
337,1437152999754,733.0
338,1437152999774,731.0
339,1437152999794,731.0
340,1437152999814,725.0
341,1437152999833,725.0
342,1437152999853,716.0
343,1437152999873,716.0
344,1437152999891,706.0
345,1437152999913,706.0
346,1437152999931,692.0
347,1437152999952,692.0
348,1437152999971,675.0
349,1437152999992,658.0
350,1437153000014,658.0
351,1437153000062,645.0
352,1437153000063,645.0
353,1437153000080,640.0
354,1437153000090,640.0
355,1437153000113,641.0
356,1437153000131,641.0
357,1437153000175,646.0
358,1437153000176,646.0
359,1437153000191,648.0
360,1437153000212,648.0
361,1437153000236,649.0
362,1437153000252,649.0
363,1437153000272,648.0
364,1437153000294,648.0
365,1437153000314,646.0
366,1437153000334,646.0
367,1437153000354,642.0
368,1437153000374,638.0
369,1437153000394,638.0
370,1437153000414,634.0
371,1437153000434,634.0
372,1437153000454,633.0
373,1437153000476,633.0
374,1437153000494,635.0
375,1437153000516,635.0
376,1437153000533,637.0
377,1437153000556,637.0
378,1437153000574,642.0
379,1437153000590,642.0
380,1437153000611,645.0
381,1437153000630,645.0
382,1437153000657,647.0
383,1437153000672,647.0
384,1437153000693,647.0
385,1437153000714,647.0
386,1437153000736,648.0
387,1437153000794,649.0
388,1437153000795,649.0
389,1437153000797,653.0
390,1437153000814,653.0
391,1437153000832,656.0
392,1437153000854,656.0
393,1437153000871,660.0
394,1437153000891,660.0
395,1437153000913,663.0
396,1437153000932,663.0
397,1437153000953,663.0
398,1437153000972,663.0
399,1437153000992,663.0
400,1437153001014,663.0
401,1437153001034,661.0
402,1437153001054,661.0
403,1437153001074,658.0
404,1437153001094,658.0
405,1437153001114,654.0
406,1437153001134,651.0
407,1437153001154,651.0
408,1437153001173,647.0
409,1437153001193,647.0
410,1437153001219,645.0
411,1437153001231,645.0
412,1437153001251,642.0
413,1437153001271,642.0
414,1437153001291,639.0
415,1437153001312,639.0
416,1437153001332,637.0
417,1437153001353,637.0
418,1437153001374,636.0
419,1437153001395,636.0
420,1437153001415,636.0
421,1437153001432,636.0
422,1437153001453,639.0
423,1437153001482,639.0
424,1437153001492,641.0
425,1437153001539,644.0
426,1437153001540,644.0
427,1437153001561,647.0
428,1437153001572,647.0
429,1437153001593,650.0
430,1437153001613,650.0
431,1437153001632,653.0
432,1437153001654,653.0
433,1437153001672,656.0
434,1437153001695,656.0
435,1437153001716,659.0
436,1437153001733,659.0
437,1437153001752,664.0
438,1437153001775,664.0
439,1437153001795,668.0
440,1437153001815,668.0
441,1437153001835,673.0
442,1437153001855,673.0
443,1437153001875,677.0
444,1437153001907,682.0
445,1437153001912,682.0
446,1437153001932,687.0
447,1437153001952,687.0
448,1437153001973,690.0
449,1437153001997,690.0
450,1437153002015,693.0
451,1437153002038,693.0
452,1437153002053,695.0
453,1437153002073,695.0
454,1437153002092,696.0
455,1437153002113,696.0
456,1437153002138,697.0
457,1437153002156,697.0
458,1437153002177,697.0
459,1437153002195,697.0
460,1437153002214,696.0
461,1437153002284,696.0
462,1437153002285,695.0
463,1437153002326,693.0
464,1437153002327,693.0
465,1437153002328,692.0
466,1437153002345,692.0
467,1437153002370,693.0
468,1437153002386,693.0
469,1437153002393,692.0
470,1437153002425,692.0
471,1437153002432,691.0
472,1437153002452,691.0
473,1437153002472,690.0
474,1437153002493,690.0
475,1437153002513,688.0
476,1437153002533,688.0
477,1437153002553,687.0
478,1437153002572,687.0
479,1437153002593,685.0
480,1437153002613,685.0
481,1437153002633,684.0
482,1437153002653,684.0
483,1437153002673,683.0
484,1437153002693,682.0
485,1437153002713,682.0
486,1437153002735,681.0
487,1437153002755,681.0
488,1437153002775,679.0
489,1437153002793,679.0
490,1437153002813,678.0
491,1437153002833,678.0
492,1437153002854,677.0
493,1437153002875,677.0
494,1437153002893,675.0
495,1437153002913,675.0
496,1437153002934,675.0
497,1437153002962,675.0
498,1437153003020,674.0
499,1437153003021,674.0
500,1437153003022,674.0
501,1437153003042,674.0
502,1437153003056,674.0
503,1437153003080,676.0
504,1437153003094,676.0
505,1437153003114,678.0
506,1437153003136,678.0
507,1437153003154,681.0
508,1437153003175,681.0
509,1437153003194,682.0
510,1437153003213,682.0
511,1437153003237,685.0
512,1437153003264,685.0
513,1437153003273,687.0
514,1437153003293,687.0
515,1437153003313,687.0
516,1437153003333,687.0
517,1437153003353,689.0
518,1437153003373,689.0
519,1437153003393,689.0
520,1437153003414,689.0
521,1437153003447,688.0
522,1437153003455,688.0
523,1437153003473,688.0
524,1437153003493,688.0
525,1437153003513,688.0
526,1437153003533,687.0
527,1437153003553,687.0
528,1437153003573,687.0
529,1437153003594,687.0
530,1437153003616,688.0
531,1437153003634,688.0
532,1437153003655,688.0
533,1437153003674,688.0
534,1437153003711,688.0
535,1437153003713,688.0
536,1437153003733,689.0
537,1437153003756,689.0
538,1437153003773,690.0
539,1437153003793,690.0
540,1437153003818,691.0
541,1437153003833,693.0
542,1437153003853,693.0
543,1437153003873,694.0
544,1437153003893,694.0
545,1437153003913,694.0
546,1437153003933,694.0
547,1437153003953,694.0
548,1437153003973,694.0
549,1437153003993,694.0
550,1437153004013,694.0
551,1437153004033,694.0
552,1437153004053,694.0
553,1437153004073,693.0
554,1437153004093,693.0
555,1437153004117,694.0
556,1437153004137,694.0
557,1437153004156,692.0
558,1437153004177,692.0
559,1437153004198,689.0
560,1437153004215,687.0
561,1437153004238,687.0
562,1437153004260,685.0
563,1437153004279,685.0
564,1437153004297,685.0
565,1437153004318,685.0
566,1437153004387,684.0
567,1437153004388,684.0
568,1437153004389,682.0
569,1437153004398,682.0
570,1437153004415,680.0
571,1437153004438,680.0
572,1437153004454,678.0
573,1437153004475,678.0
574,1437153004494,675.0
575,1437153004519,675.0
576,1437153004536,674.0
577,1437153004556,674.0
578,1437153004575,674.0
579,1437153004598,674.0
580,1437153004618,674.0
581,1437153004635,675.0
582,1437153004657,675.0
583,1437153004675,678.0
584,1437153004697,678.0
585,1437153004715,684.0
586,1437153004736,684.0
587,1437153004759,691.0
588,1437153004775,691.0
589,1437153004798,699.0
590,1437153004818,699.0
591,1437153004838,710.0
592,1437153004858,710.0
593,1437153004878,723.0
594,1437153004898,723.0
595,1437153004918,737.0
596,1437153004938,737.0
597,1437153004958,752.0
598,1437153004979,769.0
599,1437153004999,769.0
600,1437153005018,790.0
601,1437153005038,790.0
602,1437153005104,818.0
603,1437153005105,818.0
604,1437153005106,851.0
605,1437153005115,851.0
606,1437153005140,887.0
607,1437153005158,887.0
608,1437153005178,924.0
609,1437153005198,924.0
610,1437153005215,965.0
611,1437153005237,965.0
612,1437153005255,1008.0
613,1437153005278,1008.0
614,1437153005295,1038.0
615,1437153005318,1038.0
616,1437153005339,1057.0
617,1437153005359,1068.0
618,1437153005379,1068.0
619,1437153005399,1067.0
620,1437153005419,1067.0
621,1437153005439,1054.0
622,1437153005459,1054.0
623,1437153005478,1022.0
624,1437153005499,1022.0
625,1437153005519,978.0
626,1437153005538,978.0
627,1437153005557,928.0
628,1437153005578,928.0
629,1437153005600,887.0
630,1437153005619,887.0
631,1437153005640,868.0
632,1437153005658,868.0
633,1437153005684,871.0
634,1437153005698,871.0
635,1437153005717,876.0
636,1437153005745,892.0
637,1437153005756,892.0
638,1437153005805,932.0
639,1437153005806,932.0
640,1437153005822,988.0
641,1437153005836,988.0
642,1437153005856,1027.0
643,1437153005877,1027.0
644,1437153005905,1053.0
645,1437153005916,1053.0
646,1437153005936,1095.0
647,1437153005957,1095.0
648,1437153005977,1187.0
649,1437153005996,1187.0
650,1437153006019,1326.0
651,1437153006039,1326.0
652,1437153006059,1460.0
653,1437153006079,1460.0
654,1437153006100,1508.0
655,1437153006117,1514.0
656,1437153006139,1514.0
657,1437153006159,1490.0
658,1437153006179,1490.0
659,1437153006199,1443.0
660,1437153006219,1443.0
661,1437153006236,1365.0
662,1437153006260,1365.0
663,1437153006280,1262.0
664,1437153006304,1262.0
665,1437153006319,1139.0
666,1437153006336,1139.0
667,1437153006356,1028.0
668,1437153006376,1028.0
669,1437153006398,942.0
670,1437153006420,942.0
671,1437153006440,860.0
672,1437153006460,860.0
673,1437153006479,821.0
674,1437153006498,821.0
675,1437153006567,821.0
676,1437153006568,841.0
677,1437153006569,841.0
678,1437153006579,873.0
679,1437153006606,873.0
680,1437153006620,923.0
681,1437153006637,923.0
682,1437153006659,987.0
683,1437153006681,987.0
684,1437153006699,1049.0
685,1437153006722,1049.0
686,1437153006737,1128.0
687,1437153006760,1128.0
688,1437153006798,1206.0
689,1437153006799,1206.0
690,1437153006817,1285.0
691,1437153006909,1285.0
692,1437153006910,1356.0
693,1437153006911,1356.0
694,1437153006912,1393.0
695,1437153006918,1402.0
696,1437153006937,1402.0
697,1437153006962,1388.0
698,1437153006978,1388.0
699,1437153007000,1339.0
700,1437153007017,1339.0
701,1437153007037,1247.0
702,1437153007057,1247.0
703,1437153007083,1104.0
704,1437153007103,1104.0
705,1437153007124,906.0
706,1437153007141,906.0
707,1437153007159,719.0
708,1437153007179,719.0
709,1437153007198,575.0
710,1437153007217,575.0
711,1437153007300,486.0
712,1437153007301,486.0
713,1437153007302,444.0
714,1437153007303,436.0
715,1437153007331,436.0
716,1437153007347,464.0
717,1437153007359,464.0
718,1437153007379,520.0
719,1437153007397,520.0
720,1437153007430,611.0
721,1437153007448,611.0
722,1437153007458,729.0
723,1437153007479,729.0
724,1437153007498,879.0
725,1437153007518,879.0
726,1437153007541,1036.0
727,1437153007560,1036.0
728,1437153007580,1153.0
729,1437153007601,1153.0
730,1437153007621,1208.0
731,1437153007641,1208.0
732,1437153007661,1224.0
733,1437153007681,1219.0
734,1437153007698,1219.0
735,1437153007720,1184.0
736,1437153007741,1184.0
737,1437153007759,1113.0
738,1437153007778,1113.0
739,1437153007798,992.0
740,1437153007823,992.0
741,1437153007843,815.0
742,1437153007864,815.0
743,1437153007882,617.0
744,1437153007898,617.0
745,1437153007918,492.0
746,1437153007939,492.0
747,1437153007959,425.0
748,1437153007979,425.0
749,1437153008035,403.0
750,1437153008048,403.0
751,1437153008049,404.0
752,1437153008058,422.0
753,1437153008085,422.0
754,1437153008100,459.0
755,1437153008118,459.0
756,1437153008140,525.0
757,1437153008161,525.0
758,1437153008180,602.0
759,1437153008198,602.0
760,1437153008221,690.0
761,1437153008238,690.0
762,1437153008261,824.0
763,1437153008281,824.0
764,1437153008301,929.0
765,1437153008321,929.0
766,1437153008341,1003.0
767,1437153008361,1003.0
768,1437153008381,1052.0
769,1437153008400,1052.0
770,1437153008422,1072.0
771,1437153008438,1060.0
772,1437153008462,1060.0
773,1437153008481,1005.0
774,1437153008502,1005.0
775,1437153008521,899.0
776,1437153008542,899.0
777,1437153008562,747.0
778,1437153008582,747.0
779,1437153008602,581.0
780,1437153008622,581.0
781,1437153008642,487.0
782,1437153008663,487.0
783,1437153008682,434.0
784,1437153008707,434.0
785,1437153008764,439.0
786,1437153008765,439.0
787,1437153008766,470.0
788,1437153008778,470.0
789,1437153008799,536.0
790,1437153008819,635.0
791,1437153008839,635.0
792,1437153008859,733.0
793,1437153008880,733.0
794,1437153008899,815.0
795,1437153008920,815.0
796,1437153008940,890.0
797,1437153008959,890.0
798,1437153008981,978.0
799,1437153009000,978.0
800,1437153009022,1069.0
801,1437153009042,1069.0
802,1437153009062,1179.0
803,1437153009082,1179.0
804,1437153009102,1266.0
805,1437153009122,1266.0
806,1437153009142,1340.0
807,1437153009162,1340.0
808,1437153009180,1402.0
809,1437153009202,1417.0
810,1437153009222,1417.0
811,1437153009240,1367.0
812,1437153009260,1367.0
813,1437153009281,1243.0
814,1437153009303,1243.0
815,1437153009323,1052.0
816,1437153009344,1052.0
817,1437153009363,936.0
818,1437153009380,936.0
819,1437153009400,875.0
820,1437153009420,875.0
821,1437153009441,881.0
822,1437153009463,881.0
823,1437153009512,917.0
824,1437153009513,917.0
825,1437153009530,984.0
826,1437153009539,984.0
827,1437153009562,1082.0
828,1437153009581,1188.0
829,1437153009599,1188.0
830,1437153009621,1266.0
831,1437153009639,1266.0
832,1437153009663,1307.0
