id,attr_time,attr_x,attr_y,attr_z
1,1436183316116,11.598,39.242,-24.629
2,1436183316139,11.598,39.242,-24.629
3,1436183316159,11.598,39.242,-24.629
4,1436183316179,11.598,39.549,-24.629
5,1436183316199,11.598,39.549,-24.629
6,1436183316219,11.598,39.549,-24.629
7,1436183316239,11.598,39.549,-24.629
8,1436183316259,11.598,39.549,-24.629
9,1436183316279,11.598,39.549,-24.629
10,1436183316299,11.598,39.549,-24.629
11,1436183316319,11.598,39.549,-24.629
12,1436183316337,11.598,39.549,-24.629
13,1436183316360,11.598,39.549,-24.629
14,1436183316379,11.598,39.549,-24.629
15,1436183316397,11.598,39.549,-24.629
16,1436183316417,11.598,39.549,-24.629
17,1436183316438,11.598,39.549,-24.629
18,1436183316460,11.598,39.549,-24.629
19,1436183316480,11.598,39.549,-24.629
20,1436183316501,11.598,39.549,-24.629
21,1436183316519,11.598,39.549,-24.301
22,1436183316537,11.598,39.549,-24.301
23,1436183316556,11.598,39.549,-24.301
24,1436183316578,11.598,39.549,-24.301
25,1436183316606,11.598,39.549,-24.301
26,1436183316616,11.598,39.549,-24.301
27,1436183316660,11.598,39.549,-24.301
28,1436183316661,11.598,39.549,-24.301
29,1436183316685,11.598,39.549,-24.301
30,1436183316696,11.598,39.549,-24.301
31,1436183316725,11.598,39.549,-24.301
32,1436183316738,11.598,39.549,-24.301
33,1436183316759,11.282,39.549,-24.301
34,1436183316778,11.282,39.549,-24.301
35,1436183316797,11.282,39.549,-24.301
36,1436183316818,11.282,39.549,-24.301
37,1436183316839,11.282,39.549,-24.301
38,1436183316858,11.282,39.549,-24.301
39,1436183316877,11.282,39.549,-24.301
40,1436183316900,11.282,39.549,-24.301
41,1436183316920,11.282,39.549,-24.301
42,1436183316940,11.282,39.549,-24.301
43,1436183316960,11.282,39.549,-24.301
44,1436183316980,11.282,39.549,-24.301
45,1436183317000,11.282,39.549,-24.301
46,1436183317023,11.282,39.549,-24.301
47,1436183317040,11.282,39.549,-24.301
48,1436183317060,11.282,39.549,-24.301
49,1436183317078,11.282,39.549,-24.301
50,1436183317100,11.282,39.549,-24.301
51,1436183317120,11.282,39.549,-24.301
52,1436183317140,11.282,39.549,-24.301
53,1436183317160,11.282,39.549,-24.301
54,1436183317180,11.282,39.549,-24.301
55,1436183317200,11.282,39.549,-24.301
56,1436183317220,11.282,39.549,-24.301
57,1436183317240,11.282,39.549,-24.301
58,1436183317260,11.282,39.549,-24.301
59,1436183317280,11.282,39.549,-24.301
60,1436183317301,11.282,39.549,-24.301
61,1436183317320,11.282,39.549,-24.301
62,1436183317345,11.282,39.549,-24.301
63,1436183317411,11.282,39.549,-24.301
64,1436183317412,11.282,39.549,-24.301
65,1436183317413,11.282,39.549,-24.301
66,1436183317420,11.282,39.549,-24.301
67,1436183317439,11.596,39.549,-24.301
68,1436183317461,11.596,39.549,-24.301
69,1436183317477,11.596,39.549,-24.301
70,1436183317497,11.596,39.549,-24.301
71,1436183317519,11.596,39.549,-24.301
72,1436183317538,11.596,39.549,-24.301
73,1436183317559,11.596,39.549,-24.301
74,1436183317579,11.596,39.549,-24.301
75,1436183317598,11.596,39.549,-24.301
76,1436183317620,11.596,39.549,-24.301
77,1436183317640,11.596,39.549,-24.301
78,1436183317660,11.596,39.549,-24.301
79,1436183317681,11.596,39.549,-24.301
80,1436183317701,11.596,39.549,-24.301
81,1436183317720,11.596,39.549,-24.301
82,1436183317742,11.596,39.549,-24.301
83,1436183317760,11.596,39.549,-24.301
84,1436183317781,11.596,39.549,-24.301
85,1436183317800,11.271,39.549,-24.301
86,1436183317818,11.271,39.549,-23.97
87,1436183317841,11.271,39.549,-23.97
88,1436183317859,11.271,39.549,-23.97
89,1436183317881,11.271,39.549,-23.97
90,1436183317898,11.271,39.549,-23.97
91,1436183317921,11.271,39.549,-23.97
92,1436183317942,11.271,39.549,-23.97
93,1436183317962,11.271,39.549,-23.97
94,1436183317980,10.971,39.549,-23.97
95,1436183317999,10.971,39.549,-23.97
96,1436183318017,10.971,39.549,-23.97
97,1436183318039,10.971,39.549,-23.97
98,1436183318057,10.971,39.549,-23.97
99,1436183318078,10.971,39.549,-23.97
100,1436183318150,10.971,39.549,-23.97
101,1436183318151,10.971,39.549,-23.97
102,1436183318152,10.971,39.549,-23.97
103,1436183318207,10.971,39.549,-23.97
104,1436183318208,10.971,39.549,-23.97
105,1436183318209,10.971,39.549,-24.279
106,1436183318220,10.971,39.549,-24.279
107,1436183318239,10.971,39.549,-24.279
108,1436183318258,10.971,39.549,-24.279
109,1436183318291,10.971,39.549,-24.279
110,1436183318298,10.971,39.549,-24.279
111,1436183318318,10.971,39.549,-24.279
112,1436183318341,10.971,39.549,-24.279
113,1436183318358,10.971,39.549,-24.279
114,1436183318378,10.971,39.549,-24.279
115,1436183318399,10.971,39.549,-24.279
116,1436183318418,10.971,39.549,-24.279
117,1436183318438,10.971,39.549,-24.279
118,1436183318458,11.282,39.549,-24.279
119,1436183318478,11.282,39.549,-24.279
120,1436183318498,11.282,39.549,-24.279
121,1436183318518,11.282,39.549,-24.279
122,1436183318538,11.282,39.549,-24.279
123,1436183318558,11.639,39.549,-24.279
124,1436183318578,11.639,39.549,-24.279
125,1436183318598,11.639,39.549,-24.279
126,1436183318620,11.639,39.549,-24.279
127,1436183318639,11.639,39.549,-24.279
128,1436183318658,11.639,39.549,-24.279
129,1436183318680,11.639,39.549,-24.279
130,1436183318701,11.972,39.549,-24.279
131,1436183318721,11.972,39.549,-24.279
132,1436183318738,11.972,39.549,-24.279
133,1436183318760,11.972,39.549,-24.279
134,1436183318780,11.972,39.549,-24.279
135,1436183318800,11.972,39.244,-24.279
136,1436183318818,12.294,39.244,-24.279
137,1436183318885,12.294,39.244,-24.279
138,1436183318886,12.294,39.244,-24.279
139,1436183318887,12.294,39.244,-24.279
140,1436183318905,12.294,39.244,-24.279
141,1436183318922,12.294,39.244,-24.279
142,1436183318938,12.294,39.244,-24.279
143,1436183318959,12.294,39.244,-24.279
144,1436183318978,12.294,39.244,-24.279
145,1436183318999,12.294,39.244,-23.944
146,1436183319019,12.294,39.244,-23.944
147,1436183319039,12.294,39.244,-23.944
148,1436183319062,12.294,39.244,-23.944
149,1436183319082,12.294,39.244,-23.944
150,1436183319100,12.294,39.244,-23.944
151,1436183319122,12.294,39.244,-23.944
152,1436183319142,12.294,39.244,-23.944
153,1436183319162,12.294,39.244,-23.944
154,1436183319180,12.294,39.244,-23.944
155,1436183319203,12.294,39.244,-23.944
156,1436183319218,12.294,39.244,-23.944
157,1436183319240,12.294,39.244,-23.944
158,1436183319259,12.294,39.244,-23.944
159,1436183319278,12.294,39.244,-23.944
160,1436183319299,12.294,39.244,-23.944
161,1436183319319,12.294,39.244,-23.944
162,1436183319340,12.294,39.244,-23.944
163,1436183319362,12.294,39.244,-23.944
164,1436183319381,12.294,39.244,-23.944
165,1436183319402,12.625,39.244,-23.944
166,1436183319419,12.625,39.244,-23.944
167,1436183319440,12.625,39.244,-23.944
168,1436183319460,12.625,39.244,-23.944
169,1436183319559,12.625,39.244,-23.944
170,1436183319560,12.625,39.244,-23.944
171,1436183319561,12.625,39.244,-23.944
172,1436183319562,12.625,39.244,-23.944
173,1436183319563,12.625,39.244,-23.944
174,1436183319580,12.625,39.244,-23.944
175,1436183319599,12.625,39.244,-23.944
176,1436183319619,12.625,39.244,-23.944
177,1436183319639,12.625,39.244,-23.944
178,1436183319660,12.625,39.244,-23.944
179,1436183319680,12.625,39.244,-23.944
180,1436183319701,12.625,39.244,-23.944
181,1436183319748,12.625,39.244,-23.944
182,1436183319749,12.625,39.244,-23.631
183,1436183319760,12.625,39.244,-23.631
184,1436183319780,12.625,39.244,-23.631
185,1436183319802,12.625,39.244,-23.631
186,1436183319822,12.625,39.244,-23.631
187,1436183319843,12.319,39.244,-23.631
188,1436183319862,12.319,39.244,-23.631
189,1436183319880,12.319,39.244,-23.631
190,1436183319903,12.319,39.244,-23.631
191,1436183319923,12.319,39.244,-23.631
192,1436183319942,12.319,39.546,-23.631
193,1436183319966,12.319,39.546,-23.631
194,1436183319983,12.319,39.546,-23.631
195,1436183320003,12.319,39.546,-23.631
196,1436183320020,12.319,39.546,-23.631
197,1436183320043,12.319,39.546,-23.631
198,1436183320063,12.319,39.546,-23.631
199,1436183320080,12.319,39.546,-23.631
200,1436183320100,12.319,39.546,-23.318
201,1436183320121,12.319,39.546,-23.318
202,1436183320143,12.319,39.546,-23.318
203,1436183320160,12.319,39.546,-23.318
204,1436183320180,12.319,39.546,-23.318
205,1436183320200,12.319,39.546,-23.318
206,1436183320304,12.319,39.546,-23.318
207,1436183320317,12.319,39.546,-23.318
208,1436183320320,12.319,39.546,-23.318
209,1436183320321,12.319,39.546,-23.318
210,1436183320322,12.319,39.546,-23.318
211,1436183320323,12.319,39.546,-23.318
212,1436183320342,12.007,39.546,-23.318
213,1436183320360,12.007,39.546,-23.318
214,1436183320380,12.007,39.546,-23.318
215,1436183320401,12.007,39.546,-23.318
216,1436183320422,12.007,39.546,-23.318
217,1436183320440,12.007,39.546,-23.318
218,1436183320461,12.007,39.546,-23.318
219,1436183320480,12.007,39.546,-23.318
220,1436183320500,12.007,39.546,-23.318
221,1436183320523,12.007,39.546,-23.318
222,1436183320543,12.007,39.546,-23.318
223,1436183320563,12.007,39.546,-23.318
224,1436183320583,12.007,39.546,-23.318
225,1436183320601,12.007,39.546,-23.318
226,1436183320623,12.007,39.546,-23.318
227,1436183320643,12.007,39.546,-23.318
228,1436183320661,12.007,39.546,-23.318
229,1436183320683,12.316,39.546,-23.318
230,1436183320703,12.316,39.546,-23.318
231,1436183320727,12.316,39.546,-23.318
232,1436183320743,12.316,39.546,-23.318
233,1436183320763,12.316,39.546,-23.318
234,1436183320781,12.628,39.546,-23.318
235,1436183320803,12.628,39.546,-23.318
236,1436183320823,12.628,39.546,-23.318
237,1436183320841,12.628,39.546,-23.318
238,1436183320862,12.628,39.546,-23.318
239,1436183320882,12.628,39.546,-23.318
240,1436183320904,12.628,39.546,-23.318
241,1436183320921,12.628,39.546,-23.318
242,1436183320941,12.628,39.546,-23.318
243,1436183320961,12.628,39.546,-23.318
244,1436183320986,12.628,39.546,-23.318
245,1436183321109,12.628,39.546,-23.318
246,1436183321110,12.628,39.546,-23.318
247,1436183321111,12.628,39.546,-23.318
248,1436183321112,12.628,39.546,-23.318
249,1436183321113,12.628,39.546,-23.318
250,1436183321114,12.628,39.546,-23.318
251,1436183321139,12.628,39.546,-23.318
252,1436183321140,12.628,39.546,-23.318
253,1436183321171,12.628,39.546,-23.318
254,1436183321181,12.628,39.546,-23.318
255,1436183321203,12.628,39.546,-23.318
256,1436183321223,12.628,39.546,-23.318
257,1436183321241,12.628,39.546,-23.318
258,1436183321272,12.628,39.546,-23.318
259,1436183321284,12.628,39.546,-23.318
260,1436183321310,12.628,39.546,-23.318
261,1436183321325,12.628,39.546,-23.318
262,1436183321347,12.628,39.546,-23.318
263,1436183321361,12.628,39.546,-23.318
264,1436183321381,13.011,39.546,-23.318
265,1436183321490,13.011,39.546,-23.318
266,1436183321491,13.011,39.546,-23.318
267,1436183321492,13.377,39.546,-22.991
268,1436183321493,13.377,39.546,-22.991
269,1436183321494,13.696,39.546,-22.991
270,1436183321500,13.696,39.546,-22.991
271,1436183321521,14.065,39.546,-22.991
272,1436183321540,14.065,39.546,-22.991
273,1436183321561,14.428,39.546,-22.991
274,1436183321581,14.428,39.546,-22.991
275,1436183321604,14.811,39.546,-22.991
276,1436183321624,15.264,39.546,-22.991
277,1436183321644,15.76,39.546,-22.991
278,1436183321663,16.311,39.546,-22.991
279,1436183321683,16.311,39.546,-22.991
280,1436183321703,16.621,39.546,-22.991
281,1436183321722,17.002,39.245,-22.991
282,1436183321744,17.002,39.245,-22.991
283,1436183321764,17.491,39.245,-22.991
284,1436183321782,17.491,39.245,-22.991
285,1436183321802,17.826,39.245,-22.991
286,1436183321829,17.826,39.245,-22.991
287,1436183321840,17.826,39.245,-22.991
288,1436183321860,17.826,38.917,-22.991
289,1436183321881,17.826,38.917,-22.991
290,1436183321905,18.206,38.917,-22.991
291,1436183321929,18.206,38.917,-22.991
292,1436183321941,18.605,38.554,-22.991
293,1436183321962,18.605,38.554,-22.991
294,1436183321980,18.983,38.554,-22.991
295,1436183322000,18.983,38.223,-22.991
296,1436183322020,18.983,38.223,-22.991
297,1436183322040,19.369,38.223,-22.991
298,1436183322060,19.369,37.826,-22.991
299,1436183322080,19.369,37.826,-23.377
300,1436183322100,19.744,37.826,-23.377
301,1436183322120,19.744,37.387,-23.377
302,1436183322140,19.744,37.387,-23.703
303,1436183322160,20.121,37.062,-23.703
304,1436183322180,20.121,37.062,-23.703
305,1436183322200,20.439,36.703,-24.125
306,1436183322220,20.439,36.703,-24.125
307,1436183322241,20.806,36.329,-24.125
308,1436183322261,21.318,36.329,-24.569
309,1436183322285,22.314,35.957,-24.569
310,1436183322304,23.178,35.957,-24.569
311,1436183322324,23.753,35.554,-24.569
312,1436183322345,24.569,35.554,-24.92
313,1436183322365,25.234,34.974,-24.92
314,1436183322385,25.234,34.974,-24.92
315,1436183322405,25.582,34.603,-24.92
316,1436183322423,25.582,34.603,-24.92
317,1436183322442,26.062,34.603,-24.92
318,1436183322470,26.062,34.118,-24.92
319,1436183322485,26.062,34.118,-24.92
320,1436183322503,26.586,33.776,-24.533
321,1436183322521,26.586,33.776,-24.533
322,1436183322541,26.989,33.447,-24.533
323,1436183322566,27.369,33.447,-24.533
324,1436183322582,27.369,33.114,-24.172
325,1436183322602,27.777,33.114,-24.172
326,1436183322625,27.777,32.803,-24.172
327,1436183322645,28.201,32.803,-23.754
328,1436183322665,28.201,32.434,-23.754
329,1436183322682,28.816,32.434,-23.754
330,1436183322705,29.127,31.993,-23.387
331,1436183322726,29.519,31.668,-23.387
332,1436183322745,29.519,30.972,-23.387
333,1436183322765,30.029,30.615,-23.387
334,1436183322786,30.528,30.615,-23.387
335,1436183322806,30.851,30.615,-23.052
336,1436183322823,30.851,30.053,-23.052
337,1436183322845,30.851,30.053,-23.052
338,1436183322864,30.851,30.053,-22.68
339,1436183322883,30.851,30.053,-22.68
340,1436183322903,30.851,30.053,-22.256
341,1436183322926,30.851,30.053,-21.65
342,1436183322946,30.851,30.053,-21.65
343,1436183322966,30.851,30.053,-21.069
344,1436183322986,31.169,30.053,-21.069
345,1436183323002,31.169,30.053,-21.069
346,1436183323024,31.169,30.053,-21.069
347,1436183323044,31.169,30.053,-21.069
348,1436183323066,31.169,30.053,-21.069
349,1436183323083,31.169,30.053,-21.069
350,1436183323156,31.169,30.053,-21.069
351,1436183323157,31.169,32.189,-20.658
352,1436183323158,31.169,31.077,-20.658
353,1436183323168,31.169,33.143,-20.658
354,1436183323185,30.79,33.772,-20.271
355,1436183323206,30.79,31.539,-20.271
356,1436183323222,30.79,31.539,-20.271
357,1436183323243,30.79,31.539,-19.905
358,1436183323265,30.79,31.539,-19.905
359,1436183323285,30.79,31.539,-19.57
360,1436183323304,30.79,31.207,-19.57
361,1436183323323,30.79,30.831,-19.57
362,1436183323343,31.1,30.49,-19.082
363,1436183323366,31.41,29.818,-19.082
364,1436183323387,31.741,29.002,-19.082
365,1436183323405,32.196,27.734,-20.263
366,1436183323426,32.618,26.271,-21.992
367,1436183323446,32.618,25.016,-22.836
368,1436183323466,33.129,23.907,-24.217
369,1436183323486,33.129,23.007,-25.746
370,1436183323506,33.129,22.586,-26.945
371,1436183323527,32.688,22.239,-27.998
372,1436183323543,32.688,22.239,-28.878
373,1436183323566,32.688,22.564,-28.878
374,1436183323586,32.688,22.564,-29.627
375,1436183323605,32.688,22.892,-29.627
376,1436183323625,32.688,22.892,-29.98
377,1436183323646,32.688,23.712,-29.98
378,1436183323666,32.688,24.028,-29.98
379,1436183323686,32.688,24.028,-29.493
380,1436183323706,32.249,24.641,-28.955
381,1436183323726,32.249,24.641,-28.424
382,1436183323748,32.249,24.641,-27.128
383,1436183323766,32.249,24.641,-26.47
384,1436183323786,32.249,23.931,-25.521
385,1436183323806,32.249,23.931,-26.141
386,1436183323887,32.249,23.931,-26.141
387,1436183323888,32.249,24.725,-26.904
388,1436183323889,31.91,25.729,-27.465
389,1436183323890,31.91,26.588,-27.134
390,1436183323915,31.591,27.185,-26.618
391,1436183323926,31.591,27.792,-25.531
392,1436183323943,31.591,27.792,-24.913
393,1436183323963,31.591,27.792,-23.757
394,1436183323983,31.591,28.497,-23.757
395,1436183324004,31.591,28.86,-23.455
396,1436183324024,31.591,29.478,-23.455
397,1436183324043,31.591,29.478,-23.112
398,1436183324063,31.591,29.981,-23.112
399,1436183324084,31.591,29.981,-23.454
400,1436183324106,31.591,29.981,-23.454
401,1436183324127,31.591,29.981,-23.454
402,1436183324147,31.591,29.981,-23.454
403,1436183324166,31.126,29.981,-23.454
404,1436183324186,31.126,29.981,-23.454
405,1436183324207,31.126,29.653,-23.454
406,1436183324227,30.822,29.653,-23.454
407,1436183324247,30.822,29.653,-23.957
408,1436183324263,30.822,29.653,-23.483
409,1436183324287,30.822,29.653,-23.483
410,1436183324307,30.822,29.653,-23.483
411,1436183324327,30.822,28.239,-25.456
412,1436183324347,30.822,27.583,-27.552
413,1436183324367,30.429,27.047,-28.848
414,1436183324387,30.429,26.675,-29.73
415,1436183324407,30.026,26.675,-31.033
416,1436183324427,30.026,26.675,-31.033
417,1436183324447,28.981,27.165,-31.398
418,1436183324468,27.304,27.165,-31.892
419,1436183324487,26.066,27.728,-32.196
420,1436183324507,25.094,27.728,-32.196
421,1436183324526,24.678,27.728,-32.196
422,1436183324579,24.678,27.728,-32.196
423,1436183324581,25.097,27.728,-31.895
424,1436183324599,25.703,27.246,-31.411
425,1436183324605,26.664,27.246,-30.276
426,1436183324625,27.351,27.246,-29.893
427,1436183324646,27.737,27.246,-29.531
428,1436183324664,27.737,27.246,-29.197
429,1436183324685,27.737,27.246,-29.197
430,1436183324704,27.435,27.246,-29.197
431,1436183324727,27.874,27.246,-27.839
432,1436183324748,28.211,27.246,-26.515
433,1436183324765,28.211,27.615,-25.964
434,1436183324788,28.52,27.615,-25.025
435,1436183324807,28.968,27.966,-23.939
436,1436183324828,29.313,27.966,-23.313
437,1436183324847,29.313,28.309,-23.313
438,1436183324868,29.313,28.309,-23.759
439,1436183324888,29.759,28.309,-23.274
440,1436183324908,29.759,28.309,-23.274
441,1436183324928,29.759,28.686,-23.786
442,1436183324948,29.759,28.686,-24.116
443,1436183324967,29.399,28.686,-24.116
444,1436183324984,29.399,28.686,-24.116
445,1436183325008,29.399,28.686,-23.686
446,1436183325028,29.739,28.686,-23.248
447,1436183325048,29.739,28.686,-23.904
448,1436183325067,30.111,28.686,-23.904
449,1436183325088,30.111,28.686,-23.904
450,1436183325108,30.427,28.686,-23.904
451,1436183325128,30.427,28.686,-23.904
452,1436183325148,30.427,28.686,-25.175
453,1436183325168,30.427,27.914,-26.716
454,1436183325188,30.427,27.404,-27.929
455,1436183325209,30.427,26.919,-28.579
456,1436183325227,30.427,26.919,-28.579
457,1436183325249,30.427,27.238,-29.589
458,1436183325298,29.328,27.238,-29.589
459,1436183325299,27.957,27.238,-29.589
460,1436183325306,26.858,27.238,-29.589
461,1436183325326,26.367,27.238,-30.484
462,1436183325348,26.045,27.238,-29.144
463,1436183325367,26.045,27.238,-29.144
464,1436183325385,26.843,27.586,-28.022
465,1436183325418,28.153,27.586,-27.386
466,1436183325427,28.622,27.586,-26.954
467,1436183325467,28.622,27.586,-26.954
468,1436183325468,28.279,27.586,-26.954
469,1436183325485,28.279,27.586,-26.954
470,1436183325513,28.61,27.586,-26.342
471,1436183325525,29.254,27.586,-25.872
472,1436183325545,29.611,27.586,-25.082
473,1436183325565,30.232,27.586,-24.464
474,1436183325587,30.83,27.586,-24.464
475,1436183325607,31.282,27.941,-24.464
476,1436183325627,31.637,27.941,-23.803
477,1436183325647,32.113,27.941,-23.803
478,1436183325667,32.113,27.941,-24.226
479,1436183325685,32.113,27.941,-24.861
480,1436183325708,32.113,27.621,-25.43
481,1436183325729,31.695,27.16,-25.43
482,1436183325746,31.695,27.16,-25.43
483,1436183325769,31.265,26.84,-25.43
484,1436183325787,31.265,26.84,-24.879
485,1436183325806,31.828,26.84,-24.879
486,1436183325826,31.828,26.84,-24.879
487,1436183325848,31.828,26.521,-24.879
488,1436183325868,31.828,26.521,-24.879
489,1436183325888,31.828,26.521,-24.879
490,1436183325909,31.828,26.072,-24.879
491,1436183325927,31.828,26.072,-25.718
492,1436183325947,31.828,25.759,-26.87
493,1436183325968,31.828,25.759,-27.555
494,1436183325985,31.828,25.759,-28.921
495,1436183326006,30.479,25.759,-28.921
496,1436183326036,28.993,25.457,-30.001
497,1436183326109,27.478,25.457,-30.354
498,1436183326120,26.098,25.457,-30.76
499,1436183326121,24.885,25.457,-30.76
500,1436183326122,24.295,25.901,-30.76
501,1436183326129,24.295,27.25,-30.368
502,1436183326146,23.939,27.822,-29.753
503,1436183326166,24.496,28.279,-29.341
