id,attr_time,attr_x,attr_y,attr_z
1,1436546010936,38.11,-25.602,-21.749
2,1436546010954,38.11,-25.602,-21.749
3,1436546010976,38.11,-25.602,-21.749
4,1436546010997,38.11,-25.602,-21.749
5,1436546011015,38.11,-25.602,-21.749
6,1436546011035,38.11,-25.602,-21.749
7,1436546011056,38.11,-25.602,-21.749
8,1436546011077,38.11,-25.602,-21.749
9,1436546011097,38.11,-25.602,-21.749
10,1436546011117,38.11,-25.602,-21.749
11,1436546011137,38.11,-25.602,-21.749
12,1436546011156,38.11,-25.602,-21.749
13,1436546011176,38.467,-25.602,-21.749
14,1436546011196,38.467,-25.602,-21.749
15,1436546011217,38.467,-25.602,-21.749
16,1436546011240,38.467,-25.602,-21.447
17,1436546011299,38.467,-25.602,-21.447
18,1436546011300,38.467,-25.602,-21.447
19,1436546011301,38.467,-25.602,-21.447
20,1436546011325,38.807,-25.602,-21.447
21,1436546011334,38.807,-25.602,-21.447
22,1436546011360,38.807,-25.602,-21.447
23,1436546011374,38.807,-25.602,-21.447
24,1436546011395,38.807,-25.602,-21.447
25,1436546011415,38.807,-25.602,-21.447
26,1436546011435,38.807,-25.602,-21.447
27,1436546011455,38.807,-25.602,-21.447
28,1436546011475,38.807,-25.602,-21.447
29,1436546011496,38.497,-25.602,-21.447
30,1436546011517,38.497,-25.602,-21.447
31,1436546011537,38.497,-25.602,-21.447
32,1436546011557,38.497,-25.602,-21.447
33,1436546011575,38.497,-25.602,-21.447
34,1436546011597,38.497,-25.602,-21.447
35,1436546011618,38.497,-25.602,-21.447
36,1436546011638,38.497,-25.602,-21.447
37,1436546011658,38.497,-25.602,-21.447
38,1436546011674,38.497,-25.602,-21.447
39,1436546011697,38.497,-25.602,-21.447
40,1436546011714,38.497,-25.602,-21.447
41,1436546011738,38.497,-25.602,-21.447
42,1436546011757,38.497,-25.602,-21.447
43,1436546011779,38.497,-25.602,-21.447
44,1436546011796,38.497,-25.602,-21.447
45,1436546011818,38.877,-25.602,-21.447
46,1436546011861,38.877,-25.602,-21.447
47,1436546011862,38.877,-25.602,-21.447
48,1436546011904,38.877,-25.602,-21.447
49,1436546011905,38.877,-25.602,-21.447
50,1436546011915,38.877,-25.602,-21.447
51,1436546011934,38.877,-25.602,-21.447
52,1436546011955,39.199,-25.602,-21.447
53,1436546011975,39.199,-25.602,-21.447
54,1436546012016,39.199,-25.602,-21.447
55,1436546012017,39.199,-25.602,-21.447
56,1436546012036,39.199,-25.602,-21.447
57,1436546012055,39.199,-25.602,-21.447
58,1436546012078,39.199,-25.602,-21.447
59,1436546012095,39.199,-25.602,-21.447
60,1436546012148,39.199,-25.602,-21.447
61,1436546012153,39.199,-25.602,-21.447
62,1436546012160,39.199,-25.602,-21.447
63,1436546012188,39.199,-25.602,-21.447
64,1436546012195,39.199,-25.602,-21.447
65,1436546012215,39.199,-25.602,-21.447
66,1436546012235,39.199,-25.602,-21.447
67,1436546012255,39.199,-25.602,-21.447
68,1436546012277,39.199,-25.602,-21.447
69,1436546012296,39.199,-25.602,-21.447
70,1436546012317,39.199,-25.602,-21.447
71,1436546012338,39.199,-25.602,-21.447
72,1436546012358,39.199,-25.602,-21.447
73,1436546012378,39.199,-25.602,-21.447
74,1436546012398,39.199,-25.602,-21.447
75,1436546012416,39.199,-25.602,-21.447
76,1436546012438,39.199,-25.602,-21.447
77,1436546012457,39.199,-25.602,-21.447
78,1436546012477,39.199,-25.602,-21.447
79,1436546012495,39.199,-25.602,-21.447
80,1436546012518,39.199,-25.602,-21.447
81,1436546012539,39.199,-25.602,-21.447
82,1436546012560,39.199,-25.602,-21.447
83,1436546012577,39.199,-25.602,-21.447
84,1436546012597,39.199,-25.292,-21.447
85,1436546012615,39.199,-25.292,-21.447
86,1436546012636,39.199,-25.292,-21.447
87,1436546012656,39.199,-25.292,-21.447
88,1436546012676,39.199,-25.292,-21.447
89,1436546012732,39.199,-25.292,-21.447
90,1436546012737,39.199,-25.292,-21.447
91,1436546012747,39.199,-25.292,-21.447
92,1436546012755,39.199,-25.292,-21.447
93,1436546012775,39.199,-25.292,-21.447
94,1436546012796,38.87,-25.292,-21.447
95,1436546012815,38.87,-25.292,-21.447
96,1436546012842,38.87,-25.292,-21.447
97,1436546012857,38.87,-25.292,-21.447
98,1436546012877,38.87,-25.292,-21.447
99,1436546012898,38.87,-25.292,-21.447
100,1436546012915,38.87,-25.292,-21.447
101,1436546012936,38.87,-25.292,-21.447
102,1436546012960,38.528,-25.292,-21.447
103,1436546012976,38.528,-24.972,-21.447
104,1436546012997,38.528,-24.972,-21.447
105,1436546013016,38.528,-24.972,-21.447
106,1436546013037,38.528,-24.972,-21.447
107,1436546013059,38.528,-24.972,-21.447
108,1436546013079,38.528,-24.972,-21.447
109,1436546013096,38.528,-24.972,-21.447
110,1436546013115,38.528,-24.972,-21.447
111,1436546013137,38.528,-24.972,-21.447
112,1436546013156,38.528,-24.972,-21.447
113,1436546013177,38.528,-24.972,-21.447
114,1436546013211,38.528,-24.972,-21.769
115,1436546013217,38.528,-24.972,-21.769
116,1436546013236,38.528,-24.972,-21.769
117,1436546013256,38.528,-24.972,-21.769
118,1436546013276,38.528,-24.972,-21.769
119,1436546013296,38.528,-24.972,-21.769
120,1436546013316,38.528,-24.972,-21.769
121,1436546013337,38.528,-24.972,-21.769
122,1436546013362,38.528,-24.972,-21.769
123,1436546013377,38.528,-24.972,-21.769
124,1436546013398,38.528,-24.972,-21.769
125,1436546013422,38.528,-24.972,-21.769
126,1436546013488,38.528,-24.972,-21.769
127,1436546013489,38.528,-24.972,-21.769
128,1436546013490,38.528,-24.972,-22.126
129,1436546013508,38.528,-24.972,-22.126
130,1436546013516,38.528,-24.609,-22.126
131,1436546013540,38.528,-24.609,-22.456
132,1436546013556,38.528,-24.609,-22.456
133,1436546013576,38.528,-24.198,-22.456
134,1436546013598,38.528,-24.198,-22.802
135,1436546013616,38.528,-23.828,-22.802
136,1436546013637,38.528,-23.828,-23.121
137,1436546013659,38.528,-23.5,-23.121
138,1436546013677,38.201,-23.5,-23.121
139,1436546013700,38.201,-23.5,-23.468
140,1436546013717,38.201,-23.5,-23.468
141,1436546013738,38.201,-23.5,-23.468
142,1436546013760,37.785,-24.455,-23.468
143,1436546013777,37.785,-25.267,-23.468
144,1436546013798,37.785,-26.048,-23.468
145,1436546013820,37.362,-26.048,-23.468
146,1436546013837,37.362,-26.048,-23.468
147,1436546013858,37.005,-26.048,-23.468
148,1436546013880,37.005,-26.048,-23.468
149,1436546013898,37.005,-26.048,-23.468
150,1436546013917,36.589,-25.709,-23.468
151,1436546013937,36.589,-25.389,-23.468
152,1436546013958,36.589,-25.012,-23.468
153,1436546013978,36.253,-25.012,-23.468
154,1436546013997,36.253,-24.607,-23.468
155,1436546014017,36.253,-24.607,-23.468
156,1436546014037,36.253,-24.147,-23.468
157,1436546014057,36.253,-23.712,-23.78
158,1436546014076,36.253,-23.712,-23.78
159,1436546014098,36.77,-23.26,-23.78
160,1436546014117,36.77,-23.568,-23.78
161,1436546014139,37.11,-23.568,-24.136
162,1436546014159,37.11,-23.959,-24.136
163,1436546014177,37.11,-23.959,-24.136
164,1436546014231,37.11,-24.551,-24.441
165,1436546014232,37.11,-24.551,-24.441
166,1436546014257,37.11,-25.009,-24.441
167,1436546014258,37.11,-25.009,-24.441
168,1436546014279,37.11,-25.009,-24.441
169,1436546014301,37.11,-25.009,-24.743
170,1436546014317,37.434,-25.009,-24.743
171,1436546014337,37.434,-25.009,-24.743
172,1436546014363,37.434,-25.463,-24.743
173,1436546014378,37.434,-25.463,-24.743
174,1436546014399,37.434,-25.463,-24.743
175,1436546014417,37.434,-25.039,-24.743
176,1436546014437,37.434,-25.039,-24.743
177,1436546014459,37.434,-25.039,-24.743
178,1436546014480,37.434,-25.039,-24.743
179,1436546014499,37.434,-25.039,-24.743
180,1436546014520,37.434,-24.307,-24.743
181,1436546014540,37.434,-23.329,-24.743
182,1436546014559,37.434,-22.648,-24.743
183,1436546014580,37.776,-21.936,-24.743
184,1436546014600,37.776,-21.936,-24.743
185,1436546014619,37.776,-21.936,-24.743
186,1436546014638,38.174,-21.936,-24.743
187,1436546014658,38.174,-21.936,-24.743
188,1436546014680,38.174,-21.936,-24.743
189,1436546014699,38.517,-22.792,-24.743
190,1436546014719,38.517,-23.373,-24.743
191,1436546014737,38.517,-23.373,-25.077
192,1436546014757,38.517,-23.373,-25.077
193,1436546014780,38.517,-23.753,-25.077
194,1436546014801,38.517,-23.753,-25.077
195,1436546014819,38.517,-23.753,-25.077
196,1436546014838,38.517,-23.753,-25.077
197,1436546014859,38.517,-23.753,-25.402
198,1436546014877,38.517,-23.251,-25.402
199,1436546014899,38.517,-23.251,-25.402
200,1436546014921,38.517,-23.251,-25.402
201,1436546014982,38.517,-23.251,-25.402
202,1436546014993,38.517,-22.883,-25.402
203,1436546014994,38.517,-22.883,-25.402
204,1436546015005,38.517,-22.883,-25.402
205,1436546015018,38.517,-22.502,-25.402
206,1436546015038,38.517,-22.033,-25.402
207,1436546015058,38.517,-21.417,-25.402
208,1436546015078,38.517,-21.417,-25.402
209,1436546015100,38.862,-20.816,-25.402
210,1436546015118,38.862,-20.816,-25.402
211,1436546015140,38.862,-20.816,-25.402
212,1436546015159,38.862,-21.25,-25.402
213,1436546015184,39.193,-21.25,-25.402
214,1436546015201,39.193,-21.957,-25.402
215,1436546015222,39.193,-21.957,-25.402
216,1436546015240,39.193,-21.957,-25.402
217,1436546015261,39.527,-21.957,-25.09
218,1436546015281,39.527,-21.957,-25.09
219,1436546015301,39.527,-21.957,-25.09
220,1436546015322,39.527,-21.957,-25.09
221,1436546015341,39.527,-21.957,-25.09
222,1436546015361,39.527,-21.957,-25.09
223,1436546015380,39.527,-21.957,-25.09
224,1436546015403,39.527,-21.545,-25.09
225,1436546015421,39.527,-21.545,-25.09
226,1436546015442,39.527,-21.545,-25.09
227,1436546015461,39.527,-21.089,-25.09
228,1436546015478,39.527,-21.089,-25.09
229,1436546015500,39.527,-20.414,-25.09
230,1436546015519,39.527,-19.99,-25.09
231,1436546015540,39.527,-19.573,-25.09
232,1436546015560,39.527,-19.163,-25.09
233,1436546015581,39.527,-19.163,-25.09
234,1436546015600,39.527,-19.163,-25.09
235,1436546015621,39.527,-19.163,-25.09
236,1436546015639,39.848,-19.163,-25.09
237,1436546015667,39.848,-19.914,-25.09
238,1436546015723,39.848,-20.385,-25.09
239,1436546015724,39.848,-20.832,-25.09
240,1436546015725,39.848,-20.832,-25.09
241,1436546015748,39.848,-20.832,-25.09
242,1436546015758,39.848,-20.408,-25.09
243,1436546015780,39.848,-20.408,-25.393
244,1436546015798,39.848,-20.408,-25.393
245,1436546015818,39.848,-20.408,-25.393
246,1436546015839,39.848,-20.408,-25.393
247,1436546015859,39.506,-20.408,-25.393
248,1436546015882,39.506,-20.408,-25.393
249,1436546015899,39.506,-20.724,-25.393
250,1436546015922,39.132,-20.724,-25.393
251,1436546015939,39.132,-20.724,-25.393
252,1436546015963,39.132,-20.724,-25.393
253,1436546015982,38.798,-20.724,-25.393
254,1436546016001,38.798,-20.724,-25.393
255,1436546016021,38.798,-20.724,-25.393
256,1436546016042,38.798,-20.724,-25.393
257,1436546016062,38.798,-20.724,-25.393
258,1436546016082,38.798,-20.724,-25.393
259,1436546016099,38.798,-21.032,-25.718
260,1436546016119,38.798,-21.032,-25.718
261,1436546016142,38.798,-21.032,-25.718
262,1436546016162,38.481,-21.032,-25.718
263,1436546016182,38.481,-21.032,-25.718
264,1436546016200,38.481,-22.331,-25.718
265,1436546016219,38.481,-23.085,-25.718
266,1436546016241,38.113,-23.809,-25.718
267,1436546016261,38.113,-23.809,-25.718
268,1436546016284,38.113,-24.415,-25.718
269,1436546016314,38.113,-24.833,-25.718
270,1436546016352,37.609,-24.833,-26.058
271,1436546016353,37.609,-24.432,-26.058
272,1436546016359,37.609,-24.432,-26.058
273,1436546016379,37.609,-24.432,-26.058
274,1436546016399,37.609,-23.947,-26.058
275,1436546016430,37.609,-23.947,-26.058
276,1436546016442,37.255,-22.994,-26.058
277,1436546016459,37.255,-22.994,-26.058
278,1436546016479,37.255,-22.438,-26.058
279,1436546016499,37.255,-22.08,-26.058
280,1436546016519,37.255,-21.71,-26.058
281,1436546016539,37.255,-21.182,-25.717
282,1436546016571,37.255,-21.182,-25.717
283,1436546016589,37.255,-21.182,-25.717
284,1436546016599,37.255,-21.182,-25.717
285,1436546016619,37.567,-21.533,-25.717
286,1436546016639,37.567,-22.129,-25.717
287,1436546016659,37.567,-22.129,-25.717
288,1436546016679,37.567,-21.572,-25.717
289,1436546016699,37.567,-21.572,-25.717
290,1436546016719,37.567,-21.25,-25.717
291,1436546016739,37.567,-21.25,-25.717
292,1436546016759,37.884,-21.25,-25.717
293,1436546016779,37.884,-21.25,-25.717
294,1436546016799,37.884,-20.84,-25.717
295,1436546016819,37.884,-20.84,-25.717
296,1436546016841,37.884,-20.41,-25.717
297,1436546016859,37.884,-20.41,-25.717
298,1436546016882,37.884,-19.432,-25.717
299,1436546016903,37.884,-18.661,-26.052
300,1436546016920,37.884,-17.977,-26.052
301,1436546016941,37.884,-16.821,-26.052
302,1436546016962,37.884,-16.246,-26.052
303,1436546016983,37.884,-16.595,-26.052
304,1436546017004,38.233,-16.595,-26.391
305,1436546017020,38.725,-16.595,-26.391
306,1436546017041,39.134,-17.17,-26.391
307,1436546017062,39.134,-17.559,-26.391
308,1436546017082,39.654,-17.559,-26.391
309,1436546017100,39.654,-17.559,-26.391
310,1436546017175,39.654,-17.559,-26.391
311,1436546017176,39.654,-17.559,-26.391
312,1436546017177,39.654,-17.559,-26.391
313,1436546017190,39.654,-17.559,-26.391
314,1436546017201,39.654,-17.559,-26.391
315,1436546017220,39.654,-17.559,-26.391
316,1436546017241,39.654,-18.035,-26.391
317,1436546017260,39.654,-18.356,-26.391
318,1436546017280,39.654,-18.673,-26.391
319,1436546017303,39.654,-18.673,-26.391
320,1436546017320,39.654,-19.107,-26.391
321,1436546017340,39.654,-19.107,-26.391
322,1436546017361,39.654,-18.78,-26.391
323,1436546017380,39.654,-18.78,-26.391
324,1436546017402,39.654,-18.78,-26.391
325,1436546017423,39.654,-18.78,-26.715
326,1436546017443,39.654,-18.78,-26.715
327,1436546017463,39.654,-18.78,-26.715
328,1436546017483,39.654,-18.78,-26.715
329,1436546017503,39.654,-18.78,-26.715
330,1436546017524,39.654,-18.78,-26.715
331,1436546017543,39.654,-18.78,-26.715
332,1436546017563,39.654,-18.78,-26.715
333,1436546017582,39.654,-18.78,-26.715
334,1436546017603,39.654,-18.78,-26.715
335,1436546017621,39.654,-18.78,-26.715
336,1436546017640,39.654,-18.78,-26.715
337,1436546017663,39.654,-18.78,-26.715
338,1436546017685,39.654,-18.78,-27.017
339,1436546017706,39.654,-18.78,-27.017
340,1436546017721,39.654,-18.78,-27.017
341,1436546017743,39.654,-18.78,-27.017
342,1436546017762,39.654,-18.78,-27.017
343,1436546017785,39.654,-18.78,-27.017
344,1436546017801,39.654,-18.78,-27.017
345,1436546017822,39.654,-18.78,-27.017
346,1436546017901,39.654,-18.78,-27.017
347,1436546017902,39.654,-18.78,-27.017
348,1436546017903,39.654,-18.78,-27.017
349,1436546017904,39.311,-18.78,-27.017
350,1436546017938,39.311,-18.78,-27.317
351,1436546017966,39.311,-18.78,-27.317
352,1436546017967,39.311,-18.78,-27.317
353,1436546017995,39.311,-18.78,-27.317
354,1436546018000,39.311,-18.78,-27.317
355,1436546018025,39.311,-18.457,-27.317
356,1436546018041,39.311,-18.457,-27.317
357,1436546018060,39.311,-18.138,-27.317
358,1436546018081,39.311,-18.138,-27.317
359,1436546018105,39.311,-18.138,-27.317
360,1436546018120,39.311,-18.138,-27.317
361,1436546018140,39.311,-18.138,-27.317
362,1436546018160,39.311,-18.138,-27.317
363,1436546018180,39.311,-18.138,-27.317
364,1436546018202,39.311,-18.138,-27.317
365,1436546018222,39.311,-18.138,-27.317
366,1436546018242,39.311,-17.822,-27.317
367,1436546018261,39.311,-17.822,-27.317
368,1436546018282,39.311,-17.822,-27.317
369,1436546018304,39.311,-17.822,-27.317
370,1436546018324,39.311,-17.822,-27.317
371,1436546018344,39.311,-17.822,-27.317
372,1436546018363,39.311,-17.822,-27.317
373,1436546018383,39.311,-17.822,-27.317
374,1436546018400,39.311,-18.203,-27.317
375,1436546018422,39.311,-18.203,-27.317
376,1436546018442,39.311,-18.203,-27.317
377,1436546018471,39.311,-18.203,-27.317
378,1436546018480,39.311,-18.203,-27.317
379,1436546018500,39.311,-18.203,-27.008
380,1436546018524,39.311,-18.203,-27.008
381,1436546018542,39.311,-18.203,-27.008
382,1436546018563,39.663,-18.203,-27.008
383,1436546018583,39.663,-18.203,-27.008
384,1436546018602,39.663,-17.893,-26.702
385,1436546018624,39.663,-17.893,-26.702
386,1436546018685,39.663,-17.893,-26.702
387,1436546018686,39.663,-17.893,-26.702
388,1436546018687,39.663,-17.893,-26.702
389,1436546018705,39.663,-17.893,-26.702
390,1436546018722,39.663,-17.893,-26.702
391,1436546018741,39.663,-17.893,-26.702
392,1436546018762,39.663,-17.893,-26.702
393,1436546018781,39.964,-17.893,-26.702
394,1436546018802,39.964,-17.893,-26.702
395,1436546018823,39.964,-17.893,-26.702
396,1436546018849,39.964,-17.893,-26.702
397,1436546018863,39.964,-17.893,-26.702
398,1436546018882,39.964,-17.893,-26.702
399,1436546018905,39.964,-18.26,-26.702
400,1436546018924,39.964,-18.26,-26.702
401,1436546018944,39.964,-18.26,-26.702
402,1436546018965,39.964,-18.26,-26.702
403,1436546018984,39.964,-18.26,-26.702
404,1436546019004,39.964,-18.582,-26.702
405,1436546019025,39.964,-18.582,-26.702
406,1436546019045,39.964,-18.582,-26.702
407,1436546019066,39.964,-18.582,-26.702
408,1436546019087,39.964,-18.582,-26.702
409,1436546019122,39.964,-18.919,-26.702
410,1436546019123,39.964,-18.919,-26.702
411,1436546019142,39.964,-18.919,-26.702
412,1436546019164,39.964,-18.919,-26.702
413,1436546019184,39.631,-19.265,-26.702
414,1436546019204,39.631,-19.265,-26.702
415,1436546019225,39.631,-19.265,-26.702
416,1436546019244,39.631,-19.732,-26.702
417,1436546019265,39.631,-19.732,-26.702
418,1436546019292,39.631,-19.732,-26.702
419,1436546019309,39.314,-20.08,-26.702
420,1436546019326,39.314,-20.08,-26.702
421,1436546019346,39.314,-20.08,-26.702
422,1436546019365,39.314,-20.08,-26.702
423,1436546019389,39.314,-20.08,-26.702
424,1436546019448,39.314,-20.08,-26.702
425,1436546019449,39.314,-20.08,-26.702
426,1436546019459,39.314,-20.08,-26.702
427,1436546019462,39.314,-20.08,-26.702
428,1436546019484,39.314,-20.08,-26.702
429,1436546019507,39.314,-20.08,-26.702
430,1436546019523,39.314,-20.08,-26.702
431,1436546019554,39.314,-20.08,-26.702
432,1436546019562,39.314,-20.08,-26.702
433,1436546019584,39.314,-20.08,-26.702
434,1436546019603,39.314,-20.08,-26.702
435,1436546019623,39.314,-20.08,-26.702
436,1436546019645,39.314,-19.718,-26.702
437,1436546019666,39.314,-19.718,-26.702
438,1436546019684,39.314,-19.718,-26.702
439,1436546019705,39.314,-19.718,-26.702
440,1436546019725,39.314,-19.718,-26.702
441,1436546019745,39.314,-19.718,-26.702
442,1436546019762,39.314,-19.718,-26.702
443,1436546019782,39.314,-19.718,-27.003
444,1436546019803,39.002,-19.718,-27.003
445,1436546019823,39.002,-19.718,-27.003
446,1436546019842,39.002,-19.718,-27.003
447,1436546019867,39.002,-19.718,-27.003
448,1436546019882,39.002,-19.718,-27.003
449,1436546019914,39.002,-19.314,-27.003
450,1436546019922,38.658,-19.314,-27.345
451,1436546019943,38.658,-18.878,-27.345
452,1436546019962,38.658,-18.878,-27.345
453,1436546019982,38.658,-18.878,-27.345
454,1436546020003,38.658,-18.878,-27.345
455,1436546020023,38.658,-18.878,-27.345
456,1436546020043,38.658,-18.556,-27.345
457,1436546020063,38.658,-18.556,-27.345
458,1436546020083,38.658,-18.556,-27.345
459,1436546020104,38.658,-18.556,-27.345
460,1436546020158,38.658,-18.556,-27.345
461,1436546020159,38.658,-18.556,-27.345
462,1436546020162,38.658,-18.556,-27.345
463,1436546020182,38.658,-18.251,-27.345
464,1436546020202,38.658,-18.251,-27.345
465,1436546020223,38.658,-18.251,-27.345
466,1436546020242,38.658,-18.251,-27.345
467,1436546020262,38.658,-18.251,-27.345
468,1436546020283,38.658,-18.251,-27.345
469,1436546020304,38.658,-18.251,-27.345
470,1436546020327,38.658,-18.553,-27.345
471,1436546020346,38.658,-18.553,-27.688
472,1436546020363,39.009,-18.553,-27.688
473,1436546020384,39.009,-18.553,-27.688
474,1436546020404,39.009,-18.553,-28.08
475,1436546020426,39.009,-18.553,-28.08
476,1436546020446,39.009,-18.136,-28.08
477,1436546020466,39.009,-18.136,-28.08
478,1436546020483,39.009,-18.136,-28.501
479,1436546020506,39.009,-17.829,-28.501
480,1436546020526,39.009,-17.829,-28.501
481,1436546020546,39.009,-17.829,-28.501
482,1436546020566,39.009,-17.829,-28.501
483,1436546020586,39.009,-17.829,-28.501
484,1436546020603,39.318,-17.829,-28.501
485,1436546020624,39.318,-17.829,-28.501
486,1436546020645,39.318,-17.829,-28.808
487,1436546020666,39.318,-17.829,-28.808
488,1436546020686,39.318,-18.162,-28.808
489,1436546020705,39.318,-18.162,-28.808
490,1436546020723,39.318,-18.162,-28.808
491,1436546020744,39.012,-18.464,-28.808
492,1436546020808,39.012,-18.464,-28.808
493,1436546020809,39.012,-18.135,-28.808
