id,attr_time,attr_x,attr_y,attr_z
1,1436546010939,48.2742,-7.72095,-13.0188
2,1436546010961,48.2742,-7.72095,-13.0188
3,1436546010979,48.6252,-7.72095,-14.0274
4,1436546010997,47.7493,-8.95081,-13.8596
5,1436546011019,47.7493,-8.95081,-13.8596
6,1436546011038,47.9248,-8.0719,-13.0188
7,1436546011058,46.698,-7.54547,-12.5137
8,1436546011077,46.698,-7.54547,-12.5137
9,1436546011097,48.4497,-8.59985,-12.851
10,1436546011117,47.7493,-9.30328,-13.1866
11,1436546011138,47.7493,-9.30328,-13.1866
12,1436546011157,48.8007,-7.19299,-13.1866
13,1436546011177,48.2742,-7.72095,-12.6816
14,1436546011197,48.2742,-7.72095,-12.6816
15,1436546011216,48.2742,-7.37,-12.6816
16,1436546011238,47.2229,-8.0719,-13.3545
17,1436546011256,47.2229,-8.0719,-13.3545
18,1436546011275,47.9248,-7.72095,-13.3545
19,1436546011296,46.8735,-7.37,-14.0274
20,1436546011314,46.8735,-7.37,-14.0274
21,1436546011337,46.347,-6.84204,-12.178
22,1436546011355,48.2742,-9.12781,-12.3459
23,1436546011374,48.2742,-9.12781,-12.3459
24,1436546011395,48.0988,-7.89642,-13.1866
25,1436546011412,48.0988,-6.84204,-14.8682
26,1436546011436,48.0988,-6.84204,-14.8682
27,1436546011453,47.3984,-6.49109,-12.5137
28,1436546011474,48.0988,-8.2489,-13.8596
29,1436546011494,48.0988,-8.2489,-13.8596
30,1436546011513,48.4497,-6.84204,-11.8408
31,1436546011535,46.698,-7.19299,-13.5223
32,1436546011553,46.698,-7.19299,-13.5223
33,1436546011572,48.8007,-7.89642,-13.5223
34,1436546011592,48.2742,-8.0719,-12.3459
35,1436546011612,48.2742,-8.0719,-12.3459
36,1436546011633,48.0988,-8.2489,-13.1866
37,1436546011651,47.5739,-7.72095,-14.0274
38,1436546011671,47.5739,-7.72095,-14.0274
39,1436546011691,47.2229,-8.77533,-13.6917
40,1436546011711,46.8735,-9.47876,-14.0274
41,1436546011731,46.8735,-9.47876,-14.0274
42,1436546011749,47.0474,-6.49109,-12.5137
43,1436546011769,48.0988,-7.89642,-12.5137
44,1436546011790,48.0988,-7.89642,-12.5137
45,1436546011809,47.5739,-7.72095,-13.6917
46,1436546011830,48.0988,-9.30328,-12.178
47,1436546011849,48.0988,-9.30328,-12.178
48,1436546011868,47.3984,-7.19299,-14.8682
49,1436546011889,47.5739,-7.37,-13.0188
50,1436546011908,47.5739,-7.37,-13.0188
51,1436546011929,48.6252,-6.31409,-12.6816
52,1436546011947,47.5739,-7.01752,-13.0188
53,1436546011968,47.5739,-7.01752,-13.0188
54,1436546011988,47.0474,-7.19299,-13.1866
55,1436546012007,48.2742,-8.0719,-13.6917
56,1436546012027,48.2742,-8.0719,-13.6917
57,1436546012045,47.2229,-9.12781,-13.6917
58,1436546012067,47.3984,-8.95081,-13.1866
59,1436546012086,47.3984,-8.95081,-13.1866
60,1436546012106,47.5739,-7.72095,-12.3459
61,1436546012128,49.8505,-8.2489,-13.1866
62,1436546012145,49.8505,-8.2489,-13.1866
63,1436546012166,48.4497,-7.54547,-13.1866
64,1436546012185,48.0988,-8.2489,-13.8596
65,1436546012205,48.0988,-8.2489,-13.8596
66,1436546012223,47.9248,-7.37,-12.3459
67,1436546012245,47.0474,-8.95081,-13.8596
68,1436546012264,47.0474,-8.95081,-13.8596
69,1436546012284,47.2229,-7.37,-11.673
70,1436546012304,47.3984,-8.2489,-14.5325
71,1436546012324,47.3984,-8.2489,-14.5325
72,1436546012344,48.2742,-6.31409,-11.0001
73,1436546012364,46.5225,-9.12781,-14.7003
74,1436546012382,46.5225,-9.12781,-14.7003
75,1436546012402,49.501,-7.19299,-12.178
76,1436546012422,47.9248,-8.42438,-12.3459
77,1436546012443,47.9248,-8.42438,-12.3459
78,1436546012465,47.5739,-7.37,-12.0102
79,1436546012482,47.9248,-9.12781,-14.0274
80,1436546012502,47.9248,-9.12781,-14.0274
81,1436546012522,48.2742,-5.96314,-13.3545
82,1436546012539,46.8735,-7.72095,-13.0188
83,1436546012563,46.8735,-7.72095,-13.0188
84,1436546012580,47.5739,-6.31409,-13.3545
85,1436546012601,48.8007,-9.65424,-13.5223
86,1436546012621,48.8007,-9.65424,-13.5223
87,1436546012640,48.6252,-6.66657,-13.6917
88,1436546012662,46.5225,-8.77533,-13.0188
89,1436546012679,46.5225,-8.77533,-13.0188
90,1436546012699,47.9248,-8.0719,-14.3631
91,1436546012719,48.0988,-7.54547,-15.2039
92,1436546012739,48.0988,-7.54547,-15.2039
93,1436546012759,47.7493,-7.89642,-14.5325
94,1436546012779,47.5739,-9.47876,-13.0188
95,1436546012798,47.5739,-9.47876,-13.0188
96,1436546012819,49.8505,-7.54547,-13.1866
97,1436546012838,47.7493,-9.30328,-13.1866
98,1436546012856,47.7493,-9.30328,-13.1866
99,1436546012878,47.5739,-6.66657,-13.6917
100,1436546012896,47.7493,-8.59985,-13.5223
101,1436546012917,47.7493,-8.59985,-13.5223
102,1436546012937,47.5739,-7.01752,-14.0274
103,1436546012959,49.1501,-7.54547,-13.1866
104,1436546012977,49.1501,-7.54547,-13.1866
105,1436546012996,48.0988,-7.19299,-15.2039
106,1436546013016,47.3984,-7.89642,-12.851
107,1436546013035,47.3984,-7.89642,-12.851
108,1436546013058,47.7493,-7.19299,-15.2039
109,1436546013076,46.698,-8.2489,-14.1953
110,1436546013094,46.698,-8.2489,-14.1953
111,1436546013115,47.9248,-7.01752,-14.3631
112,1436546013135,47.7493,-7.89642,-13.5223
113,1436546013157,47.7493,-7.89642,-13.5223
114,1436546013173,47.0474,-8.95081,-13.1866
115,1436546013194,47.3984,-7.89642,-15.5411
116,1436546013212,47.3984,-7.89642,-15.5411
117,1436546013234,46.8735,-6.66657,-13.6917
118,1436546013253,47.3984,-8.2489,-13.8596
119,1436546013273,47.3984,-8.2489,-13.8596
120,1436546013293,48.0988,-7.54547,-13.1866
121,1436546013313,48.6252,-9.47876,-13.0188
122,1436546013333,48.6252,-9.47876,-13.0188
123,1436546013351,48.2742,-8.0719,-13.3545
124,1436546013372,48.8007,-8.95081,-13.5223
125,1436546013392,48.8007,-8.95081,-13.5223
126,1436546013410,46.347,-6.13861,-14.1953
127,1436546013431,46.1716,-7.72095,-14.0274
128,1436546013451,46.1716,-7.72095,-14.0274
129,1436546013471,48.4497,-7.19299,-13.8596
130,1436546013490,48.4497,-8.59985,-12.5137
131,1436546013511,48.4497,-8.59985,-12.5137
132,1436546013530,49.8505,-7.54547,-14.8682
133,1436546013550,47.5739,-9.47876,-13.3545
134,1436546013570,47.5739,-9.47876,-13.3545
135,1436546013590,48.4497,-7.19299,-12.851
136,1436546013609,47.3984,-7.19299,-13.8596
137,1436546013629,47.3984,-7.19299,-13.8596
138,1436546013649,48.6252,-7.01752,-13.0188
139,1436546013668,48.2742,-8.77533,-14.0274
140,1436546013689,48.2742,-8.77533,-14.0274
141,1436546013707,48.4497,-7.89642,-13.8596
142,1436546013730,47.5739,-8.77533,-14.3631
143,1436546013747,47.5739,-8.77533,-14.3631
144,1436546013768,48.4497,-8.2489,-14.5325
145,1436546013786,47.2229,-8.42438,-15.3732
146,1436546013803,47.2229,-8.42438,-15.3732
147,1436546013824,47.7493,-7.54547,-15.5411
148,1436546013843,47.7493,-8.2489,-16.214
149,1436546013862,47.7493,-8.2489,-16.214
150,1436546013887,47.0474,-7.54547,-15.5411
151,1436546013906,47.0474,-8.95081,-17.2226
152,1436546013928,47.0474,-8.95081,-17.2226
153,1436546013945,45.6467,-6.84204,-16.8869
154,1436546013965,46.347,-6.49109,-17.2226
155,1436546013985,46.347,-6.49109,-17.2226
156,1436546014005,45.8221,-5.96314,-16.0461
157,1436546014024,48.2742,-7.37,-18.0634
158,1436546014044,48.2742,-7.37,-18.0634
159,1436546014064,47.2229,-6.31409,-16.7175
160,1436546014084,47.2229,-8.0719,-16.7175
161,1436546014104,47.2229,-8.0719,-16.7175
162,1436546014122,47.5739,-7.72095,-16.0461
163,1436546014143,45.2957,-7.54547,-16.8869
164,1436546014162,45.2957,-7.54547,-16.8869
165,1436546014183,45.8221,-8.42438,-15.3732
166,1436546014203,45.2957,-8.59985,-18.9041
167,1436546014225,45.2957,-8.59985,-18.9041
168,1436546014242,45.6467,-6.84204,-18.2312
169,1436546014262,44.2444,-9.30328,-17.5583
170,1436546014282,44.2444,-9.30328,-17.5583
171,1436546014301,46.1716,-9.82971,-16.7175
172,1436546014324,47.0474,-12.8189,-14.8682
173,1436546014340,47.0474,-12.8189,-14.8682
174,1436546014361,45.8221,-14.7522,-14.7003
175,1436546014381,45.4712,-13.6978,-13.3545
176,1436546014400,45.4712,-13.6978,-13.3545
177,1436546014420,44.5953,-13.5223,-13.8596
178,1436546014438,44.4199,-12.6434,-13.6917
179,1436546014460,44.4199,-12.6434,-13.6917
180,1436546014479,45.2957,-11.7645,-12.5137
181,1436546014499,47.0474,-12.1155,-11.8408
182,1436546014519,47.0474,-12.1155,-11.8408
183,1436546014539,46.8735,-10.5331,-12.3459
184,1436546014559,47.5739,-10.8856,-14.3631
185,1436546014578,47.5739,-10.8856,-14.3631
186,1436546014598,47.3984,-8.2489,-14.5325
187,1436546014618,46.347,-7.19299,-14.8682
188,1436546014638,46.347,-7.19299,-14.8682
189,1436546014657,45.9976,-6.49109,-15.5411
190,1436546014677,47.0474,-5.78766,-17.2226
191,1436546014695,47.0474,-5.78766,-17.2226
192,1436546014717,46.698,-5.08423,-16.8869
193,1436546014737,46.347,-5.78766,-17.5583
194,1436546014755,46.347,-5.78766,-17.5583
195,1436546014776,46.698,-5.08423,-17.2226
196,1436546014795,45.6467,-8.59985,-16.5497
197,1436546014816,45.6467,-8.59985,-16.5497
198,1436546014835,46.5225,-9.47876,-15.3732
199,1436546014855,45.1202,-8.77533,-17.3904
200,1436546014875,45.1202,-8.77533,-17.3904
201,1436546014895,45.8221,-7.01752,-15.7089
202,1436546014915,46.5225,-7.01752,-17.7277
203,1436546014933,46.5225,-7.01752,-17.7277
204,1436546014954,47.0474,-6.13861,-15.8768
205,1436546014973,47.7493,-6.84204,-15.8768
206,1436546014994,47.7493,-6.84204,-15.8768
207,1436546015014,47.0474,-4.02985,-16.8869
208,1436546015033,45.9976,-4.3808,-15.5411
209,1436546015053,45.9976,-4.3808,-15.5411
210,1436546015072,46.698,-3.32642,-16.8869
211,1436546015092,48.4497,-4.02985,-15.8768
212,1436546015112,48.4497,-4.02985,-15.8768
213,1436546015132,47.2229,-3.15094,-16.3818
214,1436546015152,46.5225,-4.55627,-17.0547
215,1436546015171,46.5225,-4.55627,-17.0547
216,1436546015191,46.347,-4.02985,-16.5497
217,1436546015212,44.7708,-5.2597,-17.3904
218,1436546015231,44.7708,-5.2597,-17.3904
219,1436546015251,44.9463,-7.54547,-15.8768
220,1436546015271,45.9976,-14.5767,-12.851
221,1436546015289,45.9976,-14.5767,-12.851
222,1436546015310,43.895,-17.7399,-9.1507
223,1436546015330,44.5953,-19.4977,-7.80487
224,1436546015350,44.5953,-19.4977,-7.80487
225,1436546015369,45.1202,-19.6747,-7.63702
226,1436546015388,45.4712,-19.6747,-7.63702
227,1436546015409,45.4712,-19.6747,-7.63702
228,1436546015428,44.0704,-17.5644,-10.6644
229,1436546015449,43.895,-16.6855,-13.1866
230,1436546015468,43.895,-16.6855,-13.1866
231,1436546015490,43.7195,-15.4556,-13.6917
232,1436546015508,45.1202,-12.6434,-15.3732
233,1436546015528,45.1202,-12.6434,-15.3732
234,1436546015548,45.4712,-11.94,-15.7089
235,1436546015566,44.7708,-11.2366,-16.3818
236,1436546015587,44.7708,-11.2366,-16.3818
237,1436546015606,45.1202,-9.47876,-14.7003
238,1436546015626,47.2229,-10.1822,-16.7175
239,1436546015647,47.2229,-10.1822,-16.7175
240,1436546015666,45.6467,-8.2489,-16.5497
241,1436546015686,45.1202,-10.5331,-17.3904
242,1436546015706,45.1202,-10.5331,-17.3904
243,1436546015725,45.4712,-10.1822,-16.0461
244,1436546015745,44.9463,-13.1699,-15.5411
245,1436546015764,44.9463,-13.1699,-15.5411
246,1436546015787,43.7195,-13.6978,-13.0188
247,1436546015805,44.9463,-15.6311,-11.5051
248,1436546015824,44.9463,-15.6311,-11.5051
249,1436546015844,45.9976,-13.5223,-12.178
250,1436546015863,47.2229,-14.7522,-12.6816
251,1436546015885,47.2229,-14.7522,-12.6816
252,1436546015903,46.347,-11.7645,-13.1866
253,1436546015922,46.698,-9.30328,-15.5411
254,1436546016128,46.698,-9.30328,-15.5411
255,1436546016129,47.7493,-5.43518,-16.5497
256,1436546016130,47.0474,-3.67737,-17.5583
257,1436546016131,47.0474,-3.67737,-17.5583
258,1436546016132,45.6467,1.59607,-18.2312
259,1436546016133,45.2957,1.24359,-18.9041
260,1436546016134,45.2957,1.24359,-18.9041
261,1436546016135,45.8221,3.88031,-18.0634
262,1436546016136,45.9976,3.70483,-18.2312
263,1436546016137,45.9976,3.70483,-18.2312
264,1436546016141,47.2229,6.6925,-18.7363
265,1436546016160,45.1202,4.23279,-18.0634
266,1436546016183,45.1202,4.23279,-18.0634
267,1436546016199,46.698,1.94702,-18.2312
268,1436546016220,46.8735,-1.04065,-17.7277
269,1436546016239,46.8735,-1.04065,-17.7277
270,1436546016259,46.698,-4.02985,-14.8682
271,1436546016281,45.8221,-7.01752,-15.3732
272,1436546016299,45.8221,-7.01752,-15.3732
273,1436546016319,46.698,-9.30328,-13.8596
274,1436546016339,47.2229,-10.5331,-14.7003
275,1436546016358,47.2229,-10.5331,-14.7003
276,1436546016381,45.9976,-8.95081,-14.8682
277,1436546016398,46.347,-8.2489,-13.5223
278,1436546016416,46.347,-8.2489,-13.5223
279,1436546016437,45.6467,-7.54547,-15.8768
280,1436546016457,45.4712,-7.01752,-18.0634
281,1436546016477,45.4712,-7.01752,-18.0634
282,1436546016497,45.4712,-5.2597,-17.0547
283,1436546016514,45.2957,-6.13861,-16.8869
284,1436546016536,45.2957,-6.13861,-16.8869
285,1436546016555,46.698,-4.73328,-17.5583
286,1436546016576,44.9463,-5.08423,-17.8955
287,1436546016595,44.9463,-5.08423,-17.8955
288,1436546016616,47.5739,-3.50189,-18.399
289,1436546016635,45.2957,-2.97546,-18.5684
290,1436546016655,45.2957,-2.97546,-18.5684
291,1436546016675,47.2229,-5.2597,-19.072
292,1436546016694,46.8735,-6.66657,-17.3904
293,1436546016715,46.8735,-6.66657,-17.3904
294,1436546016733,47.0474,-7.54547,-15.2039
295,1436546016754,46.5225,-11.2366,-13.3545
296,1436546016773,46.5225,-11.2366,-13.3545
297,1436546016793,44.7708,-14.7522,-14.7003
298,1436546016813,44.0704,-14.7522,-13.6917
299,1436546016831,44.0704,-14.7522,-13.6917
300,1436546016852,45.1202,-12.9944,-15.036
301,1436546016872,44.7708,-12.9944,-16.3818
302,1436546016892,44.7708,-12.9944,-16.3818
303,1436546016912,45.6467,-9.30328,-16.5497
304,1436546016932,44.7708,-9.12781,-18.7363
305,1436546016951,44.7708,-9.12781,-18.7363
306,1436546016972,46.1716,-6.66657,-16.7175
307,1436546016991,45.2957,-7.54547,-18.9041
308,1436546017011,45.2957,-7.54547,-18.9041
309,1436546017031,46.8735,-6.31409,-18.399
310,1436546017049,45.6467,-6.84204,-18.2312
311,1436546017071,45.6467,-6.84204,-18.2312
312,1436546017090,44.9463,-4.73328,-18.2312
313,1436546017109,45.6467,-6.13861,-19.2398
314,1436546017130,45.6467,-6.13861,-19.2398
315,1436546017148,45.2957,-6.13861,-17.2226
316,1436546017169,45.2957,-7.54547,-17.8955
317,1436546017188,45.2957,-7.54547,-17.8955
318,1436546017211,45.4712,-7.72095,-15.3732
319,1436546017228,45.2957,-11.0611,-13.8596
320,1436546017248,45.2957,-11.0611,-13.8596
321,1436546017268,46.8735,-11.94,-13.6917
322,1436546017288,45.6467,-15.6311,-12.851
323,1436546017310,45.6467,-15.6311,-12.851
324,1436546017325,46.8735,-12.9944,-12.6816
325,1436546017347,45.8221,-12.9944,-14.0274
326,1436546017366,45.8221,-12.9944,-14.0274
327,1436546017387,45.6467,-10.0067,-12.5137
328,1436546017409,46.347,-8.95081,-16.5497
329,1436546017425,46.347,-8.95081,-16.5497
330,1436546017446,45.2957,-7.54547,-18.5684
331,1436546017465,45.4712,-9.12781,-17.3904
332,1436546017485,45.4712,-9.12781,-17.3904
333,1436546017508,47.2229,-7.37,-18.399
334,1436546017525,45.2957,-9.30328,-17.2226
335,1436546017545,45.2957,-9.30328,-17.2226
336,1436546017565,46.8735,-7.37,-18.7363
337,1436546017584,46.1716,-8.42438,-18.0634
338,1436546017606,46.1716,-8.42438,-18.0634
339,1436546017624,45.6467,-7.19299,-16.8869
340,1436546017644,46.1716,-9.47876,-17.7277
341,1436546017663,46.1716,-9.47876,-17.7277
342,1436546017682,45.8221,-9.12781,-15.3732
343,1436546017703,46.1716,-11.5875,-15.036
344,1436546017723,46.1716,-11.5875,-15.036
345,1436546017743,46.1716,-13.3453,-12.6816
346,1436546017762,44.0704,-14.4012,-14.3631
347,1436546017781,44.0704,-14.4012,-14.3631
348,1436546017802,47.7493,-12.8189,-12.851
349,1436546017821,45.6467,-15.2802,-13.1866
350,1436546017842,45.6467,-15.2802,-13.1866
351,1436546017860,45.9976,-12.8189,-15.2039
352,1436546017881,46.5225,-11.5875,-15.036
353,1436546017901,46.5225,-11.5875,-15.036
354,1436546017921,46.1716,-9.12781,-16.0461
355,1436546017941,45.6467,-10.7086,-19.2398
356,1436546017958,45.6467,-10.7086,-19.2398
357,1436546017980,44.0704,-7.37,-19.7449
358,1436546017999,45.4712,-8.42438,-18.7363
359,1436546018019,45.4712,-8.42438,-18.7363
360,1436546018040,47.2229,-5.96314,-19.4092
361,1436546018059,47.0474,-6.84204,-18.9041
362,1436546018079,47.0474,-6.84204,-18.9041
363,1436546018098,45.8221,-4.55627,-18.0634
364,1436546018118,44.5953,-6.13861,-19.577
365,1436546018138,44.5953,-6.13861,-19.577
366,1436546018158,45.6467,-4.3808,-18.9041
367,1436546018178,46.698,-7.89642,-17.2226
368,1436546018198,46.698,-7.89642,-17.2226
369,1436546018217,47.2229,-11.2366,-16.0461
370,1436546018237,47.2229,-12.6434,-12.6816
371,1436546018257,47.2229,-12.6434,-12.6816
372,1436546018275,44.7708,-12.6434,-14.3631
373,1436546018297,45.2957,-15.6311,-12.851
374,1436546018315,45.2957,-15.6311,-12.851
375,1436546018336,46.1716,-14.4012,-14.3631
376,1436546018355,45.2957,-14.5767,-15.8768
377,1436546018375,45.2957,-14.5767,-15.8768
378,1436546018396,46.1716,-12.291,-17.3904
379,1436546018414,43.895,-12.4664,-19.9127
380,1436546018434,43.895,-12.4664,-19.9127
381,1436546018454,44.5953,-8.95081,-20.2499
382,1436546018474,46.347,-11.0611,-19.9127
383,1436546018493,46.347,-11.0611,-19.9127
384,1436546018514,46.698,-9.30328,-18.9041
385,1436546018534,44.9463,-8.2489,-19.9127
386,1436546018553,44.9463,-8.2489,-19.9127
387,1436546018573,45.6467,-7.54547,-18.9041
388,1436546018592,45.4712,-9.47876,-18.7363
389,1436546018613,45.4712,-9.47876,-18.7363
390,1436546018634,45.6467,-7.19299,-18.5684
391,1436546018652,46.1716,-10.8856,-18.0634
392,1436546018672,46.1716,-10.8856,-18.0634
393,1436546018691,46.347,-11.0611,-15.8768
394,1436546018712,44.9463,-12.4664,-12.5137
395,1436546018732,44.9463,-12.4664,-12.5137
396,1436546018751,45.8221,-15.4556,-12.6816
397,1436546018770,45.6467,-17.3889,-10.8322
398,1436546018791,45.6467,-17.3889,-10.8322
399,1436546018809,45.9976,-15.9821,-8.14209
400,1436546018831,46.698,-17.038,-11.1679
401,1436546018849,46.698,-17.038,-11.1679
402,1436546018870,45.4712,-16.861,-11.0001
403,1436546018890,45.6467,-16.6855,-14.1953
404,1436546018908,45.6467,-16.6855,-14.1953
405,1436546018930,46.1716,-14.7522,-14.3631
406,1436546018947,44.4199,-14.0488,-16.0461
407,1436546018971,44.4199,-14.0488,-16.0461
408,1436546018988,45.8221,-12.291,-16.0461
409,1436546019008,45.1202,-13.6978,-16.7175
410,1436546019028,45.1202,-13.6978,-16.7175
411,1436546019048,45.2957,-13.8733,-16.5497
412,1436546019068,44.9463,-14.9277,-18.9041
413,1436546019087,44.9463,-14.9277,-18.9041
414,1436546019106,45.9976,-13.1699,-16.214
415,1436546019126,44.7708,-11.94,-17.0547
416,1436546019147,44.7708,-11.94,-17.0547
417,1436546019167,44.5953,-11.412,-16.8869
418,1436546019186,45.4712,-14.7522,-13.0188
419,1436546019206,45.4712,-14.7522,-13.0188
420,1436546019224,46.5225,-14.0488,-11.0001
421,1436546019246,45.6467,-17.3889,-10.8322
422,1436546019265,45.6467,-17.3889,-10.8322
423,1436546019285,46.347,-16.6855,-9.1507
424,1436546019305,47.0474,-17.038,-8.815
425,1436546019325,47.0474,-17.038,-8.815
426,1436546019344,46.347,-15.9821,-10.1593
427,1436546019367,45.8221,-16.861,-12.0102
428,1436546019384,45.8221,-16.861,-12.0102
429,1436546019404,47.0474,-14.2242,-13.1866
430,1436546019423,45.4712,-13.3453,-14.3631
431,1436546019442,45.4712,-13.3453,-14.3631
432,1436546019464,45.4712,-11.2366,-15.3732
433,1436546019483,45.4712,-10.8856,-16.7175
434,1436546019503,45.4712,-10.8856,-16.7175
435,1436546019523,45.9976,-10.0067,-14.8682
436,1436546019540,45.2957,-10.0067,-14.8682
437,1436546019562,45.2957,-10.0067,-14.8682
438,1436546019581,45.8221,-11.2366,-15.3732
439,1436546019601,45.2957,-11.412,-15.5411
440,1436546019622,45.2957,-11.412,-15.5411
441,1436546019641,46.1716,-9.12781,-15.7089
442,1436546019661,46.8735,-9.82971,-14.0274
443,1436546019681,46.8735,-9.82971,-14.0274
444,1436546019700,47.0474,-11.412,-12.5137
445,1436546019720,46.698,-14.9277,-12.178
446,1436546019740,46.698,-14.9277,-12.178
447,1436546019759,45.2957,-14.9277,-11.5051
448,1436546019779,45.2957,-15.6311,-11.1679
449,1436546019802,45.2957,-15.6311,-11.1679
450,1436546019819,44.7708,-13.3453,-11.3373
451,1436546019839,45.1202,-14.4012,-13.3545
452,1436546019857,45.1202,-14.4012,-13.3545
453,1436546019878,44.2444,-12.1155,-16.5497
454,1436546019898,44.0704,-14.0488,-17.0547
455,1436546019918,44.0704,-14.0488,-17.0547
456,1436546019938,44.5953,-11.7645,-19.2398
457,1436546019958,43.544,-12.8189,-18.5684
458,1436546019977,43.544,-12.8189,-18.5684
459,1436546019998,45.1202,-10.5331,-19.7449
460,1436546020017,42.8436,-12.8189,-18.5684
