id,attr_time,attr_x,attr_y,attr_z
1,1436463450095,-20.246,-5.953,11.282
2,1436463450096,-20.246,-5.953,10.926
3,1436463450097,-20.246,-5.953,10.926
4,1436463450098,-20.246,-5.953,10.926
5,1436463450113,-20.246,-5.953,10.926
6,1436463450127,-20.246,-5.953,10.926
7,1436463450147,-20.246,-5.953,10.926
8,1436463450167,-20.246,-5.953,10.926
9,1436463450192,-20.246,-5.953,10.581
10,1436463450207,-20.246,-5.953,10.581
11,1436463450228,-20.246,-6.26,10.581
12,1436463450247,-20.246,-6.26,10.581
13,1436463450267,-20.246,-6.26,10.581
14,1436463450288,-20.246,-6.26,10.581
15,1436463450310,-20.246,-6.26,10.581
16,1436463450328,-20.246,-6.26,10.581
17,1436463450348,-20.246,-6.26,10.581
18,1436463450371,-20.246,-6.26,10.581
19,1436463450389,-20.246,-6.26,10.581
20,1436463450411,-20.246,-6.26,10.581
21,1436463450428,-20.246,-6.26,10.581
22,1436463450448,-20.246,-6.26,10.581
23,1436463450470,-20.246,-6.26,10.581
24,1436463450492,-20.246,-6.26,10.581
25,1436463450509,-20.246,-6.26,10.581
26,1436463450529,-20.246,-6.26,10.581
27,1436463450548,-20.246,-6.26,10.581
28,1436463450567,-20.246,-5.947,10.581
29,1436463450594,-20.246,-5.947,10.581
30,1436463450612,-20.246,-5.947,10.581
31,1436463450634,-20.246,-5.947,10.581
32,1436463450649,-20.246,-5.947,10.581
33,1436463450668,-20.246,-5.947,10.581
34,1436463450688,-20.246,-5.947,10.581
35,1436463450708,-20.246,-5.947,10.581
36,1436463450729,-20.246,-5.947,10.581
37,1436463450750,-20.246,-5.947,10.581
38,1436463450805,-20.246,-5.947,10.581
39,1436463450810,-20.246,-5.947,10.581
40,1436463450811,-20.246,-5.947,10.581
41,1436463450828,-20.246,-5.947,10.581
42,1436463450849,-20.246,-5.947,10.581
43,1436463450870,-20.246,-5.947,10.581
44,1436463450888,-20.246,-5.947,10.581
45,1436463450914,-20.246,-5.947,10.581
46,1436463450929,-20.246,-5.947,10.581
47,1436463450949,-20.246,-5.947,10.581
48,1436463450970,-20.246,-5.947,10.581
49,1436463450989,-20.246,-5.947,10.581
50,1436463451008,-20.246,-5.947,10.581
51,1436463451030,-20.246,-5.947,10.581
52,1436463451052,-20.246,-5.947,10.581
53,1436463451070,-20.246,-5.947,10.581
54,1436463451092,-20.246,-5.947,10.581
55,1436463451112,-20.246,-5.947,10.581
56,1436463451130,-20.246,-5.947,10.581
57,1436463451149,-20.246,-5.947,10.581
58,1436463451170,-20.246,-5.947,10.581
59,1436463451191,-20.246,-5.947,10.581
60,1436463451213,-20.246,-5.947,10.581
61,1436463451231,-20.246,-5.947,10.581
62,1436463451248,-20.246,-5.947,10.581
63,1436463451272,-20.246,-5.947,10.581
64,1436463451293,-20.246,-5.947,10.581
65,1436463451313,-20.246,-5.947,10.581
66,1436463451331,-20.246,-5.947,10.581
67,1436463451349,-20.246,-5.947,10.581
68,1436463451369,-20.246,-5.947,10.581
69,1436463451390,-20.246,-5.947,10.581
70,1436463451414,-20.246,-5.947,10.581
71,1436463451433,-20.246,-5.947,10.581
72,1436463451454,-20.246,-5.947,10.581
73,1436463451472,-20.246,-5.947,10.581
74,1436463451492,-20.246,-5.947,10.581
75,1436463451569,-20.246,-5.947,10.581
76,1436463451570,-20.246,-5.947,10.581
77,1436463451571,-20.246,-5.947,10.581
78,1436463451572,-20.246,-5.947,10.581
79,1436463451592,-20.246,-5.947,10.581
80,1436463451614,-20.246,-5.947,10.581
81,1436463451629,-20.246,-5.947,10.581
82,1436463451656,-20.246,-5.947,10.581
83,1436463451682,-20.246,-5.947,10.581
84,1436463451690,-20.246,-5.947,10.581
85,1436463451710,-20.246,-5.947,10.581
86,1436463451729,-20.246,-5.947,10.581
87,1436463451755,-20.246,-5.947,10.581
88,1436463451772,-20.246,-5.947,10.581
89,1436463451792,-20.246,-5.947,10.581
90,1436463451813,-20.246,-5.947,10.581
91,1436463451861,-20.246,-5.947,10.581
92,1436463451862,-20.246,-5.947,10.581
93,1436463451872,-20.246,-5.947,10.581
94,1436463451893,-20.246,-5.947,10.581
95,1436463451913,-20.246,-5.947,10.581
96,1436463451932,-20.246,-5.947,10.581
97,1436463451954,-20.246,-5.947,10.581
98,1436463451970,-20.246,-5.947,10.581
99,1436463451992,-20.246,-5.947,10.581
100,1436463452014,-20.246,-5.947,10.581
101,1436463452032,-20.246,-5.947,10.581
102,1436463452053,-20.246,-5.947,10.581
103,1436463452069,-20.246,-5.947,10.581
104,1436463452091,-20.246,-5.947,10.581
105,1436463452112,-20.246,-5.947,10.581
106,1436463452130,-20.246,-5.947,10.581
107,1436463452153,-20.246,-5.947,10.581
108,1436463452174,-20.246,-5.947,10.581
109,1436463452193,-20.246,-5.947,10.581
110,1436463452212,-20.246,-5.947,10.581
111,1436463452233,-20.246,-5.947,10.581
112,1436463452287,-20.246,-5.947,10.581
113,1436463452289,-20.246,-5.947,10.581
114,1436463452290,-20.246,-5.947,10.581
115,1436463452317,-20.246,-5.947,10.581
116,1436463452329,-20.246,-5.947,10.581
117,1436463452358,-20.246,-5.947,10.581
118,1436463452371,-20.246,-5.947,10.581
119,1436463452389,-20.246,-5.947,10.581
120,1436463452412,-20.246,-5.947,10.581
121,1436463452429,-20.246,-5.947,10.581
122,1436463452452,-20.246,-5.947,10.581
123,1436463452473,-20.246,-5.947,10.581
124,1436463452490,-20.246,-5.947,10.581
125,1436463452510,-20.246,-5.947,10.581
126,1436463452533,-20.246,-5.947,10.581
127,1436463452553,-20.246,-5.947,10.581
128,1436463452573,-20.246,-5.947,10.581
129,1436463452593,-20.246,-5.947,10.581
130,1436463452613,-20.246,-5.947,10.581
131,1436463452633,-20.246,-5.947,10.917
132,1436463452653,-20.246,-5.947,10.917
133,1436463452673,-20.246,-5.947,10.917
134,1436463452695,-20.246,-5.947,11.236
135,1436463452709,-20.246,-5.947,11.236
136,1436463452733,-20.246,-5.947,11.236
137,1436463452753,-20.246,-5.947,11.236
138,1436463452773,-20.246,-5.947,11.613
139,1436463452792,-20.246,-5.947,11.613
140,1436463452813,-20.246,-5.947,11.613
141,1436463452833,-20.246,-5.947,12.016
142,1436463452853,-20.246,-5.947,12.016
143,1436463452873,-20.246,-5.947,12.322
144,1436463452893,-20.246,-5.947,12.322
145,1436463452914,-20.246,-6.277,12.322
146,1436463452934,-20.246,-6.277,12.721
147,1436463452952,-20.246,-6.277,12.721
148,1436463452977,-20.246,-6.277,12.721
149,1436463453027,-20.246,-6.277,13.064
150,1436463453032,-20.246,-6.277,13.064
151,1436463453033,-20.246,-6.637,13.064
152,1436463453050,-20.246,-6.637,13.064
153,1436463453074,-20.246,-6.637,13.404
154,1436463453090,-20.246,-6.994,13.404
155,1436463453110,-20.246,-6.994,13.404
156,1436463453132,-20.246,-6.994,13.404
157,1436463453150,-20.246,-7.429,13.404
158,1436463453173,-20.246,-7.429,13.404
159,1436463453196,-20.246,-8.036,13.404
160,1436463453212,-20.246,-8.72,13.404
161,1436463453236,-20.246,-8.72,13.404
162,1436463453253,-19.944,-9.286,13.404
163,1436463453273,-19.944,-9.286,13.404
164,1436463453293,-19.944,-9.68,13.404
165,1436463453313,-19.944,-9.68,13.404
166,1436463453334,-19.944,-10.188,13.404
167,1436463453354,-19.944,-10.188,13.404
168,1436463453370,-19.944,-10.586,13.404
169,1436463453390,-19.944,-10.586,13.404
170,1436463453410,-19.944,-10.586,13.404
171,1436463453430,-19.944,-10.586,13.404
172,1436463453450,-19.944,-10.902,13.404
173,1436463453474,-19.944,-10.902,13.404
174,1436463453493,-19.621,-10.902,13.404
175,1436463453514,-19.621,-11.297,13.404
176,1436463453533,-19.621,-11.297,13.746
177,1436463453554,-19.621,-11.297,13.746
178,1436463453573,-19.621,-11.607,13.746
179,1436463453594,-19.621,-11.607,13.746
180,1436463453612,-19.621,-11.607,14.094
181,1436463453634,-19.621,-11.607,14.094
182,1436463453654,-19.621,-11.607,14.094
183,1436463453673,-19.621,-11.607,14.422
184,1436463453693,-19.621,-11.607,14.422
185,1436463453766,-19.621,-11.607,14.422
186,1436463453767,-19.621,-11.607,14.831
187,1436463453771,-19.621,-11.607,14.831
188,1436463453772,-19.621,-11.607,14.831
189,1436463453794,-19.621,-11.607,15.223
190,1436463453827,-19.621,-11.607,15.223
191,1436463453832,-19.32,-11.247,15.223
192,1436463453851,-19.32,-11.247,15.701
193,1436463453871,-19.32,-11.247,15.701
194,1436463453904,-19.32,-11.247,15.701
195,1436463453912,-19.32,-11.247,16.073
196,1436463453939,-19.32,-11.247,16.073
197,1436463453957,-19.32,-11.247,16.073
198,1436463453971,-19.32,-11.247,16.41
199,1436463453991,-19.32,-11.247,16.41
200,1436463454011,-19.32,-11.247,16.41
201,1436463454033,-19.32,-11.247,16.41
202,1436463454050,-19.32,-11.247,16.835
203,1436463454070,-19.32,-11.608,16.835
204,1436463454090,-19.32,-11.608,16.835
205,1436463454110,-19.32,-11.608,16.835
206,1436463454133,-18.981,-12.001,17.161
207,1436463454157,-18.981,-12.001,17.161
208,1436463454170,-18.981,-12.001,17.161
209,1436463454194,-18.981,-12.001,17.161
210,1436463454212,-18.981,-12.348,17.161
211,1436463454237,-18.981,-12.348,17.161
212,1436463454252,-18.981,-12.348,17.161
213,1436463454270,-18.981,-12.348,17.161
214,1436463454290,-18.981,-12.348,17.161
215,1436463454310,-18.981,-12.348,17.48
216,1436463454330,-18.981,-12.348,17.48
217,1436463454350,-18.981,-11.782,17.48
218,1436463454370,-18.981,-10.778,17.48
219,1436463454390,-18.981,-10.778,17.832
220,1436463454415,-18.981,-10.333,17.832
221,1436463454430,-18.981,-9.931,17.832
222,1436463454453,-18.981,-9.468,17.832
223,1436463454471,-18.981,-9.468,17.832
224,1436463454492,-18.981,-9.085,17.832
225,1436463454512,-18.981,-9.085,18.209
226,1436463454533,-18.981,-9.085,18.209
227,1436463454552,-18.981,-8.775,18.209
228,1436463454571,-18.981,-8.775,18.209
229,1436463454591,-18.981,-8.775,18.209
230,1436463454613,-18.981,-8.775,18.209
231,1436463454634,-18.981,-8.775,18.209
232,1436463454654,-18.981,-8.775,18.209
233,1436463454674,-18.981,-8.401,18.209
234,1436463454693,-18.981,-8.401,18.209
235,1436463454711,-18.981,-8.401,18.209
236,1436463454733,-19.282,-8.1,18.209
237,1436463454753,-19.282,-8.1,18.209
238,1436463454773,-19.282,-8.1,18.209
239,1436463454792,-19.282,-8.1,18.209
240,1436463454814,-19.282,-8.1,18.209
241,1436463454834,-19.282,-8.1,17.837
242,1436463454854,-19.282,-8.1,17.837
243,1436463454873,-19.282,-8.1,17.837
244,1436463454894,-19.282,-8.412,17.837
245,1436463454914,-19.282,-8.412,17.44
246,1436463454933,-19.282,-8.412,17.44
247,1436463454953,-19.282,-8.85,17.44
248,1436463454975,-19.282,-8.85,17.44
249,1436463454995,-19.282,-9.23,17.44
250,1436463455014,-19.282,-9.23,17.108
251,1436463455032,-19.282,-9.23,17.108
252,1436463455064,-19.282,-9.582,17.108
253,1436463455119,-19.282,-9.582,17.108
254,1436463455120,-19.282,-9.582,17.108
255,1436463455121,-19.282,-9.912,17.108
256,1436463455137,-19.282,-9.912,16.755
257,1436463455153,-19.282,-9.912,16.755
258,1436463455172,-19.282,-10.267,16.755
259,1436463455192,-19.282,-10.267,16.755
260,1436463455217,-19.282,-10.267,16.755
261,1436463455233,-19.282,-10.594,16.348
262,1436463455254,-19.282,-10.594,16.348
263,1436463455273,-19.587,-10.594,16.348
264,1436463455293,-19.587,-10.594,16.012
265,1436463455315,-19.587,-10.939,16.012
266,1436463455332,-19.587,-10.939,16.012
267,1436463455354,-19.587,-10.939,15.701
268,1436463455375,-19.587,-10.939,15.701
269,1436463455395,-19.587,-10.939,15.701
270,1436463455415,-19.587,-11.283,15.701
271,1436463455437,-19.587,-11.283,15.701
272,1436463455453,-19.587,-11.283,15.306
273,1436463455474,-19.587,-11.283,15.306
274,1436463455495,-19.587,-11.283,15.306
275,1436463455514,-19.587,-11.283,15.306
276,1436463455535,-19.587,-11.283,15.306
277,1436463455554,-19.587,-11.283,14.987
278,1436463455575,-19.587,-11.283,14.987
279,1436463455594,-19.587,-11.283,14.987
280,1436463455614,-19.587,-11.283,14.987
281,1436463455637,-19.587,-11.283,14.987
282,1436463455658,-19.587,-11.283,14.987
283,1436463455678,-19.587,-11.283,14.987
284,1436463455696,-19.587,-11.283,14.987
285,1436463455714,-19.587,-11.283,14.987
286,1436463455733,-19.587,-11.283,14.987
287,1436463455755,-19.587,-10.92,14.987
288,1436463455865,-19.587,-10.92,14.987
289,1436463455866,-19.587,-10.92,15.357
290,1436463455867,-19.587,-10.92,15.357
291,1436463455868,-19.587,-10.556,15.357
292,1436463455869,-19.587,-10.556,15.357
293,1436463455889,-19.889,-10.556,15.357
294,1436463455919,-19.889,-10.556,15.693
295,1436463455920,-19.889,-10.195,15.693
296,1436463455935,-19.889,-10.195,15.693
297,1436463456026,-19.889,-10.195,15.693
298,1436463456029,-19.889,-10.195,16.085
299,1436463456030,-19.889,-10.195,16.085
300,1436463456034,-19.889,-10.195,16.085
301,1436463456035,-19.889,-10.195,16.085
302,1436463456054,-19.889,-10.195,16.085
303,1436463456073,-19.889,-10.195,16.085
304,1436463456093,-19.889,-10.195,16.436
305,1436463456115,-19.889,-10.195,16.436
306,1436463456136,-19.889,-10.195,16.436
307,1436463456156,-19.889,-10.195,16.436
308,1436463456175,-19.889,-10.195,16.436
309,1436463456196,-19.889,-10.195,16.436
310,1436463456216,-19.889,-10.537,16.436
311,1436463456236,-19.889,-10.537,16.436
312,1436463456256,-19.889,-10.537,16.436
313,1436463456274,-19.889,-10.879,16.436
314,1436463456296,-19.889,-10.879,16.436
315,1436463456316,-19.889,-10.879,16.436
316,1436463456336,-19.889,-11.198,16.436
317,1436463456355,-19.889,-11.198,16.436
318,1436463456373,-19.889,-11.198,16.436
319,1436463456397,-19.889,-11.512,16.436
320,1436463456416,-19.889,-11.512,16.436
321,1436463456436,-19.889,-11.512,16.436
322,1436463456456,-19.889,-11.512,16.102
323,1436463456476,-19.889,-11.512,16.102
324,1436463456495,-19.889,-11.512,16.102
325,1436463456515,-19.889,-11.512,16.102
326,1436463456534,-19.889,-11.512,16.102
327,1436463456606,-19.889,-11.512,16.102
328,1436463456607,-19.889,-11.512,15.681
329,1436463456620,-19.889,-11.512,15.681
330,1436463456623,-19.889,-11.512,15.681
331,1436463456633,-19.889,-11.512,15.681
332,1436463456657,-19.889,-11.512,15.339
333,1436463456675,-19.889,-11.154,15.339
334,1436463456694,-19.889,-11.154,15.339
335,1436463456714,-19.889,-11.154,14.952
336,1436463456733,-19.889,-10.839,14.952
337,1436463456756,-19.889,-10.839,14.952
338,1436463456775,-19.889,-10.839,14.952
339,1436463456796,-20.208,-10.366,14.595
340,1436463456814,-20.208,-10.366,14.595
341,1436463456837,-20.208,-10.063,14.595
342,1436463456857,-20.208,-10.063,14.595
343,1436463456877,-20.208,-10.063,14.595
344,1436463456896,-20.208,-9.704,14.595
345,1436463456921,-20.208,-9.704,14.595
346,1436463456935,-20.208,-9.704,14.595
347,1436463456956,-20.208,-9.31,14.273
348,1436463456975,-20.208,-9.31,14.273
349,1436463456998,-20.208,-9.31,14.273
350,1436463457015,-20.208,-8.97,14.273
351,1436463457035,-20.208,-8.97,14.273
352,1436463457054,-20.208,-8.97,14.273
353,1436463457074,-20.208,-8.97,14.619
354,1436463457094,-20.208,-8.97,14.619
355,1436463457119,-20.208,-8.97,14.619
356,1436463457139,-20.208,-8.97,14.619
357,1436463457160,-20.208,-8.97,14.93
358,1436463457177,-20.208,-8.97,14.93
359,1436463457194,-20.208,-8.97,14.93
360,1436463457214,-20.208,-8.97,14.93
361,1436463457235,-20.208,-8.97,15.229
362,1436463457255,-20.208,-8.97,15.229
363,1436463457278,-20.208,-8.97,15.229
364,1436463457328,-20.208,-9.315,15.229
365,1436463457341,-20.208,-9.315,15.229
366,1436463457342,-20.208,-9.315,15.229
367,1436463457355,-20.208,-9.757,15.229
368,1436463457379,-20.208,-9.757,15.229
369,1436463457394,-20.208,-9.757,15.229
370,1436463457416,-20.208,-10.189,15.229
371,1436463457437,-20.208,-10.189,15.229
372,1436463457455,-20.208,-10.189,15.229
373,1436463457475,-20.208,-10.63,15.229
374,1436463457495,-20.208,-10.63,15.229
375,1436463457516,-20.208,-10.63,15.229
376,1436463457535,-20.208,-10.63,15.229
377,1436463457565,-20.208,-10.957,15.229
378,1436463457574,-20.208,-10.957,15.229
379,1436463457594,-20.208,-10.957,15.229
380,1436463457622,-20.208,-10.957,15.229
381,1436463457634,-20.208,-11.315,15.229
382,1436463457656,-20.208,-11.315,15.229
383,1436463457674,-20.208,-11.315,15.229
384,1436463457694,-20.208,-11.315,15.229
385,1436463457714,-20.208,-11.315,15.229
386,1436463457734,-20.208,-11.315,15.229
387,1436463457757,-20.208,-11.616,15.229
388,1436463457777,-20.208,-11.616,15.229
389,1436463457804,-20.208,-11.616,15.229
390,1436463457814,-20.208,-11.616,15.229
391,1436463457835,-20.208,-11.616,15.229
392,1436463457854,-20.208,-11.616,15.229
393,1436463457875,-20.208,-11.616,15.229
394,1436463457899,-20.208,-11.616,15.229
395,1436463457923,-20.208,-11.616,15.229
396,1436463457941,-20.208,-11.616,15.229
397,1436463457959,-20.208,-11.616,15.229
398,1436463458055,-20.208,-11.616,15.229
399,1436463458056,-20.208,-11.616,15.229
400,1436463458057,-20.208,-11.23,15.229
401,1436463458058,-20.208,-11.23,15.229
402,1436463458059,-20.208,-11.23,15.229
403,1436463458075,-20.208,-11.23,15.229
404,1436463458097,-20.208,-10.873,15.229
405,1436463458118,-20.208,-10.873,15.229
406,1436463458135,-20.208,-10.873,15.229
407,1436463458155,-20.208,-10.494,15.229
408,1436463458179,-20.208,-10.494,15.229
409,1436463458199,-20.208,-10.494,15.229
410,1436463458218,-20.208,-10.494,15.229
411,1436463458236,-20.208,-10.154,15.229
412,1436463458255,-20.208,-10.154,15.229
413,1436463458279,-20.208,-10.154,15.229
414,1436463458299,-20.208,-10.154,15.229
415,1436463458318,-20.208,-10.154,15.229
416,1436463458337,-20.208,-10.154,15.229
417,1436463458357,-20.208,-10.154,15.229
418,1436463458374,-20.208,-10.154,15.229
419,1436463458396,-20.208,-10.154,15.229
420,1436463458419,-20.208,-10.154,15.229
421,1436463458437,-20.208,-10.154,15.229
422,1436463458456,-20.208,-10.455,15.229
423,1436463458474,-20.208,-10.455,15.229
424,1436463458496,-20.208,-10.455,15.229
425,1436463458516,-20.208,-10.455,15.229
426,1436463458536,-20.208,-10.826,15.229
427,1436463458558,-20.208,-10.826,15.229
428,1436463458579,-20.208,-10.826,15.229
429,1436463458599,-20.208,-11.148,15.229
430,1436463458618,-20.208,-11.148,15.229
431,1436463458639,-20.208,-11.148,15.229
432,1436463458707,-20.208,-11.46,15.229
433,1436463458708,-20.208,-11.46,15.229
434,1436463458709,-20.208,-11.46,15.229
435,1436463458717,-20.208,-11.46,15.229
436,1436463458745,-20.208,-11.46,15.229
437,1436463458757,-20.208,-11.853,15.229
438,1436463458775,-20.208,-11.853,15.229
439,1436463458797,-20.208,-11.853,15.229
440,1436463458816,-20.208,-11.853,15.229
441,1436463458837,-20.208,-11.853,15.229
442,1436463458857,-20.208,-12.2,15.229
443,1436463458878,-20.208,-12.2,15.229
444,1436463458898,-20.208,-12.2,15.229
445,1436463458921,-20.208,-12.2,15.229
446,1436463458936,-20.208,-12.2,15.229
447,1436463458958,-20.208,-12.2,15.229
448,1436463458976,-20.208,-12.506,15.229
449,1436463458998,-20.208,-12.506,15.229
450,1436463459015,-20.208,-12.506,15.229
451,1436463459038,-20.208,-12.506,15.229
452,1436463459061,-20.208,-12.506,15.229
453,1436463459079,-20.208,-12.506,15.229
454,1436463459120,-20.208,-12.506,15.229
455,1436463459121,-20.208,-12.506,15.229
456,1436463459136,-20.208,-12.506,15.229
457,1436463459246,-20.208,-12.506,15.229
458,1436463459249,-20.208,-12.117,14.898
459,1436463459250,-20.208,-11.795,14.898
460,1436463459251,-20.208,-11.482,14.898
461,1436463459252,-20.208,-11.482,14.898
462,1436463459257,-20.208,-11.482,14.898
463,1436463459276,-20.208,-11.482,14.898
464,1436463459296,-20.208,-11.482,14.898
465,1436463459317,-20.208,-11.482,14.898
466,1436463459347,-20.208,-11.015,14.898
467,1436463459411,-20.208,-11.015,14.898
468,1436463459412,-20.208,-11.015,14.898
469,1436463459413,-20.208,-10.626,14.898
470,1436463459440,-20.208,-10.626,14.898
471,1436463459441,-20.208,-10.626,14.898
472,1436463459457,-20.208,-10.304,14.898
473,1436463459483,-20.208,-10.304,14.898
474,1436463459496,-20.208,-10.304,15.213
475,1436463459517,-20.208,-10.304,15.213
476,1436463459544,-20.208,-10.304,15.213
477,1436463459556,-20.208,-10.304,15.213
478,1436463459576,-20.208,-10.304,15.213
479,1436463459598,-20.208,-10.304,15.538
480,1436463459616,-20.208,-10.705,15.538
481,1436463459640,-20.208,-10.705,15.538
482,1436463459656,-20.208,-10.705,15.538
483,1436463459676,-20.208,-10.705,15.538
484,1436463459700,-20.208,-11.158,15.538
485,1436463459720,-20.208,-11.158,15.538
486,1436463459737,-20.208,-11.158,15.538
487,1436463459756,-20.208,-11.55,15.153
488,1436463459780,-20.208,-11.55,15.153
489,1436463459796,-20.208,-11.55,15.153
490,1436463459820,-20.208,-11.86,15.153
491,1436463459837,-20.208,-11.86,14.799
492,1436463459856,-20.208,-11.86,14.799
493,1436463459876,-20.208,-11.86,14.799
494,1436463459900,-20.208,-12.236,14.48
495,1436463459920,-20.208,-12.236,14.48
496,1436463459936,-20.208,-12.236,14.48
497,1436463459957,-20.208,-12.541,14.17
498,1436463459976,-20.208,-12.541,14.17
