id,attr_time,attr_db
1,1435995489112,16.7197056314925
2,1435995489545,9.68690959096153
3,1435995489924,15.375821277973
4,1435995490393,13.884724991694
5,1435995490824,13.641457977253
6,1435995491225,49.5679682407894
7,1435995491599,55.6056048017785
8,1435995492002,32.3178234607351
9,1435995492458,59.5169209532889
10,1435995492917,37.8107368761236
11,1435995493375,44.9429453108129
12,1435995493839,57.8465429747682
13,1435995494278,58.7761901436337
14,1435995494720,67.2176371945592
15,1435995495197,52.9265825313383
16,1435995495667,58.6876841957908
17,1435995496115,67.512683326134
18,1435995496600,60.8037114750925
19,1435995497050,53.8548736297297
20,1435995497500,51.1346816093013
21,1435995497957,53.4731305775515
22,1435995498437,67.7982661163823
23,1435995498883,61.8269723863013
24,1435995499321,62.8095558290155
25,1435995499721,40.8503790842825
26,1435995500172,41.4662411233435
27,1435995500735,65.5584427225559
28,1435995501152,54.1982805502526
29,1435995501592,67.9932809952205
30,1435995502033,58.1814424962601
31,1435995502435,45.5192146553011
32,1435995502789,52.7919344634786
33,1435995503146,61.9218395562952
34,1435995503562,66.0493829735951
35,1435995503998,63.7782405758668
36,1435995504441,52.5519632500125
37,1435995504844,51.1965590450538
38,1435995505265,55.9494400392383
39,1435995505733,48.7115891018233
40,1435995506188,44.9522225797806
41,1435995506650,44.4376237674375
42,1435995507091,45.6066412937987
43,1435995507522,64.5986032733576
44,1435995507932,69.1740958959519
45,1435995508389,56.8277604075866
46,1435995508835,68.466292768527
47,1435995509289,63.7225806746895
48,1435995509738,44.5427582705002
49,1435995510143,51.7217440329716
50,1435995510541,42.1034419254101
51,1435995510983,44.2302379831241
52,1435995511406,42.8026733960436
53,1435995511838,42.0671604564585
54,1435995512241,41.0992227806295
55,1435995512668,52.0119282776308
56,1435995513120,49.081461520469
57,1435995513568,52.2510288897258
58,1435995514013,45.2537604049792
59,1435995514430,65.0875202228885
60,1435995514855,57.6582474297612
61,1435995515308,67.573655786145
62,1435995515707,65.6396363861201
63,1435995516094,57.6640082097704
64,1435995516556,60.5311006812143
65,1435995517024,67.6378812501682
66,1435995517472,49.7600829033997
67,1435995517944,46.154595061041
68,1435995518385,43.955360956875
69,1435995518840,39.8331443754677
70,1435995519299,44.4761583302629
71,1435995519765,51.9852640311135
72,1435995520246,65.6611905555405
73,1435995520649,56.2387528701372
74,1435995521013,59.9197331442817
75,1435995521462,40.6663546571701
76,1435995521873,33.2569996396009
77,1435995522274,45.2945335378887
78,1435995522738,69.4633062203363
79,1435995523184,62.2493087590533
80,1435995523590,70.665014695719
81,1435995524028,58.4005768170577
82,1435995524469,66.3534625871008
83,1435995524865,63.4124703596077
84,1435995525306,61.2248175401739
85,1435995525750,59.03197134772
86,1435995526212,59.1714617032716
87,1435995526647,52.5286939443461
88,1435995527095,44.9260856666156
89,1435995527539,47.2554119575675
90,1435995528028,40.0687749744232
91,1435995528479,42.7709019361018
92,1435995528930,44.2940880549867
93,1435995529359,40.1790639775022
94,1435995529801,50.7519936372149
95,1435995530213,59.230426745418
96,1435995530660,46.2959038787849
97,1435995531102,72.7209424674301
98,1435995531554,57.8319298227332
99,1435995532010,65.8593811264038
100,1435995532423,58.475512242731
101,1435995532825,68.2668299878747
102,1435995533231,61.9583776761218
103,1435995533671,71.1260936643067
104,1435995534098,59.5309375301614
105,1435995534548,63.0290299176801
106,1435995534948,43.4759194091702
107,1435995535375,65.9165245787743
108,1435995535793,50.3528554858529
109,1435995536227,65.1866701332457
110,1435995536710,62.0548506165775
111,1435995537149,60.8073587465112
112,1435995537572,53.2300087579283
113,1435995537950,61.1072134743156
114,1435995538390,48.7374883547441
115,1435995538849,53.1862929921903
116,1435995539293,52.3282540334288
117,1435995539759,48.4333661817471
118,1435995540163,52.2403664506508
119,1435995540549,48.4094833128283
120,1435995540995,50.2173295239396
121,1435995541456,46.8319981623843
122,1435995541901,46.2310001900921
123,1435995542342,46.6489367309165
124,1435995542748,54.2349442577531
125,1435995543122,47.0788116229214
126,1435995543563,49.0873168083852
127,1435995544023,48.9187053699486
128,1435995544455,55.1777768340915
129,1435995544858,41.1725219536187
130,1435995545323,47.8089695131406
131,1435995545724,43.2254387100629
132,1435995546148,47.7688810990444
133,1435995546619,45.416363738955
134,1435995547072,49.5520323343499
135,1435995547521,42.7009742922623
136,1435995547932,51.0936056072116
137,1435995548379,41.5819080520478
138,1435995548829,55.5031271272101
139,1435995549230,41.3969951107193
140,1435995549670,39.9454918003597
141,1435995550062,49.3844586696378
142,1435995550441,57.1380573213301
143,1435995550809,49.3440586837494
144,1435995551259,56.1654448291656
145,1435995551718,58.3058742383821
146,1435995552159,55.0844081398223
147,1435995552611,56.4482231063534
148,1435995553058,56.9289734733278
149,1435995553541,69.0463880268211
150,1435995553929,68.2741605468372
151,1435995554355,52.1951246365193
152,1435995554808,55.8274005196536
153,1435995555228,50.6934268829543
154,1435995555681,53.5776376920143
155,1435995556101,49.9399071274128
156,1435995556526,61.5613485954
157,1435995556974,57.5346758448118
158,1435995557454,61.8075333948587
159,1435995557892,49.4996211405354
160,1435995558331,57.0122249378844
161,1435995558769,45.170897983338
162,1435995559213,47.3246132746172
163,1435995559621,46.3039249892696
164,1435995560061,44.2455316500024
165,1435995560555,43.2501838631551
166,1435995561029,41.3591291891321
167,1435995561483,42.6913675928974
168,1435995561864,50.0581816204314
169,1435995562350,50.4228832951919
170,1435995562781,53.0325563298076
171,1435995563234,47.3457031535497
172,1435995563682,72.0720155771413
173,1435995564142,58.6717984401442
174,1435995564601,61.8403236838025
175,1435995565026,61.0257706507088
176,1435995565487,56.3987104749797
177,1435995565867,62.0216147384512
178,1435995566324,63.6963542688252
179,1435995566720,61.0015545779959
180,1435995567128,59.3074792812741
181,1435995567567,43.4668823369214
182,1435995568015,46.5476772032941
183,1435995568434,62.1470263675827
184,1435995568847,62.5984863752549
185,1435995569281,47.7657095344447
186,1435995569700,52.918582150076
187,1435995570128,41.9627701855442
188,1435995570578,56.129149770582
189,1435995571015,42.6688621034585
190,1435995571458,73.3450680614742
191,1435995571869,40.9771030526623
192,1435995572318,55.1015367306086
193,1435995572732,40.3128155563497
194,1435995573157,59.9295990417437
195,1435995573622,39.7995358152689
196,1435995574068,61.6954533903656
197,1435995574508,61.0570839995251
198,1435995574940,63.2728041390846
199,1435995575375,57.7019386572661
200,1435995575795,62.8478956866394
201,1435995576223,48.0509057528378
202,1435995576634,57.8283473323484
203,1435995577018,43.4508962944305
204,1435995577473,38.4718624858572
205,1435995577894,46.2302632227311
206,1435995578354,44.8916962706548
207,1435995578780,50.6805787823104
208,1435995579202,67.3190741271783
209,1435995579650,67.9428478893032
210,1435995580049,61.7925850721877
211,1435995580477,58.617648576076
212,1435995580872,49.0923867032678
213,1435995581305,52.6148902460705
214,1435995581755,60.6074870389206
215,1435995582166,51.2820708207508
216,1435995582596,47.126946469731
217,1435995583063,65.7195169247745
218,1435995583489,64.0378357001026
219,1435995583942,58.3160898373767
220,1435995584352,52.3331033380158
221,1435995584693,60.2208558674385
222,1435995585090,62.7014163931212
223,1435995585512,55.5234418162136
224,1435995585903,64.3207918494275
225,1435995586353,52.7947947209225
226,1435995586759,58.7540897710108
227,1435995587206,52.1889001422633
228,1435995587670,52.5841738193444
229,1435995588114,66.4885339482565
230,1435995588548,68.8991431801186
231,1435995588990,61.3733353999676
232,1435995589396,59.3169646732985
233,1435995589846,61.8676071665249
234,1435995590252,60.3188200539378
235,1435995590711,54.1127902734564
236,1435995591168,55.1065038249689
237,1435995591582,63.5929137441044
238,1435995591991,65.6014934981274
239,1435995593122,50.5843231151758
240,1435995593536,57.7815778456834
241,1435995593900,54.2459321796616
242,1435995594331,59.3603984644907
243,1435995594768,70.8202849690263
244,1435995595212,65.1938025617657
245,1435995595672,64.9535583121819
246,1435995596137,61.5439830508095
247,1435995596603,48.4028731948212
248,1435995596994,50.9652007241073
249,1435995597459,50.6074536475401
250,1435995597900,53.2002329209144
251,1435995598351,45.1751400725718
252,1435995598796,63.6355646698318
253,1435995599192,51.1078319422638
254,1435995599618,65.0184280509651
255,1435995600081,63.7460882249169
256,1435995600451,66.5358312304154
257,1435995600837,68.8210775821458
258,1435995601292,63.118951663452
259,1435995601663,63.1267200513956
260,1435995602018,66.4566264121239
261,1435995602491,65.3404636218384
262,1435995602908,52.9509267304901
263,1435995603342,61.8987809665076
264,1435995603790,49.1760828149676
265,1435995604241,55.3740803993978
266,1435995604691,56.8779343626807
267,1435995605142,48.8961540750836
268,1435995605591,60.7566941018853
269,1435995606043,68.5762365646073
270,1435995606503,62.8750977783441
271,1435995606952,58.4439712290123
272,1435995607443,57.3835532404634
273,1435995607890,46.1644626318149
274,1435995608351,54.7956998564511
275,1435995608777,44.7711017987383
276,1435995609181,65.0437038976285
277,1435995610249,50.18901631117
278,1435995610710,53.9100030795071
279,1435995611141,50.338980172848
280,1435995611602,50.7164944816353
281,1435995612049,63.2470527517002
282,1435995612490,68.5995209569495
283,1435995612888,64.6066492156569
284,1435995613301,71.5665821289304
285,1435995613759,62.8244686813287
286,1435995614196,55.1055980210287
287,1435995614650,54.8525163020201
288,1435995615085,56.1497301826635
289,1435995615538,56.8200149728694
290,1435995615996,48.6064928873569
291,1435995616422,62.8623959699566
292,1435995616805,62.5531297004709
293,1435995617250,68.1740862938341
294,1435995617702,59.5084980946406
295,1435995618138,60.9020283965902
296,1435995618562,56.3470374594559
297,1435995618972,49.2628257646678
298,1435995619365,49.9552177040146
299,1435995619847,45.2484104171302
300,1435995620243,53.7781032712002
301,1435995620690,48.3798393189064
302,1435995621149,57.3818756266993
303,1435995621581,65.9584507627034
304,1435995621958,71.8391907694732
305,1435995623315,57.8679131914346
306,1435995623720,53.2881618306121
307,1435995624135,50.5412517787915
308,1435995624558,58.5984413057588
309,1435995624924,50.234340557414
310,1435995625309,56.6076536117125
311,1435995625750,58.5128627577476
312,1435995626170,48.5631234110375
313,1435995626631,55.2856262749626
314,1435995627079,59.4105636538909
315,1435995627520,48.3173312113681
316,1435995627982,66.8398873568117
317,1435995628443,61.0365179845073
318,1435995628849,65.9665847061714
319,1435995629304,47.2304265037686
320,1435995629777,53.6788429188309
321,1435995630220,61.7698806185268
322,1435995630651,62.6617410041025
323,1435995631091,67.5418848538122
324,1435995631480,66.0986255067369
325,1435995632423,55.7370083898677
326,1435995632853,54.7166459704768
327,1435995633313,50.1481071269259
328,1435995633757,43.8429728953714
329,1435995634166,66.6015355608418
330,1435995634605,71.9006902314432
331,1435995635052,61.4148140344553
332,1435995635480,65.5242357755268
333,1435995635894,63.5789805960154
334,1435995636299,69.2645665895969
335,1435995636757,65.0397342292562
336,1435995637219,48.3501072888477
337,1435995637654,53.2947546992466
338,1435995638119,55.2950468246656
339,1435995638577,63.7010462967628
340,1435995639027,70.6640317428711
341,1435995639469,67.7315167694731
342,1435995639939,59.0810623266373
343,1435995640400,55.6363037748404
344,1435995640836,56.0849146373349
345,1435995641304,45.7077266191811
346,1435995641770,69.0901007437413
347,1435995642219,64.339663668242
348,1435995642680,53.4592396176858
349,1435995643123,50.6823123335696
350,1435995643522,53.027957156702
351,1435995643966,58.5890234975408
352,1435995644408,51.3537265956005
353,1435995644821,45.6508027779237
354,1435995645243,58.5342107509636
355,1435995645675,51.3614920010836
356,1435995646072,56.6229613780554
357,1435995646488,68.0362348298786
358,1435995646950,69.1136805177464
359,1435995647394,64.349858610261
360,1435995647778,57.7850091739039
361,1435995648179,67.1720975423765
362,1435995648629,54.1301821893586
363,1435995649068,63.7647522098143
364,1435995649534,54.2760596935121
365,1435995649991,50.1590783681086
366,1435995650366,50.6617641015091
367,1435995650720,55.8141614183241
368,1435995651128,51.4600439930787
369,1435995651547,60.8744080275886
370,1435995651986,61.0727115213212
371,1435995652431,64.6937958984972
372,1435995652828,66.4601804895647
373,1435995653264,65.2714573107704
374,1435995653742,56.6646910196071
375,1435995654174,57.098989226319
376,1435995654590,48.1121392248323
377,1435995655014,58.7336313917862
378,1435995655466,59.7006703329463
379,1435995655916,53.1154112190676
380,1435995656357,50.016489956499
381,1435995656813,64.0896730975322
382,1435995657264,68.2979458011042
383,1435995657719,56.3568577655519
384,1435995658178,63.3219919914632
385,1435995658600,45.860062304543
386,1435995658992,47.2792123934965
387,1435995659407,46.68907870416
388,1435995659844,51.6380512747181
389,1435995660234,55.1133496377839
390,1435995660574,47.3062762658466
391,1435995660935,47.8034772297441
392,1435995661341,55.9611550512914
393,1435995661782,47.5035648919984
394,1435995662221,56.8042754142097
395,1435995662629,44.0078406586375
396,1435995663024,48.874329272749
397,1435995663479,64.2405137918748
398,1435995663909,55.4882428724735
399,1435995664365,61.1604228384218
400,1435995664780,64.6207223309047
401,1435995665221,69.3761342298056
402,1435995665640,63.4004450311423
403,1435995666059,63.9393771220791
404,1435995666526,56.2526498720257
405,1435995666887,62.1292803729906
406,1435995667321,48.1994937535533
407,1435995667742,41.4716802857438
408,1435995668153,42.6777206864255
409,1435995668607,47.011426504801
410,1435995669047,47.1688459839347
411,1435995669504,64.7353914776852
412,1435995669974,68.5067402931034
413,1435995670375,65.2511282707145
414,1435995670825,58.8815138050342
415,1435995671280,48.2612746023054
416,1435995671721,54.9072764872075
417,1435995672147,55.5717909753749
418,1435995672540,54.2351062329302
419,1435995672991,49.7793288432842
420,1435995673454,70.1945889601902
421,1435995673898,63.9592387006678
422,1435995674339,46.3330103517604
423,1435995674758,55.415988724983
424,1435995675218,42.9239315286039
425,1435995675621,57.7461487739678
426,1435995676029,61.599015170193
427,1435995676471,55.6653109206673
428,1435995676918,51.281991818007
429,1435995677367,67.7035511220693
430,1435995677799,63.1458196691797
431,1435995678245,59.0071818478945
432,1435995678714,56.174255569659
433,1435995679119,43.3739563705741
434,1435995679543,60.5391291810389
435,1435995679999,41.3117498549785
436,1435995680417,56.6946214531467
437,1435995680777,56.7872771661587
438,1435995681164,59.6863557863471
439,1435995681627,59.9591504326223
440,1435995682082,61.4792321429341
441,1435995682544,61.8456874689981
442,1435995683019,68.4471436041266
443,1435995683481,60.3709874307069
444,1435995683871,54.5558301081633
445,1435995684301,64.351668848414
446,1435995684702,50.2813827650137
447,1435995685132,59.5900856735119
448,1435995685534,50.2086951544999
449,1435995685994,50.2593856037831
450,1435995686426,62.4489125293739
451,1435995686873,42.8868320969608
452,1435995687281,60.3752717109319
453,1435995687699,42.8216730225787
454,1435995688152,62.6066627439061
455,1435995688570,67.9071446291585
456,1435995688952,67.3336322726518
457,1435995689364,68.0289233342373
458,1435995689837,60.7903955548873
459,1435995690204,68.6778266568565
460,1435995690576,67.5695960538623
461,1435995691024,62.9460964426135
462,1435995691457,61.2286817277688
463,1435995691890,57.6887385439687
464,1435995692351,56.1946610274557
465,1435995692792,47.1439164485476
466,1435995693249,60.1618528750381
467,1435995693713,64.5965711185044
468,1435995694177,65.258936454322
469,1435995694631,66.4099356267828
470,1435995695062,71.0881016608954
471,1435995695500,56.8181143879435
472,1435995695952,49.7080724676205
473,1435995696352,60.1283700777938
474,1435995696783,56.6924376320534
475,1435995697232,54.7140361292411
476,1435995697695,62.5918405238413
477,1435995698095,62.1209465112618
478,1435995698551,47.9977049791045
479,1435995698999,56.4354057127772
480,1435995699421,56.5027342584549
481,1435995699812,57.1750640702629
482,1435995700257,65.791620523855
483,1435995700705,68.8760829545516
484,1435995701123,63.2590378847959
485,1435995701571,53.7951360434638
486,1435995702043,48.5658428374799
487,1435995702444,39.6177971634142
488,1435995702902,47.7697068819921
489,1435995703337,61.7161800692968
490,1435995703790,52.3993121219852
491,1435995704242,64.6565576635001
492,1435995704667,68.203983296124
493,1435995705115,60.9005303125424
494,1435995705571,51.3716429822578
495,1435995706021,49.6728906615604
496,1435995706442,53.0199236868859
497,1435995706840,55.9966629134808
498,1435995707290,54.7664493752116
499,1435995707741,62.1604342105107
500,1435995708164,52.0270617234175
501,1435995708594,65.733240464413
502,1435995709023,68.6891885967969
503,1435995709457,71.2017714954987
504,1435995709861,60.6211740460292
505,1435995710274,55.0542563345236
506,1435995710625,61.0004696972844
507,1435995711038,65.1339912123789
508,1435995711494,64.3069256397515
509,1435995711882,51.097792674538
510,1435995712316,61.1957997650583
511,1435995712708,46.8241494265435
512,1435995713081,59.8260633821743
513,1435995713561,45.2404374321227
514,1435995714012,44.7208837838899
515,1435995714439,55.0121736427639
516,1435995714882,57.1246080763982
517,1435995715339,58.6028572628971
518,1435995715793,73.2809580904819
519,1435995716251,68.1821464852452
520,1435995716716,49.3472409526581
521,1435995717176,51.4794400546945
522,1435995717638,57.0188167685641
523,1435995718099,56.3896614256931
524,1435995718521,63.1262110412968
525,1435995718975,67.5116593030805
526,1435995719379,68.0292304152233
527,1435995719809,65.2417311727771
528,1435995720257,51.963961331114
529,1435995720720,47.4498442301696
530,1435995721181,45.5284217776292
531,1435995721616,61.8951683590185
532,1435995722045,47.9579503328753
533,1435995722477,52.2328360473376
534,1435995722888,54.0694335146128
535,1435995723310,50.2603770137361
536,1435995723771,69.8558694045738
537,1435995724223,64.8007330271078
538,1435995724630,63.2247611366712
539,1435995725063,63.8921726396646
540,1435995725492,62.0680642444105
541,1435995725925,62.1721470758773
542,1435995726371,45.0587162539354
543,1435995726828,49.1447407999079
544,1435995727283,59.6554961427939
545,1435995727720,68.5022750383509
546,1435995728192,68.0480066947771
547,1435995728622,64.9237003707607
548,1435995729088,62.0505990025103
549,1435995729550,49.1082060133025
550,1435995730000,65.5779936281727
551,1435995730384,68.0832302123616
552,1435995730761,63.2767758308478
553,1435995731176,66.7608426215084
554,1435995731601,68.1748041708228
555,1435995732078,63.3833434279713
556,1435995732524,47.9906377892331
557,1435995732965,54.2447822506244
558,1435995733414,60.094994383351
559,1435995733832,70.6876941804941
560,1435995734227,69.2515438729239
561,1435995734642,60.8949142067059
562,1435995735099,71.3595163453131
563,1435995735543,69.481292162427
564,1435995736000,66.1210499279449
565,1435995736465,69.8026640935223
566,1435995736854,66.8888194661346
567,1435995737312,67.6513974006697
568,1435995737750,56.2908851722365
569,1435995738171,56.195488536917
570,1435995738631,66.8344556076929
571,1435995739072,68.3864729703052
572,1435995739529,66.4399856518419
573,1435995739977,46.4652199156916
574,1435995740427,61.2052950803828
575,1435995740869,60.3379948650459
