id,attr_time,attr_light
1,1436977877411,0.0
2,1436977877432,0.0
3,1436977877448,0.0
4,1436977877471,0.0
5,1436977877540,0.0
6,1436977877541,0.0
7,1436977877542,0.0
8,1436977877554,0.0
9,1436977877572,0.0
10,1436977877588,0.0
11,1436977877608,0.0
12,1436977877628,0.0
13,1436977877648,0.0
14,1436977877668,0.0
15,1436977877689,0.0
16,1436977877709,0.0
17,1436977877728,0.0
18,1436977877748,0.0
19,1436977877771,0.0
20,1436977877791,0.0
21,1436977877811,0.0
22,1436977877830,0.0
23,1436977877851,0.0
24,1436977877873,0.0
25,1436977877891,0.0
26,1436977877910,0.0
27,1436977877932,0.0
28,1436977877950,0.0
29,1436977877969,0.0
30,1436977877989,0.0
31,1436977878010,0.0
32,1436977878029,0.0
33,1436977878053,0.0
34,1436977878070,0.0
35,1436977878091,0.0
36,1436977878111,0.0
37,1436977878129,0.0
38,1436977878151,0.0
39,1436977878169,0.0
40,1436977878202,0.0
41,1436977878256,0.0
42,1436977878257,0.0
43,1436977878258,0.0
44,1436977878276,0.0
45,1436977878288,0.0
46,1436977878312,0.0
47,1436977878330,0.0
48,1436977878348,0.0
49,1436977878368,0.0
50,1436977878389,0.0
51,1436977878411,0.0
52,1436977878430,0.0
53,1436977878452,0.0
54,1436977878469,0.0
55,1436977878490,0.0
56,1436977878509,0.0
57,1436977878531,0.0
58,1436977878551,0.0
59,1436977878576,0.0
60,1436977878591,0.0
61,1436977878613,0.0
62,1436977878632,0.0
63,1436977878651,0.0
64,1436977878671,0.0
65,1436977878689,0.0
66,1436977878708,0.0
67,1436977878731,0.0
68,1436977878752,0.0
69,1436977878772,0.0
70,1436977878792,0.0
71,1436977878813,0.0
72,1436977878832,0.0
73,1436977878853,0.0
74,1436977878872,0.0
75,1436977878891,0.0
76,1436977878913,0.0
77,1436977878977,0.0
78,1436977878978,0.0
79,1436977878979,0.0
80,1436977879013,0.0
81,1436977879014,0.0
82,1436977879033,0.0
83,1436977879057,0.0
84,1436977879081,0.0
85,1436977879090,0.0
86,1436977879149,0.0
87,1436977879150,0.0
88,1436977879151,0.0
89,1436977879176,0.0
90,1436977879216,0.0
91,1436977879217,0.0
92,1436977879232,0.0
93,1436977879253,0.0
94,1436977879272,0.0
95,1436977879290,0.0
96,1436977879309,0.0
97,1436977879331,0.0
98,1436977879352,0.0
99,1436977879372,0.0
100,1436977879393,0.0
101,1436977879424,0.0
102,1436977879442,0.0
103,1436977879450,0.0
104,1436977879470,0.0
105,1436977879490,0.0
106,1436977879509,0.0
107,1436977879530,0.0
108,1436977879550,0.0
109,1436977879570,0.0
110,1436977879590,0.0
111,1436977879610,0.0
112,1436977879629,0.0
113,1436977879650,0.0
114,1436977879670,0.0
115,1436977879693,0.0
116,1436977879827,0.0
117,1436977879829,0.0
118,1436977879830,0.0
119,1436977879831,0.0
120,1436977879832,0.0
121,1436977879833,0.0
122,1436977879834,0.0
123,1436977879854,0.0
124,1436977879875,0.0
125,1436977879890,0.0
126,1436977879916,0.0
127,1436977879934,0.0
128,1436977879952,0.0
129,1436977879975,0.0
130,1436977879995,0.0
131,1436977880013,0.0
132,1436977880035,0.0
133,1436977880060,0.0
134,1436977880070,0.0
135,1436977880091,0.0
136,1436977880112,0.0
137,1436977880130,0.0
138,1436977880152,0.0
139,1436977880169,0.0
140,1436977880192,0.0
141,1436977880211,0.0
142,1436977880233,0.0
143,1436977880253,0.0
144,1436977880271,0.0
145,1436977880290,0.0
146,1436977880311,0.0
147,1436977880333,0.0
148,1436977880353,0.0
149,1436977880373,0.0
150,1436977880393,0.0
151,1436977880413,0.0
152,1436977880431,0.0
153,1436977880451,0.0
154,1436977880476,0.0
155,1436977880499,0.0
156,1436977880512,0.0
157,1436977880531,0.0
158,1436977880551,0.0
159,1436977880572,0.0
160,1436977880590,0.0
161,1436977880611,0.0
162,1436977880633,0.0
163,1436977880652,0.0
164,1436977880672,0.0
165,1436977880694,0.0
166,1436977880714,0.0
167,1436977880734,0.0
168,1436977880753,0.0
169,1436977880774,0.0
170,1436977880794,0.0
171,1436977880814,0.0
172,1436977880831,0.0
173,1436977880850,0.0
174,1436977880872,0.0
175,1436977880892,0.0
176,1436977880914,0.0
177,1436977880934,0.0
178,1436977880955,0.0
179,1436977880973,0.0
180,1436977880996,0.0
181,1436977881015,0.0
182,1436977881034,0.0
183,1436977881052,0.0
184,1436977881075,0.0
185,1436977881179,0.0
186,1436977881180,0.0
187,1436977881181,0.0
188,1436977881182,0.0
189,1436977881183,0.0
190,1436977881192,0.0
191,1436977881212,0.0
192,1436977881232,0.0
193,1436977881252,0.0
194,1436977881272,0.0
195,1436977881292,0.0
196,1436977881315,0.0
197,1436977881335,0.0
198,1436977881354,0.0
199,1436977881372,0.0
200,1436977881391,0.0
201,1436977881413,0.0
202,1436977881433,0.0
203,1436977881454,0.0
204,1436977881474,0.0
205,1436977881494,0.0
206,1436977881515,0.0
207,1436977881536,0.0
208,1436977881563,0.0
209,1436977881577,0.0
210,1436977881592,0.0
211,1436977881648,0.0
212,1436977881649,0.0
213,1436977881652,0.0
214,1436977881672,0.0
215,1436977881695,0.0
216,1436977881717,0.0
217,1436977881738,0.0
218,1436977881757,0.0
219,1436977881777,0.0
220,1436977881797,0.0
221,1436977881815,0.0
222,1436977881912,0.0
223,1436977881913,0.0
224,1436977881914,0.0
225,1436977881915,0.0
226,1436977881916,0.0
227,1436977881935,0.0
228,1436977881957,0.0
229,1436977881975,0.0
230,1436977881997,0.0
231,1436977882012,0.0
232,1436977882033,0.0
233,1436977882052,0.0
234,1436977882074,0.0
235,1436977882094,0.0
236,1436977882114,0.0
237,1436977882135,0.0
238,1436977882153,0.0
239,1436977882172,0.0
240,1436977882193,0.0
241,1436977882216,0.0
242,1436977882236,0.0
243,1436977882255,0.0
244,1436977882275,0.0
245,1436977882293,0.0
246,1436977882311,0.0
247,1436977882332,0.0
248,1436977882354,0.0
249,1436977882372,0.0
250,1436977882392,0.0
251,1436977882412,0.0
252,1436977882437,0.0
253,1436977882453,0.0
254,1436977882472,0.0
255,1436977882501,0.0
256,1436977882511,0.0
257,1436977882532,0.0
258,1436977882552,0.0
259,1436977882574,0.0
260,1436977882654,0.0
261,1436977882655,0.0
262,1436977882656,0.0
263,1436977882657,0.0
264,1436977882673,0.0
265,1436977882694,0.0
266,1436977882713,0.0
267,1436977882733,0.0
268,1436977882757,0.0
269,1436977882773,0.0
270,1436977882796,0.0
271,1436977882820,0.0
272,1436977882834,0.0
273,1436977882855,0.0
274,1436977882874,0.0
275,1436977882895,0.0
276,1436977882914,0.0
277,1436977882933,0.0
278,1436977882953,0.0
279,1436977882973,0.0
280,1436977882995,0.0
281,1436977883013,0.0
282,1436977883034,0.0
283,1436977883068,0.0
284,1436977883075,0.0
285,1436977883093,0.0
286,1436977883115,0.0
287,1436977883135,0.0
288,1436977883155,0.0
289,1436977883175,0.0
290,1436977883196,0.0
291,1436977883216,0.0
292,1436977883237,0.0
293,1436977883256,0.0
294,1436977883274,0.0
295,1436977883295,0.0
296,1436977883314,0.0
297,1436977883379,0.0
298,1436977883380,0.0
299,1436977883381,0.0
300,1436977883401,0.0
301,1436977883413,0.0
302,1436977883435,0.0
303,1436977883456,0.0
304,1436977883473,0.0
305,1436977883493,0.0
306,1436977883513,0.0
307,1436977883534,0.0
308,1436977883559,0.0
309,1436977883574,0.0
310,1436977883594,0.0
311,1436977883616,0.0
312,1436977883635,0.0
313,1436977883654,0.0
314,1436977883674,0.0
315,1436977883695,0.0
316,1436977883713,0.0
317,1436977883734,0.0
318,1436977883756,0.0
319,1436977883777,0.0
320,1436977883794,0.0
321,1436977883817,0.0
322,1436977883837,0.0
323,1436977883858,0.0
324,1436977883878,0.0
325,1436977883897,0.0
326,1436977883916,0.0
327,1436977883935,0.0
328,1436977883954,0.0
329,1436977883977,0.0
330,1436977884282,0.0
331,1436977884283,0.0
332,1436977884284,0.0
333,1436977884285,0.0
334,1436977884286,0.0
335,1436977884287,0.0
336,1436977884288,0.0
337,1436977884289,0.0
338,1436977884290,0.0
339,1436977884291,0.0
340,1436977884292,0.0
341,1436977884293,0.0
342,1436977884294,0.0
343,1436977884295,0.0
344,1436977884296,0.0
345,1436977884425,0.0
346,1436977884426,0.0
347,1436977884427,0.0
348,1436977884428,0.0
349,1436977884429,0.0
350,1436977884430,0.0
351,1436977884431,0.0
352,1436977884434,0.0
353,1436977884454,0.0
354,1436977884474,0.0
355,1436977884496,0.0
356,1436977884516,0.0
357,1436977884536,0.0
358,1436977884554,0.0
359,1436977884575,0.0
360,1436977884593,0.0
361,1436977884613,0.0
362,1436977884633,0.0
363,1436977884653,0.0
364,1436977884673,0.0
365,1436977884693,0.0
366,1436977884713,0.0
367,1436977884733,0.0
368,1436977884753,0.0
369,1436977884773,0.0
370,1436977884793,0.0
371,1436977884813,0.0
372,1436977884833,0.0
373,1436977884853,0.0
374,1436977884873,0.0
375,1436977884893,0.0
376,1436977884916,0.0
377,1436977884942,0.0
378,1436977884961,0.0
379,1436977884976,0.0
380,1436977885003,0.0
381,1436977885014,0.0
382,1436977885034,0.0
383,1436977885054,0.0
384,1436977885074,0.0
385,1436977885094,0.0
386,1436977885113,0.0
387,1436977885133,0.0
388,1436977885153,0.0
389,1436977885173,0.0
390,1436977885193,0.0
391,1436977885214,0.0
392,1436977885234,0.0
393,1436977885254,0.0
394,1436977885274,0.0
395,1436977885294,0.0
396,1436977885314,0.0
397,1436977885334,0.0
398,1436977885354,0.0
399,1436977885375,0.0
400,1436977885394,0.0
401,1436977885414,0.0
402,1436977885434,0.0
403,1436977885454,0.0
404,1436977885474,0.0
405,1436977885495,0.0
406,1436977885515,0.0
407,1436977885535,0.0
408,1436977885554,0.0
409,1436977885579,0.0
410,1436977885594,0.0
411,1436977885615,0.0
412,1436977885634,0.0
413,1436977885655,0.0
414,1436977885674,0.0
415,1436977885694,0.0
416,1436977885714,0.0
417,1436977885734,0.0
418,1436977885754,0.0
419,1436977885774,0.0
420,1436977885794,0.0
421,1436977885814,0.0
422,1436977885834,0.0
423,1436977885854,0.0
424,1436977885874,0.0
425,1436977885894,0.0
426,1436977885914,0.0
427,1436977885934,0.0
428,1436977885954,0.0
429,1436977885975,0.0
430,1436977885995,0.0
431,1436977886016,0.0
432,1436977886035,0.0
433,1436977886055,0.0
434,1436977886075,0.0
435,1436977886096,0.0
436,1436977886121,0.0
437,1436977886135,0.0
438,1436977886154,0.0
439,1436977886175,0.0
440,1436977886195,0.0
441,1436977886215,0.0
442,1436977886235,0.0
443,1436977886255,0.0
444,1436977886275,0.0
445,1436977886295,0.0
446,1436977886315,0.0
447,1436977886335,0.0
448,1436977886355,0.0
449,1436977886375,0.0
450,1436977886395,0.0
451,1436977886415,0.0
452,1436977886435,0.0
453,1436977886455,0.0
454,1436977886476,0.0
455,1436977886495,0.0
456,1436977886515,0.0
457,1436977886535,0.0
458,1436977886555,0.0
459,1436977886575,0.0
460,1436977886595,0.0
461,1436977886615,0.0
462,1436977886635,0.0
463,1436977886655,0.0
464,1436977886675,0.0
465,1436977886695,0.0
466,1436977886715,0.0
467,1436977886735,0.0
468,1436977886755,0.0
469,1436977886775,0.0
470,1436977886795,0.0
471,1436977886815,0.0
472,1436977886835,0.0
473,1436977886855,0.0
474,1436977886875,0.0
475,1436977886895,0.0
476,1436977886915,0.0
477,1436977886938,0.0
478,1436977886959,0.0
479,1436977886977,0.0
480,1436977886999,0.0
481,1436977887018,0.0
482,1436977887036,0.0
483,1436977887058,0.0
484,1436977887077,0.0
485,1436977887099,0.0
486,1436977887118,0.0
487,1436977887141,0.0
488,1436977887162,0.0
489,1436977887178,0.0
490,1436977887197,0.0
491,1436977887217,0.0
492,1436977887241,0.0
493,1436977887303,0.0
494,1436977887304,0.0
495,1436977887305,0.0
496,1436977887320,0.0
497,1436977887338,0.0
498,1436977887361,0.0
499,1436977887377,0.0
500,1436977887397,0.0
501,1436977887422,0.0
502,1436977887438,0.0
503,1436977887459,0.0
504,1436977887481,0.0
505,1436977887500,0.0
506,1436977887519,0.0
507,1436977887537,0.0
508,1436977887558,0.0
509,1436977887579,0.0
510,1436977887601,0.0
511,1436977887628,0.0
512,1436977887637,0.0
513,1436977887657,0.0
514,1436977887677,0.0
515,1436977887697,0.0
516,1436977887717,0.0
517,1436977887737,0.0
518,1436977887761,0.0
519,1436977887780,0.0
520,1436977887799,0.0
521,1436977887817,0.0
522,1436977887839,0.0
523,1436977887861,0.0
524,1436977887881,0.0
525,1436977887901,0.0
526,1436977887923,0.0
527,1436977887942,0.0
528,1436977887962,0.0
529,1436977888070,0.0
530,1436977888083,0.0
531,1436977888084,0.0
532,1436977888085,0.0
533,1436977888086,0.0
534,1436977888087,0.0
535,1436977888098,0.0
536,1436977888125,0.0
537,1436977888138,0.0
538,1436977888170,0.0
539,1436977888178,0.0
540,1436977888200,0.0
541,1436977888219,0.0
542,1436977888238,0.0
543,1436977888262,0.0
544,1436977888281,0.0
545,1436977888300,0.0
546,1436977888318,0.0
547,1436977888340,0.0
548,1436977888361,0.0
549,1436977888381,0.0
550,1436977888401,0.0
551,1436977888422,0.0
552,1436977888442,0.0
553,1436977888460,0.0
554,1436977888481,0.0
555,1436977888515,0.0
556,1436977888518,0.0
557,1436977888540,0.0
558,1436977888559,0.0
559,1436977888580,0.0
560,1436977888598,0.0
561,1436977888620,0.0
562,1436977888640,0.0
563,1436977888658,0.0
564,1436977888678,0.0
565,1436977888702,0.0
566,1436977888718,0.0
567,1436977888738,0.0
568,1436977888842,0.0
569,1436977888844,0.0
570,1436977888845,0.0
571,1436977888846,0.0
572,1436977888849,0.0
573,1436977888886,0.0
574,1436977888895,0.0
575,1436977888898,0.0
576,1436977888920,0.0
577,1436977888939,0.0
578,1436977889003,0.0
579,1436977889004,0.0
580,1436977889005,0.0
581,1436977889029,0.0
582,1436977889044,0.0
583,1436977889059,0.0
584,1436977889078,0.0
585,1436977889097,0.0
586,1436977889118,0.0
587,1436977889137,0.0
588,1436977889158,0.0
589,1436977889177,0.0
590,1436977889213,0.0
591,1436977889218,0.0
592,1436977889238,0.0
593,1436977889258,0.0
594,1436977889278,0.0
595,1436977889298,0.0
596,1436977889318,0.0
597,1436977889338,0.0
598,1436977889358,0.0
599,1436977889378,0.0
600,1436977889398,0.0
601,1436977889418,0.0
602,1436977889438,0.0
603,1436977889458,0.0
604,1436977889478,0.0
605,1436977889498,0.0
606,1436977889518,0.0
607,1436977889539,0.0
608,1436977889558,0.0
609,1436977889580,0.0
610,1436977889598,0.0
611,1436977889618,0.0
612,1436977889638,0.0
613,1436977889658,0.0
614,1436977889678,0.0
615,1436977889698,0.0
616,1436977889718,0.0
617,1436977889738,0.0
618,1436977889758,0.0
619,1436977889778,0.0
620,1436977889798,0.0
621,1436977889818,0.0
622,1436977889838,0.0
623,1436977889858,0.0
624,1436977889878,0.0
625,1436977889898,0.0
626,1436977889918,0.0
627,1436977889938,0.0
628,1436977889958,0.0
629,1436977889979,0.0
630,1436977889999,0.0
631,1436977890018,0.0
632,1436977890039,0.0
633,1436977890058,0.0
634,1436977890083,0.0
635,1436977890099,0.0
636,1436977890118,0.0
637,1436977890138,0.0
638,1436977890158,0.0
639,1436977890178,0.0
640,1436977890198,0.0
641,1436977890219,0.0
642,1436977890239,0.0
643,1436977890259,0.0
644,1436977890279,0.0
645,1436977890299,0.0
646,1436977890319,0.0
647,1436977890339,0.0
648,1436977890359,0.0
649,1436977890379,0.0
650,1436977890399,0.0
651,1436977890419,0.0
652,1436977890439,0.0
653,1436977890459,0.0
654,1436977890479,0.0
655,1436977890499,0.0
656,1436977890519,0.0
657,1436977890539,0.0
658,1436977890559,0.0
659,1436977890579,0.0
660,1436977890599,0.0
661,1436977890619,0.0
662,1436977890639,0.0
663,1436977890659,0.0
664,1436977890679,0.0
665,1436977890699,0.0
666,1436977890719,0.0
667,1436977890739,0.0
668,1436977890759,0.0
669,1436977890780,0.0
670,1436977890799,0.0
671,1436977890819,0.0
672,1436977890839,0.0
673,1436977890859,0.0
674,1436977890879,0.0
675,1436977890899,0.0
676,1436977890919,0.0
677,1436977890939,0.0
678,1436977890959,0.0
679,1436977890979,0.0
680,1436977891000,0.0
681,1436977891019,0.0
682,1436977891039,0.0
683,1436977891059,0.0
684,1436977891079,0.0
685,1436977891099,0.0
686,1436977891119,0.0
687,1436977891139,0.0
688,1436977891159,0.0
689,1436977891179,0.0
690,1436977891201,0.0
691,1436977891219,0.0
692,1436977891239,0.0
693,1436977891259,0.0
694,1436977891279,0.0
695,1436977891299,0.0
696,1436977891320,0.0
697,1436977891340,0.0
698,1436977891360,0.0
699,1436977891380,0.0
700,1436977891400,0.0
701,1436977891420,0.0
702,1436977891440,0.0
703,1436977891460,0.0
704,1436977891480,0.0
705,1436977891500,0.0
706,1436977891520,0.0
707,1436977891540,0.0
708,1436977891560,0.0
709,1436977891580,0.0
710,1436977891600,0.0
711,1436977891620,0.0
712,1436977891640,0.0
713,1436977891660,0.0
714,1436977891681,0.0
715,1436977891700,0.0
716,1436977891720,0.0
717,1436977891740,0.0
718,1436977891760,0.0
719,1436977891780,0.0
720,1436977891800,0.0
721,1436977891820,0.0
722,1436977891840,0.0
723,1436977891860,0.0
724,1436977891880,0.0
725,1436977891900,0.0
726,1436977891920,0.0
727,1436977891940,0.0
728,1436977891960,0.0
729,1436977891980,0.0
730,1436977892000,0.0
731,1436977892020,0.0
732,1436977892040,0.0
733,1436977892060,0.0
734,1436977892081,0.0
735,1436977892102,0.0
736,1436977892122,0.0
737,1436977892142,0.0
738,1436977892165,0.0
739,1436977892185,0.0
740,1436977892213,0.0
741,1436977892221,0.0
742,1436977892245,0.0
743,1436977892262,0.0
744,1436977892281,0.0
745,1436977892302,0.0
746,1436977892322,0.0
747,1436977892343,0.0
748,1436977892363,0.0
749,1436977892383,0.0
750,1436977892404,0.0
751,1436977892439,0.0
752,1436977892442,0.0
753,1436977892461,0.0
754,1436977892482,0.0
755,1436977892502,0.0
756,1436977892524,0.0
757,1436977892541,0.0
758,1436977892561,0.0
759,1436977892581,0.0
760,1436977892601,0.0
761,1436977892621,0.0
762,1436977892643,0.0
763,1436977892661,0.0
764,1436977892681,0.0
765,1436977892701,0.0
766,1436977892721,0.0
767,1436977892741,0.0
768,1436977892761,0.0
769,1436977892781,0.0
770,1436977892801,0.0
771,1436977892821,0.0
772,1436977892843,0.0
773,1436977892862,0.0
774,1436977892882,0.0
775,1436977892903,0.0
776,1436977892922,0.0
777,1436977892946,0.0
778,1436977892965,0.0
779,1436977892996,0.0
780,1436977893001,0.0
781,1436977893044,0.0
782,1436977893045,0.0
783,1436977893062,0.0
784,1436977893082,0.0
785,1436977893104,0.0
786,1436977893123,0.0
787,1436977893142,0.0
788,1436977893162,0.0
789,1436977893182,0.0
790,1436977893202,0.0
791,1436977893222,0.0
792,1436977893242,0.0
793,1436977893262,0.0
794,1436977893282,0.0
795,1436977893302,0.0
796,1436977893322,0.0
797,1436977893342,0.0
798,1436977893362,0.0
799,1436977893382,0.0
800,1436977893402,0.0
801,1436977893424,0.0
802,1436977893444,0.0
803,1436977893463,0.0
804,1436977893484,0.0
805,1436977893506,0.0
806,1436977893526,0.0
807,1436977893546,0.0
808,1436977893564,0.0
809,1436977893585,0.0
810,1436977893606,0.0
811,1436977893629,0.0
812,1436977893644,0.0
813,1436977893674,0.0
814,1436977893746,0.0
815,1436977893747,0.0
816,1436977893748,0.0
817,1436977893749,0.0
818,1436977893765,0.0
819,1436977893794,0.0
820,1436977893804,0.0
821,1436977893823,0.0
822,1436977893844,0.0
823,1436977893865,0.0
824,1436977893886,0.0
825,1436977893904,0.0
826,1436977893925,0.0
827,1436977893944,0.0
828,1436977893964,0.0
829,1436977893983,0.0
830,1436977894004,0.0
831,1436977894026,0.0
832,1436977894044,0.0
833,1436977894066,0.0
834,1436977894084,0.0
835,1436977894105,0.0
836,1436977894128,0.0
837,1436977894146,0.0
838,1436977894166,0.0
839,1436977894185,0.0
840,1436977894204,0.0
841,1436977894224,0.0
842,1436977894249,0.0
843,1436977894267,0.0
844,1436977894288,0.0
845,1436977894306,0.0
846,1436977894326,0.0
847,1436977894345,0.0
848,1436977894365,0.0
849,1436977894385,0.0
850,1436977894407,0.0
851,1436977894461,0.0
852,1436977894462,0.0
853,1436977894476,0.0
854,1436977894484,0.0
855,1436977894510,0.0
856,1436977894541,0.0
857,1436977894548,0.0
858,1436977894657,0.0
859,1436977894658,0.0
860,1436977894659,0.0
861,1436977894660,0.0
862,1436977894661,0.0
863,1436977894695,0.0
864,1436977894696,0.0
865,1436977894705,0.0
866,1436977894726,0.0
867,1436977894749,0.0
868,1436977894764,0.0
869,1436977894784,0.0
870,1436977894804,0.0
871,1436977894825,0.0
872,1436977894844,0.0
873,1436977894864,0.0
874,1436977894884,0.0
875,1436977894904,0.0
876,1436977894926,0.0
877,1436977894944,0.0
878,1436977894964,0.0
879,1436977894988,0.0
880,1436977895005,0.0
881,1436977895025,0.0
882,1436977895044,0.0
883,1436977895064,0.0
884,1436977895083,0.0
885,1436977895103,0.0
886,1436977895123,0.0
887,1436977895144,0.0
888,1436977895163,0.0
889,1436977895183,0.0
890,1436977895203,0.0
891,1436977895223,0.0
892,1436977895244,0.0
893,1436977895264,0.0
894,1436977895283,0.0
895,1436977895304,0.0
896,1436977895323,0.0
897,1436977895343,0.0
898,1436977895363,0.0
899,1436977895383,0.0
900,1436977895403,0.0
901,1436977895424,0.0
902,1436977895443,0.0
903,1436977895464,0.0
904,1436977895484,0.0
905,1436977895504,0.0
906,1436977895524,0.0
907,1436977895544,0.0
908,1436977895564,0.0
909,1436977895584,0.0
910,1436977895604,0.0
911,1436977895624,0.0
912,1436977895644,0.0
