id,attr_time,attr_x,attr_y,attr_z
1,1436185163416,8.81,-47.724,4.063
2,1436185163433,8.81,-47.724,4.063
3,1436185163453,8.81,-47.724,4.063
4,1436185163473,8.81,-47.724,4.063
5,1436185163492,8.81,-47.724,4.063
6,1436185163512,8.81,-47.724,4.063
7,1436185163534,8.81,-47.724,4.063
8,1436185163556,8.81,-47.724,4.063
9,1436185163575,8.81,-47.724,4.063
10,1436185163593,8.81,-47.724,4.063
11,1436185163613,8.81,-47.724,4.063
12,1436185163635,8.81,-47.724,4.063
13,1436185163655,8.81,-47.724,4.063
14,1436185163677,8.81,-47.724,4.063
15,1436185163697,8.81,-47.724,4.063
16,1436185163718,8.81,-47.724,4.063
17,1436185163736,8.81,-47.724,4.063
18,1436185163753,8.81,-47.724,4.063
19,1436185163774,8.81,-47.724,4.063
20,1436185163794,8.81,-47.724,4.063
21,1436185163823,8.81,-47.724,4.063
22,1436185163850,8.81,-47.724,4.063
23,1436185163854,8.81,-47.724,4.063
24,1436185163874,8.81,-47.724,4.063
25,1436185163894,8.81,-47.724,4.063
26,1436185163913,8.81,-47.724,4.063
27,1436185163934,8.81,-47.724,4.063
28,1436185163954,8.81,-47.724,4.063
29,1436185163974,8.81,-47.724,4.063
30,1436185163994,8.81,-47.724,4.063
31,1436185164016,8.81,-47.724,4.376
32,1436185164038,8.81,-47.724,4.376
33,1436185164057,8.81,-47.724,4.376
34,1436185164074,8.81,-47.724,4.376
35,1436185164095,8.81,-47.724,4.376
36,1436185164114,8.81,-47.724,4.376
37,1436185164135,8.81,-47.724,4.376
38,1436185164155,8.81,-47.724,4.376
39,1436185164177,8.81,-47.724,4.376
40,1436185164198,8.81,-47.724,4.376
41,1436185164216,8.81,-47.724,4.376
42,1436185164236,8.81,-47.724,4.376
43,1436185164253,8.81,-47.724,4.376
44,1436185164278,8.81,-47.724,4.376
45,1436185164295,8.81,-47.724,4.376
46,1436185164317,8.81,-47.724,4.376
47,1436185164337,8.81,-47.724,4.376
48,1436185164358,8.81,-47.724,4.376
49,1436185164380,8.81,-47.724,4.376
50,1436185164395,8.81,-47.724,4.376
51,1436185164418,8.81,-47.724,4.376
52,1436185164444,8.81,-47.724,4.376
53,1436185164565,8.81,-47.724,4.376
54,1436185164566,8.81,-47.724,4.376
55,1436185164567,8.81,-47.724,4.376
56,1436185164568,8.81,-47.724,4.376
57,1436185164569,8.81,-47.724,4.376
58,1436185164570,8.81,-47.724,4.376
59,1436185164581,8.81,-47.724,4.376
60,1436185164607,8.81,-47.724,4.376
61,1436185164615,8.81,-47.724,4.376
62,1436185164635,8.81,-47.724,4.376
63,1436185164655,8.81,-47.724,4.376
64,1436185164674,8.81,-47.724,4.376
65,1436185164703,8.81,-47.724,4.376
66,1436185164728,8.81,-47.724,4.376
67,1436185164735,8.81,-47.724,4.376
68,1436185164755,8.81,-47.724,4.376
69,1436185164776,8.81,-47.724,4.376
70,1436185164795,8.81,-47.724,4.376
71,1436185164824,8.81,-47.724,4.376
72,1436185164835,8.81,-47.724,4.376
73,1436185164855,8.81,-47.724,4.376
74,1436185164875,8.81,-47.724,4.376
75,1436185164895,8.81,-47.724,4.376
76,1436185164916,8.81,-47.724,4.376
77,1436185164934,8.81,-47.724,4.376
78,1436185164955,8.81,-47.724,4.376
79,1436185164975,8.81,-47.724,4.376
80,1436185164994,8.81,-47.724,4.376
81,1436185165016,8.81,-47.724,4.376
82,1436185165036,8.81,-47.724,4.376
83,1436185165055,8.81,-47.724,4.376
84,1436185165074,8.81,-47.724,4.376
85,1436185165096,8.81,-47.724,4.376
86,1436185165114,8.81,-47.724,4.376
87,1436185165135,8.81,-47.724,4.376
88,1436185165154,8.81,-47.724,4.376
89,1436185165175,8.81,-47.724,4.376
90,1436185165194,8.81,-47.724,4.376
91,1436185165215,8.81,-47.724,4.376
92,1436185165235,8.81,-47.724,4.376
93,1436185165256,8.81,-47.724,4.376
94,1436185165274,8.81,-47.724,4.376
95,1436185165295,8.81,-47.724,4.376
96,1436185165314,8.81,-47.724,4.376
97,1436185165334,8.81,-47.724,4.376
98,1436185165354,8.81,-47.724,4.376
99,1436185165375,8.81,-47.724,4.376
100,1436185165394,8.81,-47.724,4.376
101,1436185165416,8.81,-47.724,4.376
102,1436185165435,8.81,-47.724,4.376
103,1436185165458,8.81,-47.724,4.376
104,1436185165477,8.81,-47.724,4.376
105,1436185165497,8.81,-47.724,4.376
106,1436185165516,8.81,-47.724,4.376
107,1436185165537,8.81,-47.724,4.376
108,1436185165558,8.81,-47.724,4.376
109,1436185165576,8.81,-47.724,4.376
110,1436185165597,8.81,-47.724,4.376
111,1436185165616,8.81,-47.724,4.376
112,1436185165641,8.81,-47.724,4.376
113,1436185165660,8.81,-47.724,4.376
114,1436185165678,8.81,-47.724,4.376
115,1436185165696,8.81,-47.724,4.376
116,1436185165715,8.81,-47.724,4.376
117,1436185165737,8.81,-47.724,4.376
118,1436185165756,8.81,-47.724,4.376
119,1436185165775,8.81,-47.724,4.376
120,1436185165795,8.81,-47.724,4.376
121,1436185165817,8.81,-47.724,4.376
122,1436185165837,8.81,-47.724,4.376
123,1436185165856,8.81,-47.724,4.376
124,1436185165876,8.81,-47.724,4.376
125,1436185165896,8.81,-47.724,4.376
126,1436185165977,8.81,-47.724,4.376
127,1436185165978,8.81,-47.724,4.376
128,1436185165979,8.81,-47.724,4.376
129,1436185165980,8.81,-47.724,4.376
130,1436185165998,8.81,-47.724,4.376
131,1436185166028,8.81,-47.724,4.376
132,1436185166036,8.81,-47.724,4.376
133,1436185166056,8.81,-47.724,4.376
134,1436185166078,8.81,-47.724,4.376
135,1436185166097,8.81,-47.724,4.055
136,1436185166117,8.81,-47.724,4.055
137,1436185166136,8.81,-47.724,4.055
138,1436185166157,8.81,-47.724,4.055
139,1436185166176,8.81,-47.724,4.055
140,1436185166197,8.81,-47.724,4.055
141,1436185166216,8.81,-47.724,4.055
142,1436185166237,8.81,-47.724,4.055
143,1436185166256,8.81,-47.724,4.055
144,1436185166280,8.81,-47.724,4.055
145,1436185166298,8.81,-47.724,4.055
146,1436185166317,8.81,-47.724,4.055
147,1436185166337,8.81,-47.724,4.055
148,1436185166357,8.81,-47.724,4.055
149,1436185166392,8.81,-47.724,4.055
150,1436185166397,8.81,-47.724,4.055
151,1436185166418,8.81,-47.724,4.055
152,1436185166440,8.81,-47.724,4.055
153,1436185166458,8.81,-47.724,4.055
154,1436185166488,8.81,-47.724,4.055
155,1436185166499,8.81,-47.724,4.055
156,1436185166519,8.81,-47.724,4.055
157,1436185166540,8.81,-47.724,4.055
158,1436185166558,8.81,-47.724,4.055
159,1436185166577,8.81,-47.724,4.055
160,1436185166597,8.81,-47.724,4.055
161,1436185166616,8.81,-47.724,4.055
162,1436185166726,8.81,-47.724,4.055
163,1436185166727,8.81,-47.724,4.055
164,1436185166728,8.81,-47.724,4.055
165,1436185166729,8.81,-47.724,4.055
166,1436185166730,8.81,-47.724,4.055
167,1436185166744,8.81,-47.724,4.055
168,1436185166760,8.81,-47.724,4.055
169,1436185166777,8.81,-47.724,4.055
170,1436185166796,8.81,-47.724,4.055
171,1436185166817,8.81,-47.724,4.055
172,1436185166858,8.81,-47.724,4.055
173,1436185166859,8.81,-47.724,4.055
174,1436185166918,8.81,-47.724,4.055
175,1436185166919,8.81,-47.724,4.055
176,1436185166920,8.81,-47.724,4.055
177,1436185166938,8.81,-47.724,4.055
178,1436185166957,8.81,-47.724,4.055
179,1436185166979,8.81,-47.724,4.055
180,1436185166996,8.81,-47.724,4.055
181,1436185167017,8.81,-47.724,4.055
182,1436185167036,8.81,-47.724,4.055
183,1436185167057,8.81,-47.724,4.055
184,1436185167080,8.81,-47.724,4.055
185,1436185167097,8.81,-47.724,4.055
186,1436185167117,8.81,-47.724,4.055
187,1436185167137,8.81,-47.724,4.055
188,1436185167157,8.81,-47.724,4.055
189,1436185167176,8.81,-47.724,4.055
190,1436185167199,8.81,-47.724,4.055
191,1436185167220,8.81,-47.724,4.055
192,1436185167239,8.81,-47.724,4.055
193,1436185167259,8.81,-47.724,4.055
194,1436185167277,8.81,-47.724,4.364
195,1436185167296,8.81,-47.724,4.364
196,1436185167316,8.81,-47.724,4.364
197,1436185167336,8.81,-47.724,4.364
198,1436185167357,8.81,-47.724,4.364
199,1436185167380,8.81,-47.724,4.364
200,1436185167400,8.81,-47.724,4.364
201,1436185167418,8.81,-47.724,4.364
202,1436185167546,8.81,-47.724,4.364
203,1436185167547,8.81,-47.724,4.364
204,1436185167548,8.81,-47.724,4.364
205,1436185167549,8.81,-47.724,4.364
206,1436185167550,8.81,-47.724,4.364
207,1436185167551,8.81,-47.724,4.364
208,1436185167570,8.81,-47.724,4.364
209,1436185167583,8.81,-47.724,4.364
210,1436185167603,8.81,-47.724,4.364
211,1436185167617,8.81,-47.724,4.364
212,1436185167649,8.81,-47.724,4.364
213,1436185167657,8.81,-47.724,4.364
214,1436185167677,8.81,-47.724,4.364
215,1436185167704,8.81,-47.724,4.364
216,1436185167717,8.81,-47.724,4.364
217,1436185167738,8.81,-47.724,4.364
218,1436185167762,8.81,-47.724,4.364
219,1436185167781,8.81,-47.724,4.364
220,1436185167802,8.81,-47.724,4.364
221,1436185167820,8.81,-47.724,4.364
222,1436185167841,8.81,-47.724,4.364
223,1436185167864,8.81,-47.724,4.364
224,1436185167879,8.81,-47.724,4.364
225,1436185167898,8.81,-47.724,4.364
226,1436185167927,8.81,-47.724,4.364
227,1436185167941,8.81,-47.724,4.364
228,1436185167958,8.81,-47.724,4.364
229,1436185167981,8.81,-47.724,4.364
230,1436185168000,8.81,-47.724,4.364
231,1436185168021,8.81,-47.724,4.364
232,1436185168038,8.81,-47.724,4.364
233,1436185168059,8.81,-47.724,4.364
234,1436185168081,8.81,-47.724,4.058
235,1436185168100,8.81,-47.724,4.058
236,1436185168122,8.81,-47.724,4.058
237,1436185168140,8.81,-47.724,4.058
238,1436185168159,8.81,-47.724,4.058
239,1436185168186,8.81,-47.724,4.058
240,1436185168250,8.81,-47.724,4.058
241,1436185168252,8.81,-47.724,4.058
242,1436185168253,8.81,-47.724,4.058
243,1436185168280,8.81,-47.724,4.058
244,1436185168281,8.81,-47.724,4.058
245,1436185168298,8.81,-47.724,4.058
246,1436185168327,8.81,-47.724,4.058
247,1436185168339,8.81,-47.724,4.058
248,1436185168358,8.81,-47.724,4.058
249,1436185168383,8.81,-47.724,4.058
250,1436185168403,8.81,-47.724,3.717
251,1436185168420,8.81,-47.724,3.717
252,1436185168443,8.81,-47.724,3.717
253,1436185168465,8.81,-47.724,3.717
254,1436185168495,9.118,-47.724,3.717
255,1436185168499,9.118,-47.724,3.717
256,1436185168521,9.118,-47.724,3.717
257,1436185168541,9.118,-47.724,3.717
258,1436185168560,9.118,-47.724,3.717
259,1436185168583,9.118,-47.724,3.717
260,1436185168602,9.118,-47.724,3.717
261,1436185168620,9.118,-47.724,3.717
262,1436185168638,9.118,-47.724,3.717
263,1436185168659,9.118,-47.724,3.717
264,1436185168684,9.118,-47.724,3.717
265,1436185168703,9.118,-47.724,3.717
266,1436185168719,9.118,-47.724,3.717
267,1436185168739,9.118,-47.724,3.717
268,1436185168759,9.118,-47.724,3.717
269,1436185168786,9.118,-47.724,3.717
270,1436185168802,9.118,-47.724,3.717
271,1436185168821,9.118,-47.724,3.717
272,1436185168855,9.118,-47.724,3.717
273,1436185168858,9.118,-47.724,3.717
274,1436185168878,9.118,-47.724,4.019
275,1436185168899,9.118,-47.724,4.019
276,1436185168918,9.118,-47.724,4.019
277,1436185168938,9.118,-47.724,4.019
278,1436185168960,9.118,-47.724,4.019
279,1436185168979,9.118,-47.724,4.019
280,1436185169031,9.118,-47.724,4.019
281,1436185169047,9.118,-47.724,4.019
282,1436185169048,9.118,-47.724,4.019
283,1436185169062,9.118,-47.724,4.019
284,1436185169079,9.118,-47.724,4.382
285,1436185169100,9.118,-47.724,4.382
286,1436185169121,9.118,-47.724,4.382
287,1436185169139,9.118,-47.724,4.382
288,1436185169159,9.118,-47.724,4.382
289,1436185169179,9.118,-47.724,4.382
290,1436185169202,9.118,-47.724,4.382
291,1436185169219,9.118,-47.724,4.382
292,1436185169240,9.118,-47.724,4.382
293,1436185169259,9.118,-47.724,4.382
294,1436185169282,9.118,-47.724,4.382
295,1436185169300,9.118,-47.724,4.382
296,1436185169323,9.118,-47.724,4.382
297,1436185169342,9.118,-47.724,4.382
298,1436185169361,9.118,-47.724,4.382
299,1436185169420,9.118,-47.724,4.382
300,1436185169421,9.118,-47.724,4.382
301,1436185169422,9.118,-47.724,4.382
302,1436185169443,9.118,-47.724,4.382
303,1436185169465,9.118,-47.724,4.382
304,1436185169483,9.118,-47.724,4.382
305,1436185169499,9.118,-47.724,4.382
306,1436185169519,9.118,-47.724,4.382
307,1436185169539,9.118,-47.724,4.382
308,1436185169563,9.118,-47.724,4.382
309,1436185169581,9.118,-47.724,4.382
310,1436185169603,9.118,-47.724,4.382
311,1436185169622,9.118,-47.724,4.382
312,1436185169642,9.118,-47.724,4.382
313,1436185169664,9.118,-47.724,4.382
314,1436185169680,9.118,-47.724,4.382
315,1436185169703,9.118,-47.724,4.382
316,1436185169721,9.118,-47.724,4.382
317,1436185169742,9.118,-47.724,4.382
318,1436185169767,9.118,-47.724,4.382
319,1436185169845,9.118,-47.724,4.382
320,1436185169846,9.118,-47.724,4.382
321,1436185169847,9.118,-47.724,4.382
322,1436185169848,9.118,-47.724,4.382
323,1436185169859,9.118,-47.724,4.382
324,1436185169880,9.118,-47.724,4.382
325,1436185169900,9.118,-47.724,4.055
326,1436185169920,9.118,-47.724,4.055
327,1436185169946,9.118,-47.724,4.055
328,1436185169968,9.118,-47.724,4.055
329,1436185169981,9.118,-47.724,4.055
330,1436185170003,9.118,-47.724,4.055
331,1436185170026,9.118,-47.724,4.055
332,1436185170041,9.118,-47.724,3.753
333,1436185170060,9.118,-47.724,3.753
334,1436185170081,9.118,-47.724,3.753
335,1436185170104,9.118,-47.724,3.753
336,1436185170122,9.118,-47.724,3.753
337,1436185170143,9.118,-47.724,3.753
338,1436185170163,9.431,-47.724,3.753
339,1436185170183,9.431,-47.724,3.753
340,1436185170204,9.431,-47.724,3.753
341,1436185170225,9.431,-47.724,3.753
342,1436185170243,9.431,-47.724,3.753
343,1436185170260,9.431,-47.724,3.753
344,1436185170281,9.431,-47.724,3.753
345,1436185170300,9.431,-47.724,3.753
346,1436185170326,9.431,-47.724,3.753
347,1436185170341,9.431,-47.724,3.753
348,1436185170363,9.431,-47.724,3.753
349,1436185170380,9.431,-47.724,3.753
350,1436185170403,9.431,-47.724,3.753
351,1436185170420,9.431,-47.724,3.753
352,1436185170443,9.431,-47.724,3.753
353,1436185170472,9.431,-47.724,3.753
354,1436185170492,9.431,-47.724,4.066
355,1436185170512,9.431,-47.724,4.066
356,1436185170587,9.431,-47.724,4.066
357,1436185170588,9.431,-47.724,4.066
358,1436185170589,9.431,-47.724,4.475
359,1436185170590,9.431,-47.724,4.475
360,1436185170612,9.431,-47.724,4.475
361,1436185170620,9.431,-47.724,4.809
362,1436185170643,9.431,-47.724,4.809
363,1436185170660,9.431,-47.724,4.809
364,1436185170685,9.431,-47.724,5.14
365,1436185170700,9.431,-47.724,5.14
366,1436185170722,9.742,-47.724,5.14
367,1436185170745,9.742,-47.724,5.14
368,1436185170761,9.742,-47.724,5.453
369,1436185170787,9.742,-47.724,5.453
370,1436185170802,9.742,-47.724,5.453
371,1436185170822,9.742,-47.724,5.453
372,1436185170841,9.742,-47.724,5.828
373,1436185170862,9.742,-47.724,5.828
374,1436185170915,9.742,-47.724,5.828
375,1436185170916,9.742,-47.724,6.195
376,1436185170928,9.742,-47.724,6.195
377,1436185170942,9.742,-47.724,6.195
378,1436185170963,9.742,-47.724,6.504
379,1436185170984,9.742,-47.724,6.504
380,1436185171002,9.742,-47.724,6.504
381,1436185171020,9.742,-47.724,6.504
382,1436185171040,9.742,-47.724,6.504
383,1436185171062,9.742,-47.724,6.826
384,1436185171083,9.434,-47.724,6.826
385,1436185171102,9.434,-48.027,6.826
386,1436185171124,9.434,-48.027,6.826
387,1436185171140,9.434,-48.027,6.826
388,1436185171162,9.051,-48.027,6.826
389,1436185171180,9.051,-48.027,7.17
390,1436185171202,9.051,-48.027,7.17
391,1436185171223,8.726,-48.373,7.17
392,1436185171243,8.726,-48.373,7.17
393,1436185171262,8.726,-48.373,7.17
394,1436185171284,8.726,-48.373,7.17
395,1436185171326,8.398,-48.674,7.17
396,1436185171327,8.398,-48.674,7.17
397,1436185171343,8.398,-48.674,7.17
398,1436185171360,8.398,-48.674,6.79
399,1436185171384,8.398,-48.98,6.79
400,1436185171402,8.398,-48.98,6.79
401,1436185171423,8.398,-48.98,6.428
402,1436185171441,8.398,-48.98,6.428
403,1436185171462,8.398,-49.353,5.76
404,1436185171483,8.398,-49.353,5.383
405,1436185171502,8.398,-49.353,4.977
406,1436185171520,8.398,-49.353,4.977
407,1436185171543,8.398,-49.723,4.446
408,1436185171563,8.398,-49.723,3.877
409,1436185171581,8.398,-49.723,3.877
410,1436185171603,8.75,-49.723,3.877
411,1436185171621,8.75,-50.062,2.885
412,1436185171644,8.75,-50.062,2.885
413,1436185171664,9.23,-50.062,2.885
414,1436185171683,9.23,-50.062,2.885
415,1436185171703,9.744,-50.062,2.885
416,1436185171723,10.429,-50.062,2.885
417,1436185171745,10.429,-50.062,2.885
418,1436185171763,11.021,-50.376,2.885
419,1436185171781,11.021,-50.376,2.56
420,1436185171803,11.021,-50.376,2.56
421,1436185171827,11.39,-50.376,2.252
422,1436185171844,11.39,-50.376,2.252
423,1436185171866,11.39,-50.376,2.252
424,1436185171884,11.39,-50.376,1.817
425,1436185171905,11.39,-50.376,1.817
426,1436185171929,11.866,-50.376,1.455
427,1436185171952,11.866,-50.376,1.455
428,1436185172016,12.194,-50.376,1.145
429,1436185172036,12.194,-50.376,1.145
430,1436185172037,12.194,-50.376,0.802
431,1436185172038,12.582,-50.376,0.802
432,1436185172043,12.582,-50.376,0.482
433,1436185172064,12.582,-50.376,0.482
434,1436185172092,12.582,-50.376,0.01
435,1436185172104,12.582,-50.376,0.01
436,1436185172122,12.582,-50.376,0.01
437,1436185172146,12.582,-50.376,0.01
438,1436185172164,12.582,-50.376,0.01
439,1436185172188,12.582,-50.376,-0.363
440,1436185172207,12.582,-50.376,-0.363
441,1436185172224,12.582,-50.376,-0.363
442,1436185172242,12.582,-50.376,-0.689
443,1436185172262,12.582,-50.376,-0.689
444,1436185172286,12.582,-50.376,-0.689
445,1436185172304,12.582,-50.376,-0.689
446,1436185172326,12.582,-50.376,-0.994
447,1436185172342,12.582,-50.071,-0.994
448,1436185172365,12.582,-50.071,-0.994
449,1436185172395,12.582,-50.071,-0.994
450,1436185172404,12.582,-50.071,-0.994
451,1436185172422,12.582,-50.071,-1.33
452,1436185172443,12.582,-50.071,-1.33
453,1436185172471,12.582,-50.071,-1.33
454,1436185172491,12.582,-49.768,-1.33
455,1436185172504,12.96,-49.768,-1.715
456,1436185172526,12.96,-49.768,-1.715
457,1436185172542,12.96,-49.768,-1.715
458,1436185172566,13.377,-49.446,-2.153
459,1436185172590,13.377,-49.446,-2.153
460,1436185172606,13.732,-49.446,-2.153
461,1436185172625,13.732,-49.446,-2.612
462,1436185172644,14.091,-49.093,-2.612
463,1436185172664,14.091,-49.093,-3.022
464,1436185172683,14.533,-49.093,-3.677
465,1436185172703,14.877,-48.736,-4.756
466,1436185172727,15.336,-48.736,-5.253
467,1436185172813,15.637,-48.42,-5.926
468,1436185172814,15.637,-48.42,-6.701
469,1436185172815,16.188,-48.051,-6.701
470,1436185172816,16.188,-47.673,-6.701
471,1436185172823,16.781,-47.209,-7.232
472,1436185172853,16.781,-47.209,-6.739
473,1436185172867,16.781,-47.209,-6.739
474,1436185172883,16.781,-46.685,-6.289
475,1436185172905,17.097,-46.685,-6.289
476,1436185172926,17.431,-46.343,-5.61
477,1436185172950,17.764,-46.343,-5.995
478,1436185172962,17.764,-46.343,-5.995
479,1436185172985,18.202,-46.343,-6.579
480,1436185173010,18.202,-45.964,-6.579
481,1436185173024,18.202,-45.964,-6.579
482,1436185173050,18.202,-45.626,-6.579
483,1436185173064,18.527,-45.626,-6.579
484,1436185173083,18.527,-45.626,-6.579
485,1436185173109,18.876,-45.26,-6.579
486,1436185173123,18.876,-45.26,-6.579
487,1436185173143,19.238,-45.26,-6.579
488,1436185173165,20.397,-44.914,-6.579
489,1436185173184,21.366,-44.914,-6.579
490,1436185173206,20.75,-44.914,-6.579
491,1436185173227,20.75,-44.561,-6.147
492,1436185173245,20.75,-44.561,-6.147
493,1436185173264,20.75,-44.252,-6.147
494,1436185173284,21.719,-44.252,-6.147
495,1436185173309,22.079,-44.252,-6.147
496,1436185173324,21.351,-43.792,-6.147
497,1436185173343,22.346,-43.443,-6.147
498,1436185173363,21.708,-42.909,-6.147
499,1436185173384,21.708,-42.19,-6.147
500,1436185173418,21.708,-41.439,-6.147
501,1436185173426,22.024,-40.65,-6.147
502,1436185173444,22.024,-39.956,-6.147
503,1436185173472,22.024,-39.166,-6.147
504,1436185173490,22.332,-38.438,-6.147
505,1436185173596,22.332,-37.701,-6.147
506,1436185173597,22.332,-36.901,-6.147
507,1436185173598,22.656,-36.219,-6.147
508,1436185173599,22.656,-35.543,-6.147
509,1436185173600,22.656,-34.977,-6.147
510,1436185173618,22.656,-34.674,-6.147
511,1436185173647,22.656,-34.674,-6.147
512,1436185173648,22.656,-34.674,-6.147
513,1436185173666,22.656,-34.674,-6.147
514,1436185173684,22.656,-34.674,-6.147
515,1436185173705,22.656,-34.674,-6.147
516,1436185173730,22.656,-34.674,-6.147
517,1436185173745,22.656,-34.674,-6.147
518,1436185173777,22.656,-34.674,-6.147
519,1436185173784,22.656,-34.674,-5.78
520,1436185173807,22.656,-34.674,-5.78
521,1436185173825,22.656,-34.674,-5.78
522,1436185173844,22.656,-34.674,-5.78
523,1436185173868,22.656,-34.674,-5.447
524,1436185173884,22.656,-34.336,-5.447
525,1436185173905,22.656,-34.336,-5.447
526,1436185173925,22.656,-34.02,-5.447
527,1436185173945,22.282,-34.02,-5.447
528,1436185173971,22.282,-33.711,-5.447
529,1436185173987,22.282,-33.711,-5.447
530,1436185174007,22.282,-33.711,-5.447
531,1436185174025,22.282,-33.013,-5.447
