id,attr_time,attr_light
1,1436965110616,1100.0
2,1436965110636,1100.0
3,1436965110656,1101.0
4,1436965110675,1101.0
5,1436965110701,1101.0
6,1436965110758,1101.0
7,1436965110759,1102.0
8,1436965110760,1102.0
9,1436965110777,1102.0
10,1436965110794,1102.0
11,1436965110814,1103.0
12,1436965110832,1103.0
13,1436965110859,1104.0
14,1436965110875,1104.0
15,1436965110894,1105.0
16,1436965110914,1105.0
17,1436965110935,1104.0
18,1436965110957,1104.0
19,1436965110976,1105.0
20,1436965110993,1105.0
21,1436965111013,1105.0
22,1436965111036,1105.0
23,1436965111056,1105.0
24,1436965111076,1105.0
25,1436965111096,1105.0
26,1436965111116,1105.0
27,1436965111136,1105.0
28,1436965111154,1105.0
29,1436965111174,1105.0
30,1436965111196,1107.0
31,1436965111213,1107.0
32,1436965111235,1106.0
33,1436965111257,1106.0
34,1436965111278,1106.0
35,1436965111298,1106.0
36,1436965111318,1107.0
37,1436965111336,1107.0
38,1436965111353,1108.0
39,1436965111375,1108.0
40,1436965111395,1108.0
41,1436965111415,1109.0
42,1436965111434,1109.0
43,1436965111486,1108.0
44,1436965111487,1108.0
45,1436965111503,1108.0
46,1436965111514,1108.0
47,1436965111535,1109.0
48,1436965111554,1109.0
49,1436965111573,1109.0
50,1436965111596,1109.0
51,1436965111614,1109.0
52,1436965111634,1109.0
53,1436965111656,1109.0
54,1436965111674,1109.0
55,1436965111693,1109.0
56,1436965111717,1109.0
57,1436965111737,1109.0
58,1436965111757,1109.0
59,1436965111777,1109.0
60,1436965111797,1108.0
61,1436965111817,1108.0
62,1436965111836,1108.0
63,1436965111857,1108.0
64,1436965111877,1106.0
65,1436965111894,1106.0
66,1436965111917,1106.0
67,1436965111934,1106.0
68,1436965111956,1107.0
69,1436965111974,1107.0
70,1436965111999,1107.0
71,1436965112019,1107.0
72,1436965112039,1107.0
73,1436965112057,1107.0
74,1436965112074,1107.0
75,1436965112096,1107.0
76,1436965112116,1107.0
77,1436965112136,1107.0
78,1436965112157,1108.0
79,1436965112209,1108.0
80,1436965112210,1108.0
81,1436965112224,1107.0
82,1436965112235,1107.0
83,1436965112258,1107.0
84,1436965112275,1107.0
85,1436965112295,1107.0
86,1436965112316,1107.0
87,1436965112335,1107.0
88,1436965112356,1107.0
89,1436965112375,1107.0
90,1436965112397,1107.0
91,1436965112414,1107.0
92,1436965112437,1107.0
93,1436965112457,1106.0
94,1436965112478,1106.0
95,1436965112497,1106.0
96,1436965112518,1106.0
97,1436965112538,1106.0
98,1436965112557,1106.0
99,1436965112574,1105.0
100,1436965112595,1106.0
101,1436965112618,1106.0
102,1436965112654,1106.0
103,1436965112655,1106.0
104,1436965112691,1106.0
105,1436965112694,1106.0
106,1436965112715,1105.0
107,1436965112735,1105.0
108,1436965112754,1105.0
109,1436965112774,1105.0
110,1436965112794,1106.0
111,1436965112815,1106.0
112,1436965112836,1105.0
113,1436965112854,1105.0
114,1436965112874,1106.0
115,1436965112904,1106.0
116,1436965112920,1105.0
117,1436965112935,1105.0
118,1436965112955,1104.0
119,1436965112975,1103.0
120,1436965112995,1103.0
121,1436965113028,1104.0
122,1436965113035,1104.0
123,1436965113055,1103.0
124,1436965113075,1103.0
125,1436965113094,1103.0
126,1436965113116,1103.0
127,1436965113135,1103.0
128,1436965113157,1103.0
129,1436965113175,1103.0
130,1436965113195,1103.0
131,1436965113216,1103.0
132,1436965113239,1103.0
133,1436965113258,1103.0
134,1436965113278,1103.0
135,1436965113295,1103.0
136,1436965113314,1103.0
137,1436965113336,1103.0
138,1436965113358,1103.0
139,1436965113378,1103.0
140,1436965113398,1104.0
141,1436965113417,1104.0
142,1436965113435,1105.0
143,1436965113456,1105.0
144,1436965113478,1104.0
145,1436965113498,1104.0
146,1436965113519,1105.0
147,1436965113537,1105.0
148,1436965113556,1105.0
149,1436965113575,1105.0
150,1436965113629,1105.0
151,1436965113630,1105.0
152,1436965113638,1106.0
153,1436965113658,1106.0
154,1436965113676,1105.0
155,1436965113709,1105.0
156,1436965113716,1106.0
157,1436965113736,1106.0
158,1436965113756,1105.0
159,1436965113777,1104.0
160,1436965113800,1104.0
161,1436965113819,1105.0
162,1436965113839,1105.0
163,1436965113859,1103.0
164,1436965113879,1103.0
165,1436965113896,1107.0
166,1436965113918,1107.0
167,1436965113936,1106.0
168,1436965113960,1106.0
169,1436965113976,1105.0
170,1436965114003,1105.0
171,1436965114021,1107.0
172,1436965114036,1107.0
173,1436965114056,1108.0
174,1436965114076,1108.0
175,1436965114099,1108.0
176,1436965114116,1108.0
177,1436965114136,1109.0
178,1436965114157,1110.0
179,1436965114182,1110.0
180,1436965114202,1110.0
181,1436965114222,1110.0
182,1436965114239,1110.0
183,1436965114311,1110.0
184,1436965114316,1112.0
185,1436965114320,1112.0
186,1436965114321,1113.0
187,1436965114347,1113.0
188,1436965114358,1113.0
189,1436965114382,1113.0
190,1436965114396,1113.0
191,1436965114417,1113.0
192,1436965114438,1113.0
193,1436965114456,1113.0
194,1436965114479,1114.0
195,1436965114496,1114.0
196,1436965114518,1114.0
197,1436965114539,1115.0
198,1436965114559,1115.0
199,1436965114579,1116.0
200,1436965114599,1116.0
201,1436965114619,1116.0
202,1436965114640,1116.0
203,1436965114660,1117.0
204,1436965114680,1117.0
205,1436965114699,1117.0
206,1436965114718,1117.0
207,1436965114738,1118.0
208,1436965114758,1118.0
209,1436965114778,1117.0
210,1436965114798,1117.0
211,1436965114817,1116.0
212,1436965114840,1116.0
213,1436965114859,1115.0
214,1436965114878,1115.0
215,1436965114902,1115.0
216,1436965114920,1115.0
217,1436965114939,1117.0
218,1436965114958,1117.0
219,1436965114978,1117.0
220,1436965115032,1115.0
221,1436965115033,1115.0
222,1436965115043,1114.0
223,1436965115057,1114.0
224,1436965115077,1112.0
225,1436965115104,1112.0
226,1436965115127,1110.0
227,1436965115137,1110.0
228,1436965115158,1110.0
229,1436965115179,1110.0
230,1436965115197,1108.0
231,1436965115218,1108.0
232,1436965115238,1108.0
233,1436965115259,1108.0
234,1436965115280,1108.0
235,1436965115300,1108.0
236,1436965115319,1107.0
237,1436965115339,1105.0
238,1436965115360,1105.0
239,1436965115380,1107.0
240,1436965115400,1107.0
241,1436965115419,1111.0
242,1436965115439,1111.0
243,1436965115458,1114.0
244,1436965115479,1114.0
245,1436965115500,1121.0
246,1436965115519,1121.0
247,1436965115539,1139.0
248,1436965115560,1139.0
249,1436965115579,1165.0
250,1436965115599,1165.0
251,1436965115620,1190.0
252,1436965115639,1190.0
253,1436965115661,1211.0
254,1436965115679,1211.0
255,1436965115698,1232.0
256,1436965115724,1256.0
257,1436965115792,1256.0
258,1436965115793,1292.0
259,1436965115794,1292.0
260,1436965115800,1336.0
261,1436965115818,1336.0
262,1436965115838,1384.0
263,1436965115857,1384.0
264,1436965115877,1425.0
265,1436965115899,1425.0
266,1436965115923,1454.0
267,1436965115940,1454.0
268,1436965115958,1466.0
269,1436965115979,1466.0
270,1436965115998,1440.0
271,1436965116018,1440.0
272,1436965116039,1390.0
273,1436965116061,1390.0
274,1436965116081,1361.0
275,1436965116101,1357.0
276,1436965116121,1357.0
277,1436965116139,1343.0
278,1436965116161,1343.0
279,1436965116180,1314.0
280,1436965116199,1314.0
281,1436965116221,1276.0
282,1436965116240,1276.0
283,1436965116260,1239.0
284,1436965116279,1239.0
285,1436965116301,1206.0
286,1436965116322,1206.0
287,1436965116342,1180.0
288,1436965116361,1180.0
289,1436965116380,1163.0
290,1436965116399,1163.0
291,1436965116421,1145.0
292,1436965116440,1145.0
293,1436965116512,1123.0
294,1436965116513,1123.0
295,1436965116514,1100.0
296,1436965116525,1077.0
297,1436965116538,1077.0
298,1436965116561,1051.0
299,1436965116578,1051.0
300,1436965116611,1021.0
301,1436965116618,1021.0
302,1436965116639,992.0
303,1436965116659,992.0
304,1436965116679,968.0
305,1436965116702,968.0
306,1436965116719,949.0
307,1436965116739,949.0
308,1436965116762,947.0
309,1436965116782,947.0
310,1436965116802,953.0
311,1436965116821,953.0
312,1436965116839,960.0
313,1436965116862,960.0
314,1436965116879,970.0
315,1436965116909,980.0
316,1436965116918,980.0
317,1436965116941,990.0
318,1436965116959,990.0
319,1436965116980,993.0
320,1436965116999,993.0
321,1436965117022,990.0
322,1436965117039,990.0
323,1436965117061,974.0
324,1436965117267,974.0
325,1436965117268,960.0
326,1436965117269,960.0
327,1436965117270,963.0
328,1436965117271,963.0
329,1436965117272,971.0
330,1436965117273,971.0
331,1436965117274,984.0
332,1436965117275,984.0
333,1436965117276,990.0
334,1436965117350,989.0
335,1436965117351,989.0
336,1436965117352,978.0
337,1436965117353,978.0
338,1436965117359,977.0
339,1436965117379,977.0
340,1436965117402,990.0
341,1436965117419,990.0
342,1436965117439,1011.0
343,1436965117459,1011.0
344,1436965117479,1036.0
345,1436965117499,1036.0
346,1436965117519,1058.0
347,1436965117539,1058.0
348,1436965117559,1076.0
349,1436965117579,1076.0
350,1436965117600,1090.0
351,1436965117620,1090.0
352,1436965117638,1092.0
353,1436965117658,1092.0
354,1436965117678,1085.0
355,1436965117698,1078.0
356,1436965117718,1078.0
357,1436965117739,1079.0
358,1436965117759,1079.0
359,1436965117779,1092.0
360,1436965117798,1092.0
361,1436965117818,1104.0
362,1436965117838,1104.0
363,1436965117858,1113.0
364,1436965117884,1113.0
365,1436965117900,1116.0
366,1436965117918,1116.0
367,1436965117939,1125.0
368,1436965117958,1125.0
369,1436965117978,1153.0
370,1436965117998,1153.0
371,1436965118019,1206.0
372,1436965118038,1206.0
373,1436965118058,1259.0
374,1436965118078,1282.0
375,1436965118098,1282.0
376,1436965118119,1248.0
377,1436965118139,1248.0
378,1436965118159,1206.0
379,1436965118179,1206.0
380,1436965118201,1188.0
381,1436965118221,1188.0
382,1436965118240,1165.0
383,1436965118263,1165.0
384,1436965118280,1133.0
385,1436965118302,1133.0
386,1436965118320,1114.0
387,1436965118340,1114.0
388,1436965118360,1115.0
389,1436965118387,1115.0
390,1436965118402,1142.0
391,1436965118422,1142.0
392,1436965118441,1177.0
393,1436965118469,1178.0
394,1436965118540,1178.0
395,1436965118541,1151.0
396,1436965118542,1151.0
397,1436965118543,1124.0
398,1436965118562,1124.0
399,1436965118582,1107.0
400,1436965118601,1107.0
401,1436965118620,1096.0
402,1436965118646,1096.0
403,1436965118662,1097.0
404,1436965118682,1097.0
405,1436965118701,1105.0
406,1436965118723,1105.0
407,1436965118741,1115.0
408,1436965118763,1115.0
409,1436965118784,1120.0
410,1436965118803,1120.0
411,1436965118824,1122.0
412,1436965118842,1122.0
413,1436965118864,1120.0
414,1436965118883,1112.0
415,1436965118903,1112.0
416,1436965118920,1104.0
417,1436965118943,1104.0
418,1436965118964,1101.0
419,1436965118980,1101.0
420,1436965119000,1100.0
421,1436965119021,1100.0
422,1436965119041,1100.0
423,1436965119066,1100.0
424,1436965119087,1103.0
425,1436965119105,1103.0
426,1436965119121,1107.0
427,1436965119141,1107.0
428,1436965119161,1112.0
429,1436965119196,1112.0
430,1436965119204,1118.0
431,1436965119267,1118.0
432,1436965119268,1122.0
433,1436965119269,1124.0
434,1436965119281,1124.0
435,1436965119301,1125.0
436,1436965119323,1125.0
437,1436965119343,1125.0
438,1436965119364,1125.0
439,1436965119382,1124.0
440,1436965119404,1124.0
441,1436965119422,1125.0
442,1436965119446,1125.0
443,1436965119461,1122.0
444,1436965119484,1122.0
445,1436965119504,1116.0
446,1436965119524,1116.0
447,1436965119541,1112.0
448,1436965119563,1112.0
449,1436965119583,1104.0
450,1436965119603,1104.0
451,1436965119623,1102.0
452,1436965119642,1105.0
453,1436965119664,1105.0
454,1436965119683,1111.0
455,1436965119704,1111.0
456,1436965119724,1116.0
457,1436965119743,1116.0
458,1436965119763,1118.0
459,1436965119784,1118.0
460,1436965119804,1115.0
461,1436965119825,1115.0
462,1436965119844,1117.0
463,1436965119864,1117.0
464,1436965119883,1117.0
465,1436965119910,1117.0
466,1436965119964,1118.0
467,1436965119965,1118.0
468,1436965119966,1120.0
469,1436965119986,1120.0
470,1436965120013,1117.0
471,1436965120022,1117.0
472,1436965120047,1117.0
473,1436965120061,1117.0
474,1436965120092,1117.0
475,1436965120110,1118.0
476,1436965120121,1118.0
477,1436965120142,1121.0
478,1436965120161,1121.0
479,1436965120182,1122.0
480,1436965120202,1122.0
481,1436965120222,1124.0
482,1436965120245,1124.0
483,1436965120265,1126.0
484,1436965120285,1126.0
485,1436965120305,1130.0
486,1436965120325,1130.0
487,1436965120345,1137.0
488,1436965120363,1137.0
489,1436965120385,1141.0
490,1436965120405,1141.0
491,1436965120422,1139.0
492,1436965120444,1140.0
493,1436965120464,1140.0
494,1436965120488,1140.0
495,1436965120508,1140.0
496,1436965120528,1140.0
497,1436965120545,1140.0
498,1436965120562,1138.0
499,1436965120583,1138.0
500,1436965120603,1136.0
501,1436965120625,1136.0
502,1436965120642,1137.0
503,1436965120696,1137.0
504,1436965120697,1135.0
505,1436965120702,1135.0
506,1436965120722,1132.0
507,1436965120744,1132.0
508,1436965120763,1132.0
509,1436965120782,1132.0
510,1436965120808,1131.0
511,1436965120824,1133.0
512,1436965120843,1133.0
513,1436965120864,1133.0
514,1436965120882,1133.0
515,1436965120907,1130.0
516,1436965120926,1130.0
517,1436965120946,1125.0
518,1436965120966,1125.0
519,1436965120986,1124.0
520,1436965121006,1124.0
521,1436965121026,1127.0
522,1436965121044,1127.0
523,1436965121066,1130.0
524,1436965121085,1130.0
525,1436965121106,1128.0
526,1436965121123,1128.0
527,1436965121146,1122.0
528,1436965121166,1122.0
529,1436965121186,1119.0
530,1436965121206,1117.0
531,1436965121226,1117.0
532,1436965121246,1115.0
533,1436965121266,1115.0
534,1436965121286,1116.0
535,1436965121307,1116.0
536,1436965121327,1116.0
537,1436965121347,1116.0
538,1436965121366,1120.0
539,1436965121384,1120.0
540,1436965121438,1118.0
541,1436965121439,1118.0
542,1436965121457,1105.0
543,1436965121463,1105.0
544,1436965121483,1100.0
545,1436965121506,1100.0
546,1436965121523,1102.0
547,1436965121543,1102.0
548,1436965121566,1101.0
549,1436965121585,1101.0
550,1436965121606,1098.0
551,1436965121624,1093.0
552,1436965121647,1093.0
553,1436965121666,1089.0
554,1436965121686,1089.0
555,1436965121706,1087.0
556,1436965121726,1087.0
557,1436965121746,1083.0
558,1436965121767,1083.0
559,1436965121787,1076.0
560,1436965121807,1076.0
561,1436965121826,1068.0
562,1436965121843,1068.0
563,1436965121867,1060.0
564,1436965121887,1060.0
565,1436965121906,1060.0
566,1436965121926,1060.0
567,1436965121947,1052.0
568,1436965121967,1052.0
569,1436965121987,1042.0
570,1436965122007,1039.0
571,1436965122027,1039.0
572,1436965122047,1043.0
573,1436965122068,1043.0
574,1436965122085,1045.0
575,1436965122105,1045.0
576,1436965122159,1048.0
577,1436965122160,1048.0
578,1436965122179,1049.0
579,1436965122184,1049.0
580,1436965122204,1053.0
581,1436965122227,1053.0
582,1436965122244,1052.0
583,1436965122268,1052.0
584,1436965122285,1049.0
585,1436965122305,1049.0
586,1436965122325,1047.0
587,1436965122346,1047.0
588,1436965122367,1050.0
589,1436965122387,1055.0
590,1436965122407,1055.0
591,1436965122427,1057.0
592,1436965122447,1057.0
593,1436965122467,1059.0
594,1436965122487,1059.0
595,1436965122508,1061.0
596,1436965122548,1061.0
597,1436965122549,1064.0
598,1436965122592,1064.0
599,1436965122593,1059.0
600,1436965122608,1059.0
601,1436965122629,1058.0
602,1436965122649,1058.0
603,1436965122667,1058.0
604,1436965122686,1058.0
605,1436965122706,1059.0
606,1436965122725,1059.0
607,1436965122749,1059.0
608,1436965122770,1059.0
609,1436965122790,1058.0
610,1436965122804,1055.0
611,1436965122825,1055.0
612,1436965122940,1050.0
613,1436965122941,1050.0
614,1436965122942,1049.0
615,1436965122943,1049.0
616,1436965122944,1048.0
617,1436965122960,1048.0
618,1436965122965,1044.0
619,1436965122988,1044.0
620,1436965123005,1044.0
621,1436965123025,1044.0
622,1436965123048,1047.0
623,1436965123065,1047.0
624,1436965123085,1048.0
625,1436965123107,1048.0
626,1436965123125,1049.0
627,1436965123145,1049.0
628,1436965123165,1050.0
629,1436965123185,1054.0
630,1436965123205,1054.0
631,1436965123225,1058.0
632,1436965123245,1058.0
633,1436965123265,1059.0
634,1436965123285,1059.0
635,1436965123305,1059.0
636,1436965123325,1059.0
637,1436965123346,1059.0
638,1436965123365,1059.0
639,1436965123384,1060.0
640,1436965123404,1060.0
641,1436965123425,1059.0
642,1436965123446,1059.0
643,1436965123469,1058.0
644,1436965123488,1058.0
645,1436965123504,1057.0
646,1436965123525,1057.0
647,1436965123546,1045.0
648,1436965123565,1022.0
649,1436965123599,1022.0
650,1436965123605,993.0
651,1436965123624,993.0
652,1436965123645,972.0
653,1436965123666,972.0
654,1436965123687,955.0
655,1436965123704,955.0
656,1436965123725,946.0
657,1436965123748,946.0
658,1436965123768,940.0
659,1436965123789,940.0
660,1436965123809,936.0
661,1436965123825,936.0
662,1436965123848,931.0
663,1436965123869,931.0
664,1436965123889,927.0
665,1436965123909,927.0
666,1436965123928,920.0
667,1436965123947,914.0
668,1436965123969,914.0
669,1436965123985,912.0
670,1436965124005,912.0
671,1436965124025,912.0
672,1436965124051,912.0
673,1436965124065,914.0
674,1436965124085,914.0
675,1436965124105,915.0
676,1436965124125,915.0
677,1436965124146,919.0
678,1436965124166,919.0
679,1436965124186,926.0
680,1436965124211,926.0
681,1436965124268,933.0
682,1436965124269,933.0
683,1436965124280,942.0
684,1436965124288,942.0
685,1436965124306,949.0
686,1436965124327,949.0
687,1436965124346,950.0
688,1436965124374,943.0
689,1436965124386,943.0
690,1436965124407,931.0
691,1436965124432,931.0
692,1436965124446,917.0
693,1436965124467,917.0
694,1436965124487,909.0
695,1436965124509,909.0
696,1436965124529,910.0
697,1436965124549,910.0
698,1436965124569,909.0
699,1436965124589,909.0
700,1436965124609,909.0
701,1436965124629,909.0
702,1436965124649,911.0
703,1436965124666,911.0
704,1436965124689,912.0
705,1436965124709,912.0
706,1436965124729,908.0
707,1436965124749,900.0
708,1436965124769,900.0
709,1436965124789,900.0
710,1436965124812,900.0
711,1436965124826,904.0
712,1436965124849,904.0
713,1436965124870,906.0
714,1436965124888,906.0
715,1436965124910,906.0
716,1436965125014,906.0
717,1436965125015,903.0
718,1436965125016,903.0
719,1436965125017,897.0
720,1436965125018,897.0
721,1436965125033,893.0
722,1436965125046,893.0
723,1436965125067,894.0
724,1436965125099,894.0
725,1436965125107,898.0
726,1436965125126,901.0
727,1436965125151,901.0
728,1436965125167,898.0
729,1436965125188,898.0
730,1436965125209,894.0
731,1436965125230,894.0
732,1436965125250,895.0
733,1436965125270,895.0
734,1436965125290,889.0
735,1436965125310,889.0
736,1436965125329,892.0
737,1436965125350,892.0
738,1436965125370,897.0
739,1436965125388,897.0
740,1436965125410,901.0
741,1436965125430,901.0
742,1436965125450,904.0
743,1436965125470,904.0
744,1436965125489,908.0
745,1436965125510,908.0
746,1436965125530,914.0
747,1436965125550,926.0
748,1436965125570,926.0
749,1436965125591,941.0
750,1436965125607,941.0
751,1436965125628,957.0
752,1436965125648,957.0
753,1436965125725,974.0
754,1436965125728,974.0
755,1436965125730,990.0
756,1436965125731,990.0
757,1436965125758,1005.0
758,1436965125784,1005.0
759,1436965125787,1012.0
760,1436965125807,1012.0
761,1436965125827,1009.0
762,1436965125849,1009.0
763,1436965125867,999.0
764,1436965125888,999.0
765,1436965125913,988.0
766,1436965125927,973.0
767,1436965125953,973.0
768,1436965125968,949.0
769,1436965125988,949.0
770,1436965126018,930.0
771,1436965126034,930.0
772,1436965126054,914.0
773,1436965126090,914.0
774,1436965126091,901.0
775,1436965126118,901.0
776,1436965126127,895.0
777,1436965126147,895.0
778,1436965126167,896.0
779,1436965126257,896.0
780,1436965126258,901.0
781,1436965126259,901.0
782,1436965126260,907.0
783,1436965126267,907.0
784,1436965126288,910.0
785,1436965126308,910.0
786,1436965126327,910.0
787,1436965126348,910.0
788,1436965126367,910.0
789,1436965126390,911.0
790,1436965126410,911.0
791,1436965126428,919.0
792,1436965126447,919.0
793,1436965126467,929.0
794,1436965126508,929.0
795,1436965126509,941.0
796,1436965126528,941.0
797,1436965126548,961.0
798,1436965126568,961.0
799,1436965126590,985.0
800,1436965126608,985.0
801,1436965126628,1005.0
802,1436965126648,1005.0
803,1436965126668,1023.0
804,1436965126692,1051.0
805,1436965126712,1051.0
806,1436965126732,1071.0
807,1436965126750,1071.0
808,1436965126772,1064.0
809,1436965126791,1064.0
810,1436965126811,1028.0
