id,attr_time,attr_light
1,1436965110610,574.0
2,1436965110632,574.0
3,1436965110650,574.0
4,1436965110671,574.0
5,1436965110693,574.0
6,1436965110710,574.0
7,1436965110729,573.0
8,1436965110752,573.0
9,1436965110770,574.0
10,1436965110792,574.0
11,1436965110810,574.0
12,1436965110832,574.0
13,1436965110851,574.0
14,1436965110870,575.0
15,1436965110891,575.0
16,1436965110909,575.0
17,1436965110931,575.0
18,1436965110952,575.0
19,1436965110970,575.0
20,1436965111003,576.0
21,1436965111070,576.0
22,1436965111071,578.0
23,1436965111072,578.0
24,1436965111073,585.0
25,1436965111092,585.0
26,1436965111115,603.0
27,1436965111130,609.0
28,1436965111149,609.0
29,1436965111172,608.0
30,1436965111189,608.0
31,1436965111212,620.0
32,1436965111229,620.0
33,1436965111254,631.0
34,1436965111272,631.0
35,1436965111291,647.0
36,1436965111308,647.0
37,1436965111331,655.0
38,1436965111353,655.0
39,1436965111372,635.0
40,1436965111421,593.0
41,1436965111422,593.0
42,1436965111431,579.0
43,1436965111450,579.0
44,1436965111471,578.0
45,1436965111492,578.0
46,1436965111510,579.0
47,1436965111529,579.0
48,1436965111549,579.0
49,1436965111575,579.0
50,1436965111595,580.0
51,1436965111616,580.0
52,1436965111631,589.0
53,1436965111649,589.0
54,1436965111670,610.0
55,1436965111688,600.0
56,1436965111710,600.0
57,1436965111735,588.0
58,1436965111788,588.0
59,1436965111789,582.0
60,1436965111800,582.0
61,1436965111809,579.0
62,1436965111836,579.0
63,1436965111850,579.0
64,1436965111870,579.0
65,1436965111892,580.0
66,1436965111909,580.0
67,1436965111930,579.0
68,1436965111949,579.0
69,1436965111973,579.0
70,1436965111990,580.0
71,1436965112012,580.0
72,1436965112033,578.0
73,1436965112052,578.0
74,1436965112072,578.0
75,1436965112093,578.0
76,1436965112112,578.0
77,1436965112130,578.0
78,1436965112152,577.0
79,1436965112171,577.0
80,1436965112190,577.0
81,1436965112213,577.0
82,1436965112234,576.0
83,1436965112250,576.0
84,1436965112271,576.0
85,1436965112295,576.0
86,1436965112315,576.0
87,1436965112337,575.0
88,1436965112353,575.0
89,1436965112370,576.0
90,1436965112390,576.0
91,1436965112410,575.0
92,1436965112433,575.0
93,1436965112497,576.0
94,1436965112498,576.0
95,1436965112499,575.0
96,1436965112517,575.0
97,1436965112530,576.0
98,1436965112555,576.0
99,1436965112573,576.0
100,1436965112592,576.0
101,1436965112613,576.0
102,1436965112630,577.0
103,1436965112654,577.0
104,1436965112671,577.0
105,1436965112690,577.0
106,1436965112710,577.0
107,1436965112733,577.0
108,1436965112771,578.0
109,1436965112772,578.0
110,1436965112803,577.0
111,1436965112810,577.0
112,1436965112830,577.0
113,1436965112850,576.0
114,1436965112870,576.0
115,1436965112895,575.0
116,1436965112910,575.0
117,1436965112930,575.0
118,1436965112950,575.0
119,1436965112970,575.0
120,1436965112990,575.0
121,1436965113010,575.0
122,1436965113030,575.0
123,1436965113050,575.0
124,1436965113070,575.0
125,1436965113090,576.0
126,1436965113111,576.0
127,1436965113132,576.0
128,1436965113150,578.0
129,1436965113217,578.0
130,1436965113218,581.0
131,1436965113219,581.0
132,1436965113234,593.0
133,1436965113250,593.0
134,1436965113276,619.0
135,1436965113292,619.0
136,1436965113310,629.0
137,1436965113334,629.0
138,1436965113353,629.0
139,1436965113372,626.0
140,1436965113392,626.0
141,1436965113412,622.0
142,1436965113429,622.0
143,1436965113453,618.0
144,1436965113471,618.0
145,1436965113493,612.0
146,1436965113514,612.0
147,1436965113533,598.0
148,1436965113554,598.0
149,1436965113572,588.0
150,1436965113593,588.0
151,1436965113614,582.0
152,1436965113633,582.0
153,1436965113653,579.0
154,1436965113673,577.0
155,1436965113693,577.0
156,1436965113713,577.0
157,1436965113734,577.0
158,1436965113754,576.0
159,1436965113773,576.0
160,1436965113793,575.0
161,1436965113813,575.0
162,1436965113833,574.0
163,1436965113854,574.0
164,1436965113874,574.0
165,1436965113891,574.0
166,1436965113941,574.0
167,1436965113942,574.0
168,1436965113979,574.0
169,1436965113980,574.0
170,1436965113991,574.0
171,1436965114014,574.0
172,1436965114031,574.0
173,1436965114054,574.0
174,1436965114072,574.0
175,1436965114092,574.0
176,1436965114112,574.0
177,1436965114133,574.0
178,1436965114153,574.0
179,1436965114176,575.0
180,1436965114192,575.0
181,1436965114214,575.0
182,1436965114238,575.0
183,1436965114252,575.0
184,1436965114273,574.0
185,1436965114292,574.0
186,1436965114314,575.0
187,1436965114335,575.0
188,1436965114355,575.0
189,1436965114372,575.0
190,1436965114394,575.0
191,1436965114414,575.0
192,1436965114433,575.0
193,1436965114454,575.0
194,1436965114474,575.0
195,1436965114493,575.0
196,1436965114515,575.0
197,1436965114535,575.0
198,1436965114554,575.0
199,1436965114574,575.0
200,1436965114592,575.0
201,1436965114613,575.0
202,1436965114632,575.0
203,1436965114704,576.0
204,1436965114705,576.0
205,1436965114706,578.0
206,1436965114712,578.0
207,1436965114737,587.0
208,1436965114754,587.0
209,1436965114773,620.0
210,1436965114795,620.0
211,1436965114812,656.0
212,1436965114833,602.0
213,1436965114856,602.0
214,1436965114872,582.0
215,1436965114892,582.0
216,1436965114915,580.0
217,1436965114935,580.0
218,1436965114955,594.0
219,1436965114975,594.0
220,1436965114995,611.0
221,1436965115015,611.0
222,1436965115035,619.0
223,1436965115055,619.0
224,1436965115077,638.0
225,1436965115095,671.0
226,1436965115115,671.0
227,1436965115132,684.0
228,1436965115152,684.0
229,1436965115173,661.0
230,1436965115198,661.0
231,1436965115217,605.0
232,1436965115238,605.0
233,1436965115252,589.0
234,1436965115274,589.0
235,1436965115300,614.0
236,1436965115315,614.0
237,1436965115346,763.0
238,1436965115500,763.0
239,1436965115501,868.0
240,1436965115502,946.0
241,1436965115573,946.0
242,1436965115574,1013.0
243,1436965115575,1013.0
244,1436965115576,1104.0
245,1436965115577,1104.0
246,1436965115578,1220.0
247,1436965115579,1220.0
248,1436965115580,1403.0
249,1436965115581,1403.0
250,1436965115607,1541.0
251,1436965115617,1541.0
252,1436965115639,1563.0
253,1436965115655,1476.0
254,1436965115679,1476.0
255,1436965115697,1350.0
256,1436965115723,1350.0
257,1436965115733,1333.0
258,1436965115753,1333.0
259,1436965115775,1311.0
260,1436965115793,1311.0
261,1436965115816,1261.0
262,1436965115836,1261.0
263,1436965115855,1252.0
264,1436965115874,1252.0
265,1436965115893,1278.0
266,1436965115912,1278.0
267,1436965115933,1348.0
268,1436965115953,1498.0
269,1436965115977,1498.0
270,1436965115997,1749.0
271,1436965116017,1749.0
272,1436965116041,2056.0
273,1436965116052,2056.0
274,1436965116073,2480.0
275,1436965116093,2480.0
276,1436965116114,2648.0
277,1436965116138,2648.0
278,1436965116158,2669.0
279,1436965116173,2669.0
280,1436965116196,2389.0
281,1436965116223,2389.0
282,1436965116236,1835.0
283,1436965116253,1264.0
284,1436965116272,1264.0
285,1436965116294,1395.0
286,1436965116313,1395.0
287,1436965116333,1483.0
288,1436965116353,1483.0
289,1436965116376,1243.0
290,1436965116396,1243.0
291,1436965116417,1099.0
292,1436965116434,1099.0
293,1436965116457,1006.0
294,1436965116477,1006.0
295,1436965116497,747.0
296,1436965116517,539.0
297,1436965116534,539.0
298,1436965116557,505.0
299,1436965116574,505.0
300,1436965116594,510.0
301,1436965116617,510.0
302,1436965116633,513.0
303,1436965116656,513.0
304,1436965116677,504.0
305,1436965116697,504.0
306,1436965116717,490.0
307,1436965116736,490.0
308,1436965116757,471.0
309,1436965116778,471.0
310,1436965116795,447.0
311,1436965116815,430.0
312,1436965116834,430.0
313,1436965116885,424.0
314,1436965116886,424.0
315,1436965116906,425.0
316,1436965116914,425.0
317,1436965116945,430.0
318,1436965116954,430.0
319,1436965116974,428.0
320,1436965116994,428.0
321,1436965117016,424.0
322,1436965117036,424.0
323,1436965117054,419.0
324,1436965117075,414.0
325,1436965117096,414.0
326,1436965117116,416.0
327,1436965117137,416.0
328,1436965117157,416.0
329,1436965117177,416.0
330,1436965117197,415.0
331,1436965117217,415.0
332,1436965117237,408.0
333,1436965117257,408.0
334,1436965117277,400.0
335,1436965117296,400.0
336,1436965117318,395.0
337,1436965117340,395.0
338,1436965117355,388.0
339,1436965117381,378.0
340,1436965117398,378.0
341,1436965117416,364.0
342,1436965117436,364.0
343,1436965117454,350.0
344,1436965117477,350.0
345,1436965117501,338.0
346,1436965117516,338.0
347,1436965117535,331.0
348,1436965117558,331.0
349,1436965117628,331.0
350,1436965117629,331.0
351,1436965117630,337.0
352,1436965117638,337.0
353,1436965117658,334.0
354,1436965117675,331.0
355,1436965117694,331.0
356,1436965117720,330.0
357,1436965117736,330.0
358,1436965117755,327.0
359,1436965117775,327.0
360,1436965117810,322.0
361,1436965117816,322.0
362,1436965117836,318.0
363,1436965117855,318.0
364,1436965117875,315.0
365,1436965117896,315.0
366,1436965117915,312.0
367,1436965117946,311.0
368,1436965117955,311.0
369,1436965117975,312.0
370,1436965117997,312.0
371,1436965118017,312.0
372,1436965118042,312.0
373,1436965118058,313.0
374,1436965118076,313.0
375,1436965118097,313.0
376,1436965118117,313.0
377,1436965118137,313.0
378,1436965118155,313.0
379,1436965118175,311.0
380,1436965118197,311.0
381,1436965118218,309.0
382,1436965118243,307.0
383,1436965118258,307.0
384,1436965118275,306.0
385,1436965118301,306.0
386,1436965118380,305.0
387,1436965118381,305.0
388,1436965118382,305.0
389,1436965118383,305.0
390,1436965118397,303.0
391,1436965118416,303.0
392,1436965118435,300.0
393,1436965118457,300.0
394,1436965118478,292.0
395,1436965118497,285.0
396,1436965118517,285.0
397,1436965118538,280.0
398,1436965118558,280.0
399,1436965118578,279.0
400,1436965118597,279.0
401,1436965118618,279.0
402,1436965118638,279.0
403,1436965118657,284.0
404,1436965118677,284.0
405,1436965118697,293.0
406,1436965118719,293.0
407,1436965118739,304.0
408,1436965118757,304.0
409,1436965118780,315.0
410,1436965118796,322.0
411,1436965118816,322.0
412,1436965118835,326.0
413,1436965118860,326.0
414,1436965118883,330.0
415,1436965118900,330.0
416,1436965118919,334.0
417,1436965118936,334.0
418,1436965118956,336.0
419,1436965118976,336.0
420,1436965118996,336.0
421,1436965119063,336.0
422,1436965119064,336.0
423,1436965119065,336.0
424,1436965119087,334.0
425,1436965119096,335.0
426,1436965119116,335.0
427,1436965119136,336.0
428,1436965119156,336.0
429,1436965119177,335.0
430,1436965119196,335.0
431,1436965119217,335.0
432,1436965119243,335.0
433,1436965119257,335.0
434,1436965119277,335.0
435,1436965119296,334.0
436,1436965119317,334.0
437,1436965119339,336.0
438,1436965119357,338.0
439,1436965119377,338.0
440,1436965119396,340.0
441,1436965119416,340.0
442,1436965119437,340.0
443,1436965119459,340.0
444,1436965119478,340.0
445,1436965119498,340.0
446,1436965119517,340.0
447,1436965119537,340.0
448,1436965119560,340.0
449,1436965119577,340.0
450,1436965119599,340.0
451,1436965119618,340.0
452,1436965119637,341.0
453,1436965119664,341.0
454,1436965119677,341.0
455,1436965119697,341.0
456,1436965119718,341.0
457,1436965119745,339.0
458,1436965119818,339.0
459,1436965119819,338.0
460,1436965119820,338.0
461,1436965119821,335.0
462,1436965119837,335.0
463,1436965119857,332.0
464,1436965119877,332.0
465,1436965119897,327.0
466,1436965119917,323.0
467,1436965119939,323.0
468,1436965119964,319.0
469,1436965119978,319.0
470,1436965119997,316.0
471,1436965120018,316.0
472,1436965120038,313.0
473,1436965120060,313.0
474,1436965120078,311.0
475,1436965120100,311.0
476,1436965120118,308.0
477,1436965120138,308.0
478,1436965120160,304.0
479,1436965120180,304.0
480,1436965120203,297.0
481,1436965120218,293.0
482,1436965120237,293.0
483,1436965120258,293.0
484,1436965120283,293.0
485,1436965120298,294.0
486,1436965120319,294.0
487,1436965120337,296.0
488,1436965120357,296.0
489,1436965120378,298.0
490,1436965120398,298.0
491,1436965120422,299.0
492,1436965120438,299.0
493,1436965120463,301.0
494,1436965120541,301.0
495,1436965120542,303.0
496,1436965120543,304.0
497,1436965120544,304.0
498,1436965120559,304.0
499,1436965120582,304.0
500,1436965120597,303.0
501,1436965120625,303.0
502,1436965120638,301.0
503,1436965120659,301.0
504,1436965120678,299.0
505,1436965120698,299.0
506,1436965120724,297.0
507,1436965120740,297.0
508,1436965120761,296.0
509,1436965120782,295.0
510,1436965120799,295.0
511,1436965120820,296.0
512,1436965120840,296.0
513,1436965120860,297.0
514,1436965120882,297.0
515,1436965120900,297.0
516,1436965120919,297.0
517,1436965120938,296.0
518,1436965120960,296.0
519,1436965120979,295.0
520,1436965120999,295.0
521,1436965121021,295.0
522,1436965121039,295.0
523,1436965121058,295.0
524,1436965121078,295.0
525,1436965121098,295.0
526,1436965121118,296.0
527,1436965121139,296.0
528,1436965121158,297.0
529,1436965121181,297.0
530,1436965121201,297.0
531,1436965121325,297.0
532,1436965121326,297.0
533,1436965121327,297.0
534,1436965121328,296.0
535,1436965121329,296.0
536,1436965121330,294.0
537,1436965121368,291.0
538,1436965121369,291.0
539,1436965121378,289.0
540,1436965121441,289.0
541,1436965121442,288.0
542,1436965121443,288.0
543,1436965121464,286.0
544,1436965121478,286.0
545,1436965121498,286.0
546,1436965121518,286.0
547,1436965121538,287.0
548,1436965121558,287.0
549,1436965121578,289.0
550,1436965121598,289.0
551,1436965121630,292.0
552,1436965121638,294.0
553,1436965121658,294.0
554,1436965121685,295.0
555,1436965121698,295.0
556,1436965121718,295.0
557,1436965121739,295.0
558,1436965121759,294.0
559,1436965121779,294.0
560,1436965121799,292.0
561,1436965121821,292.0
562,1436965121840,288.0
563,1436965121862,288.0
564,1436965121881,284.0
565,1436965121902,284.0
566,1436965121920,279.0
567,1436965121943,274.0
568,1436965121975,274.0
569,1436965121978,274.0
570,1436965121998,274.0
571,1436965122018,281.0
572,1436965122038,281.0
573,1436965122061,293.0
574,1436965122080,293.0
575,1436965122100,301.0
576,1436965122118,301.0
577,1436965122142,304.0
578,1436965122163,304.0
579,1436965122183,307.0
580,1436965122202,309.0
581,1436965122222,309.0
582,1436965122241,308.0
583,1436965122262,308.0
584,1436965122282,307.0
585,1436965122302,307.0
586,1436965122322,307.0
587,1436965122340,307.0
588,1436965122361,309.0
589,1436965122382,309.0
590,1436965122401,312.0
591,1436965122421,312.0
592,1436965122439,315.0
593,1436965122463,315.0
594,1436965122484,317.0
595,1436965122503,318.0
596,1436965122523,318.0
597,1436965122540,317.0
598,1436965122560,317.0
599,1436965122581,314.0
600,1436965122610,314.0
601,1436965122683,310.0
602,1436965122684,310.0
603,1436965122685,307.0
604,1436965122686,307.0
605,1436965122700,304.0
606,1436965122723,304.0
607,1436965122742,298.0
608,1436965122761,298.0
609,1436965122782,287.0
610,1436965122800,278.0
611,1436965122824,278.0
612,1436965122841,271.0
613,1436965122865,271.0
614,1436965122881,267.0
615,1436965122899,267.0
616,1436965122922,267.0
617,1436965122943,267.0
618,1436965123005,271.0
619,1436965123006,271.0
620,1436965123007,276.0
621,1436965123020,276.0
622,1436965123040,283.0
623,1436965123060,292.0
624,1436965123080,292.0
625,1436965123100,300.0
626,1436965123120,300.0
627,1436965123140,308.0
628,1436965123160,308.0
629,1436965123185,314.0
630,1436965123202,314.0
631,1436965123223,318.0
632,1436965123240,318.0
633,1436965123260,322.0
634,1436965123280,322.0
635,1436965123300,325.0
636,1436965123320,325.0
637,1436965123340,328.0
638,1436965123370,330.0
639,1436965123388,330.0
640,1436965123400,332.0
641,1436965123420,332.0
642,1436965123439,334.0
643,1436965123459,334.0
644,1436965123480,337.0
645,1436965123501,337.0
646,1436965123520,340.0
647,1436965123541,340.0
648,1436965123561,344.0
649,1436965123583,344.0
650,1436965123603,347.0
651,1436965123624,350.0
652,1436965123641,350.0
653,1436965123660,353.0
654,1436965123683,353.0
655,1436965123704,355.0
656,1436965123724,355.0
657,1436965123741,356.0
658,1436965123761,356.0
659,1436965123779,357.0
660,1436965123800,357.0
661,1436965123823,357.0
662,1436965123844,357.0
663,1436965123864,358.0
664,1436965123884,358.0
665,1436965123904,359.0
666,1436965123923,360.0
667,1436965123944,360.0
668,1436965123974,360.0
669,1436965123986,360.0
670,1436965124005,360.0
671,1436965124071,360.0
672,1436965124072,360.0
673,1436965124073,360.0
674,1436965124084,359.0
675,1436965124110,359.0
676,1436965124122,358.0
677,1436965124143,358.0
678,1436965124163,358.0
679,1436965124182,358.0
680,1436965124203,359.0
681,1436965124222,360.0
682,1436965124245,360.0
683,1436965124266,360.0
684,1436965124283,360.0
685,1436965124304,361.0
686,1436965124323,361.0
687,1436965124345,361.0
688,1436965124363,361.0
689,1436965124384,361.0
690,1436965124404,361.0
691,1436965124424,362.0
692,1436965124443,362.0
693,1436965124466,362.0
694,1436965124484,360.0
695,1436965124504,360.0
696,1436965124523,359.0
697,1436965124544,359.0
698,1436965124564,359.0
699,1436965124585,359.0
700,1436965124604,358.0
701,1436965124621,358.0
702,1436965124643,359.0
703,1436965124663,359.0
704,1436965124683,361.0
705,1436965124711,361.0
706,1436965124784,362.0
707,1436965124785,362.0
708,1436965124786,363.0
709,1436965124787,363.0
710,1436965124804,363.0
711,1436965124823,364.0
712,1436965124842,364.0
713,1436965124862,366.0
714,1436965124884,366.0
715,1436965124903,369.0
716,1436965124922,369.0
717,1436965124943,370.0
718,1436965124966,370.0
719,1436965124985,371.0
720,1436965125005,371.0
721,1436965125025,370.0
722,1436965125044,370.0
723,1436965125065,370.0
724,1436965125085,368.0
725,1436965125105,368.0
726,1436965125125,368.0
727,1436965125143,368.0
728,1436965125167,368.0
729,1436965125185,368.0
730,1436965125205,368.0
731,1436965125223,368.0
732,1436965125245,367.0
733,1436965125264,367.0
734,1436965125288,367.0
735,1436965125306,367.0
736,1436965125328,366.0
737,1436965125345,365.0
738,1436965125364,365.0
739,1436965125384,366.0
740,1436965125404,366.0
741,1436965125424,367.0
742,1436965125443,367.0
743,1436965125512,368.0
744,1436965125513,368.0
745,1436965125514,369.0
746,1436965125522,369.0
747,1436965125548,369.0
748,1436965125563,369.0
749,1436965125584,369.0
750,1436965125604,369.0
751,1436965125624,369.0
752,1436965125646,367.0
753,1436965125664,367.0
754,1436965125685,366.0
755,1436965125703,366.0
756,1436965125726,368.0
757,1436965125746,368.0
758,1436965125765,369.0
759,1436965125786,369.0
760,1436965125806,371.0
761,1436965125826,371.0
762,1436965125846,371.0
763,1436965125864,371.0
764,1436965125884,371.0
765,1436965125906,371.0
766,1436965125926,371.0
767,1436965125946,371.0
768,1436965125965,371.0
769,1436965125986,371.0
770,1436965126005,371.0
771,1436965126026,371.0
772,1436965126046,371.0
773,1436965126067,371.0
774,1436965126086,371.0
775,1436965126106,372.0
776,1436965126139,372.0
777,1436965126143,372.0
778,1436965126178,372.0
779,1436965126194,373.0
780,1436965126278,375.0
781,1436965126279,375.0
782,1436965126285,377.0
783,1436965126286,377.0
784,1436965126287,378.0
785,1436965126305,378.0
786,1436965126334,378.0
787,1436965126344,378.0
788,1436965126366,377.0
789,1436965126385,377.0
790,1436965126409,378.0
791,1436965126440,378.0
792,1436965126443,378.0
793,1436965126467,380.0
794,1436965126485,380.0
795,1436965126503,380.0
796,1436965126531,380.0
797,1436965126542,381.0
798,1436965126563,381.0
799,1436965126583,383.0
800,1436965126602,383.0
801,1436965126622,384.0
802,1436965126647,384.0
803,1436965126667,384.0
804,1436965126684,384.0
805,1436965126704,383.0
806,1436965126723,383.0
807,1436965126744,381.0
808,1436965126764,379.0
809,1436965126784,379.0
810,1436965126807,378.0
811,1436965126826,378.0
812,1436965126845,377.0
813,1436965126866,377.0
814,1436965126884,379.0
815,1436965126903,379.0
816,1436965126924,383.0
817,1436965126948,383.0
818,1436965126978,386.0
819,1436965126992,386.0
820,1436965127004,388.0
821,1436965127024,388.0
822,1436965127046,386.0
823,1436965127063,382.0
824,1436965127085,382.0
825,1436965127105,379.0
826,1436965127132,379.0
827,1436965127143,377.0
828,1436965127198,377.0
829,1436965127199,378.0
830,1436965127203,378.0
831,1436965127225,378.0
832,1436965127248,378.0
833,1436965127266,379.0
834,1436965127286,379.0
