id,attr_time,attr_light
1,1436965110623,1367.0
2,1436965110645,1367.0
3,1436965110663,1365.0
4,1436965110683,1365.0
5,1436965110704,1365.0
6,1436965110724,1365.0
7,1436965110743,1365.0
8,1436965110764,1365.0
9,1436965110784,1366.0
10,1436965110801,1366.0
11,1436965110824,1366.0
12,1436965110844,1365.0
13,1436965110863,1365.0
14,1436965110883,1364.0
15,1436965110903,1364.0
16,1436965110924,1364.0
17,1436965110944,1364.0
18,1436965110964,1365.0
19,1436965110984,1365.0
20,1436965111004,1364.0
21,1436965111026,1364.0
22,1436965111044,1366.0
23,1436965111065,1364.0
24,1436965111166,1364.0
25,1436965111167,1364.0
26,1436965111168,1364.0
27,1436965111169,1364.0
28,1436965111170,1364.0
29,1436965111181,1363.0
30,1436965111228,1363.0
31,1436965111229,1364.0
32,1436965111241,1364.0
33,1436965111293,1366.0
34,1436965111294,1367.0
35,1436965111302,1367.0
36,1436965111321,1366.0
37,1436965111343,1366.0
38,1436965111363,1363.0
39,1436965111383,1363.0
40,1436965111403,1365.0
41,1436965111423,1365.0
42,1436965111443,1364.0
43,1436965111463,1364.0
44,1436965111484,1366.0
45,1436965111504,1365.0
46,1436965111524,1365.0
47,1436965111545,1366.0
48,1436965111561,1366.0
49,1436965111585,1365.0
50,1436965111604,1365.0
51,1436965111624,1366.0
52,1436965111643,1366.0
53,1436965111664,1364.0
54,1436965111684,1364.0
55,1436965111704,1364.0
56,1436965111724,1364.0
57,1436965111744,1364.0
58,1436965111764,1362.0
59,1436965111783,1362.0
60,1436965111818,1362.0
61,1436965111875,1362.0
62,1436965111876,1360.0
63,1436965111877,1360.0
64,1436965111951,1363.0
65,1436965111952,1363.0
66,1436965111953,1361.0
67,1436965111954,1362.0
68,1436965111966,1362.0
69,1436965111983,1361.0
70,1436965112003,1361.0
71,1436965112021,1362.0
72,1436965112044,1362.0
73,1436965112061,1364.0
74,1436965112086,1364.0
75,1436965112105,1364.0
76,1436965112122,1364.0
77,1436965112142,1363.0
78,1436965112165,1362.0
79,1436965112183,1362.0
80,1436965112211,1361.0
81,1436965112224,1361.0
82,1436965112244,1361.0
83,1436965112263,1361.0
84,1436965112285,1360.0
85,1436965112305,1360.0
86,1436965112326,1361.0
87,1436965112342,1361.0
88,1436965112365,1361.0
89,1436965112385,1361.0
90,1436965112405,1361.0
91,1436965112425,1361.0
92,1436965112445,1361.0
93,1436965112465,1360.0
94,1436965112485,1360.0
95,1436965112505,1362.0
96,1436965112525,1362.0
97,1436965112542,1361.0
98,1436965112562,1361.0
99,1436965112582,1362.0
100,1436965112602,1363.0
101,1436965112640,1363.0
102,1436965112646,1362.0
103,1436965112662,1362.0
104,1436965112682,1364.0
105,1436965112702,1364.0
106,1436965112726,1365.0
107,1436965112742,1365.0
108,1436965112762,1362.0
109,1436965112786,1362.0
110,1436965112802,1364.0
111,1436965112823,1363.0
112,1436965112848,1363.0
113,1436965112863,1365.0
114,1436965112886,1365.0
115,1436965112905,1366.0
116,1436965112926,1366.0
117,1436965112946,1367.0
118,1436965112966,1367.0
119,1436965112986,1366.0
120,1436965113006,1366.0
121,1436965113026,1367.0
122,1436965113046,1368.0
123,1436965113065,1368.0
124,1436965113083,1368.0
125,1436965113106,1368.0
126,1436965113126,1366.0
127,1436965113149,1366.0
128,1436965113166,1368.0
129,1436965113183,1368.0
130,1436965113204,1368.0
131,1436965113224,1368.0
132,1436965113245,1368.0
133,1436965113267,1368.0
134,1436965113306,1371.0
135,1436965113307,1371.0
136,1436965113339,1371.0
137,1436965113343,1371.0
138,1436965113597,1371.0
139,1436965113598,1369.0
140,1436965113599,1369.0
141,1436965113600,1369.0
142,1436965113601,1369.0
143,1436965113602,1371.0
144,1436965113603,1371.0
145,1436965113604,1371.0
146,1436965113605,1373.0
147,1436965113606,1373.0
148,1436965113607,1375.0
149,1436965113608,1375.0
150,1436965113618,1377.0
151,1436965113623,1377.0
152,1436965113643,1380.0
153,1436965113665,1380.0
154,1436965113685,1380.0
155,1436965113705,1380.0
156,1436965113725,1380.0
157,1436965113766,1382.0
158,1436965113767,1382.0
159,1436965113785,1384.0
160,1436965113803,1384.0
161,1436965113826,1385.0
162,1436965113848,1385.0
163,1436965113865,1385.0
164,1436965113884,1385.0
165,1436965113906,1385.0
166,1436965113923,1385.0
167,1436965113943,1387.0
168,1436965113963,1387.0
169,1436965113988,1387.0
170,1436965114006,1389.0
171,1436965114028,1389.0
172,1436965114046,1390.0
173,1436965114064,1390.0
174,1436965114092,1391.0
175,1436965114108,1391.0
176,1436965114124,1393.0
177,1436965114143,1393.0
178,1436965114164,1392.0
179,1436965114184,1390.0
180,1436965114205,1390.0
181,1436965114224,1389.0
182,1436965114247,1389.0
183,1436965114267,1387.0
184,1436965114287,1387.0
185,1436965114304,1388.0
186,1436965114327,1388.0
187,1436965114347,1388.0
188,1436965114367,1388.0
189,1436965114387,1388.0
190,1436965114406,1387.0
191,1436965114427,1387.0
192,1436965114446,1387.0
193,1436965114466,1387.0
194,1436965114487,1387.0
195,1436965114505,1387.0
196,1436965114526,1385.0
197,1436965114546,1385.0
198,1436965114567,1382.0
199,1436965114588,1382.0
200,1436965114609,1377.0
201,1436965114627,1377.0
202,1436965114646,1377.0
203,1436965114665,1379.0
204,1436965114704,1379.0
205,1436965114705,1377.0
206,1436965114800,1377.0
207,1436965114819,1377.0
208,1436965114820,1377.0
209,1436965114821,1380.0
210,1436965114822,1380.0
211,1436965114829,1393.0
212,1436965114844,1414.0
213,1436965114866,1414.0
214,1436965114884,1437.0
215,1436965114907,1437.0
216,1436965114924,1465.0
217,1436965114946,1465.0
218,1436965114965,1498.0
219,1436965114985,1498.0
220,1436965115005,1530.0
221,1436965115028,1530.0
222,1436965115047,1572.0
223,1436965115068,1624.0
224,1436965115088,1624.0
225,1436965115108,1681.0
226,1436965115128,1681.0
227,1436965115148,1743.0
228,1436965115168,1743.0
229,1436965115185,1810.0
230,1436965115208,1810.0
231,1436965115228,1896.0
232,1436965115244,1896.0
233,1436965115265,1972.0
234,1436965115284,2039.0
235,1436965115310,2039.0
236,1436965115330,2095.0
237,1436965115351,2095.0
238,1436965115368,2150.0
239,1436965115385,2150.0
240,1436965115405,2181.0
241,1436965115425,2181.0
242,1436965115447,2117.0
243,1436965115468,2117.0
244,1436965115535,1937.0
245,1436965115536,1937.0
246,1436965115537,1743.0
247,1436965115545,1608.0
248,1436965115571,1608.0
249,1436965115587,1508.0
250,1436965115605,1508.0
251,1436965115626,1435.0
252,1436965115646,1435.0
253,1436965115668,1370.0
254,1436965115687,1370.0
255,1436965115707,1311.0
256,1436965115727,1311.0
257,1436965115748,1251.0
258,1436965115768,1205.0
259,1436965115788,1205.0
260,1436965115808,1187.0
261,1436965115828,1187.0
262,1436965115849,1195.0
263,1436965115868,1195.0
264,1436965115889,1215.0
265,1436965115909,1215.0
266,1436965115926,1208.0
267,1436965115949,1208.0
268,1436965115966,1204.0
269,1436965115986,1202.0
270,1436965116006,1202.0
271,1436965116030,1192.0
272,1436965116050,1192.0
273,1436965116070,1195.0
274,1436965116089,1195.0
275,1436965116106,1186.0
276,1436965116126,1186.0
277,1436965116147,1162.0
278,1436965116168,1162.0
279,1436965116186,1130.0
280,1436965116240,1085.0
281,1436965116241,1085.0
282,1436965116258,1047.0
283,1436965116265,1047.0
284,1436965116286,1008.0
285,1436965116307,1008.0
286,1436965116326,1004.0
287,1436965116348,1004.0
288,1436965116366,1046.0
289,1436965116386,1046.0
290,1436965116412,1081.0
291,1436965116427,1103.0
292,1436965116447,1103.0
293,1436965116469,1121.0
294,1436965116489,1121.0
295,1436965116509,1136.0
296,1436965116529,1136.0
297,1436965116549,1150.0
298,1436965116569,1150.0
299,1436965116589,1167.0
300,1436965116609,1167.0
301,1436965116629,1174.0
302,1436965116646,1165.0
303,1436965116669,1165.0
304,1436965116689,1137.0
305,1436965116709,1137.0
306,1436965116729,1089.0
307,1436965116748,1089.0
308,1436965116767,1035.0
309,1436965116831,1035.0
310,1436965116832,995.0
311,1436965116833,995.0
312,1436965116848,963.0
313,1436965116868,924.0
314,1436965116888,924.0
315,1436965116907,886.0
316,1436965116927,886.0
317,1436965116985,840.0
318,1436965116997,840.0
319,1436965116998,813.0
320,1436965117006,813.0
321,1436965117026,799.0
322,1436965117047,799.0
323,1436965117066,800.0
324,1436965117089,816.0
325,1436965117106,816.0
326,1436965117127,851.0
327,1436965117147,851.0
328,1436965117168,887.0
329,1436965117189,887.0
330,1436965117210,906.0
331,1436965117230,906.0
332,1436965117250,917.0
333,1436965117270,917.0
334,1436965117290,915.0
335,1436965117310,898.0
336,1436965117330,898.0
337,1436965117350,875.0
338,1436965117370,875.0
339,1436965117388,852.0
340,1436965117410,852.0
341,1436965117428,836.0
342,1436965117449,836.0
343,1436965117470,826.0
344,1436965117489,826.0
345,1436965117507,817.0
346,1436965117527,813.0
347,1436965117548,813.0
348,1436965117570,816.0
349,1436965117589,816.0
350,1436965117609,823.0
351,1436965117628,823.0
352,1436965117655,824.0
353,1436965117715,824.0
354,1436965117716,823.0
355,1436965117717,823.0
356,1436965117729,830.0
357,1436965117749,849.0
358,1436965117772,849.0
359,1436965117788,865.0
360,1436965117807,865.0
361,1436965117841,878.0
362,1436965117847,878.0
363,1436965117868,903.0
364,1436965117890,903.0
365,1436965117907,936.0
366,1436965117927,936.0
367,1436965117949,971.0
368,1436965117968,971.0
369,1436965117991,1011.0
370,1436965118011,1053.0
371,1436965118031,1053.0
372,1436965118047,1095.0
373,1436965118069,1095.0
374,1436965118091,1134.0
375,1436965118109,1134.0
376,1436965118128,1165.0
377,1436965118151,1165.0
378,1436965118168,1192.0
379,1436965118188,1192.0
380,1436965118209,1215.0
381,1436965118229,1227.0
382,1436965118251,1227.0
383,1436965118269,1224.0
384,1436965118291,1224.0
385,1436965118308,1209.0
386,1436965118329,1209.0
387,1436965118349,1182.0
388,1436965118391,1182.0
389,1436965118392,1143.0
390,1436965118456,1143.0
391,1436965118457,1102.0
392,1436965118458,1063.0
393,1436965118468,1063.0
394,1436965118488,1027.0
395,1436965118511,1027.0
396,1436965118528,996.0
397,1436965118548,996.0
398,1436965118569,970.0
399,1436965118590,970.0
400,1436965118609,949.0
401,1436965118628,949.0
402,1436965118648,928.0
403,1436965118671,909.0
404,1436965118691,909.0
405,1436965118711,893.0
406,1436965118731,893.0
407,1436965118751,885.0
408,1436965118771,885.0
409,1436965118791,887.0
410,1436965118811,887.0
411,1436965118831,889.0
412,1436965118849,889.0
413,1436965118869,891.0
414,1436965118891,910.0
415,1436965118912,910.0
416,1436965118932,938.0
417,1436965118948,938.0
418,1436965118971,967.0
419,1436965118991,967.0
420,1436965119012,998.0
421,1436965119032,998.0
422,1436965119049,1031.0
423,1436965119070,1031.0
424,1436965119090,1056.0
425,1436965119109,1080.0
426,1436965119131,1080.0
427,1436965119196,1096.0
428,1436965119197,1096.0
429,1436965119198,1115.0
430,1436965119208,1115.0
431,1436965119232,1127.0
432,1436965119249,1127.0
433,1436965119268,1137.0
434,1436965119291,1137.0
435,1436965119308,1142.0
436,1436965119329,1137.0
437,1436965119349,1137.0
438,1436965119371,1125.0
439,1436965119389,1125.0
440,1436965119408,1102.0
441,1436965119431,1102.0
442,1436965119451,1075.0
443,1436965119489,1075.0
444,1436965119490,1049.0
445,1436965119524,1049.0
446,1436965119529,1025.0
447,1436965119549,1000.0
448,1436965119569,1000.0
449,1436965119589,972.0
450,1436965119609,972.0
451,1436965119629,948.0
452,1436965119649,948.0
453,1436965119669,925.0
454,1436965119691,925.0
455,1436965119711,895.0
456,1436965119739,895.0
457,1436965119750,862.0
458,1436965119769,845.0
459,1436965119789,845.0
460,1436965119810,819.0
461,1436965119835,819.0
462,1436965119859,795.0
463,1436965119886,795.0
464,1436965119897,779.0
465,1436965119909,779.0
466,1436965119930,766.0
467,1436965119950,766.0
468,1436965119968,742.0
469,1436965119988,716.0
470,1436965120008,716.0
471,1436965120028,699.0
472,1436965120048,699.0
473,1436965120068,696.0
474,1436965120088,696.0
475,1436965120108,691.0
476,1436965120128,691.0
477,1436965120148,705.0
478,1436965120168,705.0
479,1436965120188,721.0
480,1436965120208,729.0
481,1436965120228,729.0
482,1436965120252,748.0
483,1436965120273,748.0
484,1436965120291,756.0
485,1436965120308,756.0
486,1436965120333,752.0
487,1436965120351,752.0
488,1436965120369,734.0
489,1436965120391,734.0
490,1436965120409,710.0
491,1436965120431,683.0
492,1436965120449,683.0
493,1436965120475,674.0
494,1436965120490,674.0
495,1436965120511,663.0
496,1436965120560,663.0
497,1436965120561,669.0
498,1436965120571,669.0
499,1436965120590,695.0
500,1436965120613,695.0
501,1436965120629,730.0
502,1436965120652,730.0
503,1436965120670,753.0
504,1436965120689,765.0
505,1436965120712,765.0
506,1436965120734,785.0
507,1436965120749,785.0
508,1436965120774,800.0
509,1436965120791,800.0
510,1436965120813,799.0
511,1436965120834,799.0
512,1436965120854,796.0
513,1436965120872,796.0
514,1436965120892,793.0
515,1436965120911,790.0
516,1436965120934,790.0
517,1436965120954,789.0
518,1436965120974,789.0
519,1436965120991,789.0
520,1436965121013,789.0
521,1436965121033,790.0
522,1436965121052,790.0
523,1436965121074,789.0
524,1436965121091,789.0
525,1436965121114,787.0
526,1436965121134,787.0
527,1436965121154,787.0
528,1436965121277,785.0
529,1436965121278,785.0
530,1436965121279,784.0
531,1436965121280,784.0
532,1436965121281,785.0
533,1436965121282,785.0
534,1436965121296,786.0
535,1436965121310,786.0
536,1436965121332,789.0
537,1436965121350,788.0
538,1436965121373,788.0
539,1436965121391,789.0
540,1436965121412,789.0
541,1436965121431,789.0
542,1436965121453,789.0
543,1436965121474,789.0
544,1436965121494,789.0
545,1436965121514,788.0
546,1436965121534,788.0
547,1436965121555,788.0
548,1436965121574,786.0
549,1436965121594,786.0
550,1436965121615,786.0
551,1436965121634,786.0
552,1436965121652,786.0
553,1436965121673,786.0
554,1436965121694,788.0
555,1436965121711,788.0
556,1436965121731,787.0
557,1436965121751,787.0
558,1436965121776,788.0
559,1436965121797,788.0
560,1436965121814,788.0
561,1436965121834,789.0
562,1436965121851,789.0
563,1436965121872,790.0
564,1436965121891,790.0
565,1436965121914,791.0
566,1436965121933,791.0
567,1436965121989,792.0
568,1436965122002,792.0
569,1436965122003,791.0
570,1436965122012,792.0
571,1436965122033,792.0
572,1436965122061,792.0
573,1436965122076,792.0
574,1436965122105,792.0
575,1436965122227,792.0
576,1436965122232,792.0
577,1436965122233,792.0
578,1436965122234,790.0
579,1436965122235,790.0
580,1436965122236,792.0
581,1436965122237,792.0
582,1436965122252,792.0
583,1436965122271,792.0
584,1436965122294,792.0
585,1436965122315,792.0
586,1436965122335,792.0
587,1436965122355,792.0
588,1436965122375,792.0
589,1436965122394,792.0
590,1436965122415,792.0
591,1436965122435,791.0
592,1436965122452,791.0
593,1436965122475,791.0
594,1436965122495,792.0
595,1436965122515,792.0
596,1436965122535,792.0
597,1436965122554,792.0
598,1436965122575,793.0
599,1436965122594,793.0
600,1436965122615,794.0
601,1436965122636,794.0
602,1436965122655,795.0
603,1436965122675,795.0
604,1436965122695,795.0
605,1436965122714,795.0
606,1436965122785,795.0
607,1436965122786,794.0
608,1436965122787,794.0
609,1436965122798,795.0
610,1436965122816,795.0
611,1436965122835,794.0
612,1436965122853,794.0
613,1436965122874,794.0
614,1436965122893,794.0
615,1436965122913,794.0
616,1436965122936,795.0
617,1436965122955,795.0
618,1436965122974,795.0
619,1436965122995,795.0
620,1436965123015,795.0
621,1436965123035,795.0
622,1436965123055,797.0
623,1436965123075,797.0
624,1436965123095,796.0
625,1436965123115,796.0
626,1436965123135,796.0
627,1436965123155,796.0
628,1436965123172,796.0
629,1436965123195,796.0
630,1436965123217,796.0
631,1436965123256,797.0
632,1436965123257,797.0
633,1436965123274,796.0
634,1436965123292,796.0
635,1436965123312,796.0
636,1436965123332,796.0
637,1436965123352,795.0
638,1436965123372,796.0
639,1436965123394,796.0
640,1436965123419,796.0
641,1436965123433,796.0
642,1436965123454,797.0
643,1436965123509,797.0
644,1436965123510,798.0
645,1436965123546,798.0
646,1436965123547,799.0
647,1436965123557,799.0
648,1436965123573,799.0
649,1436965123592,800.0
650,1436965123612,800.0
651,1436965123632,801.0
652,1436965123652,801.0
653,1436965123684,801.0
654,1436965123692,801.0
655,1436965123716,802.0
656,1436965123736,802.0
657,1436965123777,802.0
658,1436965123778,802.0
659,1436965123796,803.0
660,1436965123816,804.0
661,1436965123837,804.0
662,1436965123857,804.0
663,1436965123876,804.0
664,1436965123895,805.0
665,1436965123917,805.0
666,1436965123934,803.0
667,1436965123954,803.0
668,1436965123975,804.0
669,1436965123996,804.0
670,1436965124017,804.0
671,1436965124037,805.0
672,1436965124057,805.0
673,1436965124074,805.0
674,1436965124093,805.0
675,1436965124115,805.0
676,1436965124136,805.0
677,1436965124257,805.0
678,1436965124259,805.0
679,1436965124260,805.0
680,1436965124261,805.0
681,1436965124262,806.0
682,1436965124263,805.0
683,1436965124300,805.0
684,1436965124301,806.0
685,1436965124366,806.0
686,1436965124384,805.0
687,1436965124385,805.0
688,1436965124386,806.0
689,1436965124414,806.0
690,1436965124415,806.0
691,1436965124439,806.0
692,1436965124454,805.0
693,1436965124474,806.0
694,1436965124494,806.0
695,1436965124514,806.0
696,1436965124534,806.0
697,1436965124554,806.0
698,1436965124574,806.0
699,1436965124595,806.0
700,1436965124614,806.0
701,1436965124633,805.0
702,1436965124655,805.0
703,1436965124678,805.0
704,1436965124695,806.0
705,1436965124717,806.0
706,1436965124734,805.0
707,1436965124755,805.0
708,1436965124775,805.0
709,1436965124798,805.0
710,1436965124818,805.0
711,1436965124836,805.0
712,1436965124854,805.0
713,1436965124875,805.0
714,1436965124895,805.0
715,1436965124915,805.0
716,1436965124938,805.0
717,1436965124954,805.0
718,1436965124974,805.0
719,1436965124997,804.0
720,1436965125015,804.0
721,1436965125037,804.0
722,1436965125054,804.0
723,1436965125074,803.0
724,1436965125094,803.0
725,1436965125116,803.0
726,1436965125137,803.0
727,1436965125157,803.0
728,1436965125178,804.0
729,1436965125195,804.0
730,1436965125217,804.0
731,1436965125237,804.0
732,1436965125257,805.0
733,1436965125278,805.0
734,1436965125297,805.0
735,1436965125315,805.0
736,1436965125338,805.0
737,1436965125358,805.0
738,1436965125374,805.0
739,1436965125394,805.0
740,1436965125415,805.0
741,1436965125435,805.0
742,1436965125455,805.0
743,1436965125475,805.0
744,1436965125498,805.0
745,1436965125516,805.0
746,1436965125535,805.0
747,1436965125555,806.0
748,1436965125575,806.0
749,1436965125594,805.0
750,1436965125627,806.0
751,1436965125638,806.0
752,1436965125655,805.0
753,1436965125675,805.0
754,1436965125745,806.0
755,1436965125746,806.0
756,1436965125747,806.0
757,1436965125772,806.0
758,1436965125787,807.0
759,1436965125795,807.0
760,1436965125816,806.0
761,1436965125835,806.0
762,1436965125855,806.0
763,1436965125875,806.0
764,1436965125895,806.0
765,1436965125916,806.0
766,1436965125937,806.0
767,1436965125958,805.0
768,1436965125978,805.0
769,1436965125998,805.0
770,1436965126018,805.0
771,1436965126039,805.0
772,1436965126057,805.0
773,1436965126078,805.0
774,1436965126097,806.0
775,1436965126117,806.0
776,1436965126136,806.0
777,1436965126159,806.0
778,1436965126179,807.0
779,1436965126199,807.0
780,1436965126218,807.0
781,1436965126237,807.0
782,1436965126256,808.0
783,1436965126278,808.0
784,1436965126296,808.0
785,1436965126318,808.0
786,1436965126370,808.0
787,1436965126371,809.0
788,1436965126385,809.0
789,1436965126395,808.0
790,1436965126419,808.0
791,1436965126436,807.0
792,1436965126457,807.0
793,1436965126478,807.0
794,1436965126497,806.0
795,1436965126517,806.0
796,1436965126537,807.0
797,1436965126557,807.0
798,1436965126577,806.0
799,1436965126599,806.0
800,1436965126619,807.0
801,1436965126639,807.0
802,1436965126659,806.0
803,1436965126679,806.0
804,1436965126699,806.0
805,1436965126719,807.0
806,1436965126739,807.0
807,1436965126759,807.0
808,1436965126778,807.0
809,1436965126799,807.0
810,1436965126818,807.0
811,1436965126838,807.0
812,1436965126856,807.0
813,1436965126878,808.0
814,1436965126898,808.0
815,1436965126919,809.0
816,1436965126937,810.0
817,1436965126957,810.0
818,1436965126978,809.0
819,1436965126996,809.0
820,1436965127018,810.0
821,1436965127036,810.0
