id,attr_time,attr_x,attr_y,attr_z
1,1436465583022,-21.073,-0.241,11.694
2,1436465583036,-21.073,-0.241,11.694
3,1436465583065,-21.073,-0.241,11.694
4,1436465583076,-21.073,-0.241,11.694
5,1436465583097,-21.073,-0.241,11.694
6,1436465583120,-21.073,-0.241,11.694
7,1436465583136,-21.073,-0.241,11.694
8,1436465583159,-21.073,-0.241,11.694
9,1436465583179,-21.073,-0.241,11.694
10,1436465583196,-21.073,-0.241,11.694
11,1436465583218,-21.073,-0.241,11.694
12,1436465583239,-21.073,-0.567,11.694
13,1436465583259,-21.073,-0.567,11.694
14,1436465583279,-21.073,-0.567,11.694
15,1436465583296,-21.073,-0.567,11.694
16,1436465583318,-21.073,-0.567,11.694
17,1436465583338,-21.073,-0.567,11.694
18,1436465583356,-21.073,-0.567,11.694
19,1436465583377,-21.073,-0.567,11.694
20,1436465583398,-21.073,-0.567,11.694
21,1436465583418,-21.073,-0.567,11.694
22,1436465583437,-21.073,-0.567,11.694
23,1436465583463,-21.073,-0.567,11.694
24,1436465583477,-21.073,-0.567,11.694
25,1436465583503,-21.073,-0.567,11.694
26,1436465583517,-21.073,-0.567,11.694
27,1436465583537,-21.073,-0.567,11.694
28,1436465583559,-21.073,-0.567,11.694
29,1436465583577,-21.073,-0.567,11.694
30,1436465583598,-21.073,-0.567,11.694
31,1436465583660,-21.073,-0.567,11.694
32,1436465583661,-21.073,-0.567,11.694
33,1436465583662,-21.073,-0.567,11.694
34,1436465583683,-21.073,-0.567,11.694
35,1436465583697,-21.073,-0.567,11.694
36,1436465583720,-21.073,-0.567,11.694
37,1436465583737,-21.073,-0.567,11.694
38,1436465583757,-21.073,-0.567,11.694
39,1436465583777,-21.073,-0.567,11.694
40,1436465583799,-21.073,-0.567,11.694
41,1436465583817,-21.073,-0.567,11.694
42,1436465583838,-21.073,-0.567,11.694
43,1436465583857,-21.073,-0.567,11.694
44,1436465583879,-21.073,-0.567,11.694
45,1436465583900,-21.073,-0.567,11.694
46,1436465583949,-21.073,-0.567,11.694
47,1436465583950,-21.073,-0.567,11.694
48,1436465583959,-21.073,-0.567,11.694
49,1436465583980,-21.073,-0.567,11.369
50,1436465583999,-21.073,-0.567,11.369
51,1436465584019,-21.073,-0.567,11.369
52,1436465584037,-21.073,-0.567,11.369
53,1436465584270,-21.073,-0.567,11.369
54,1436465584271,-21.073,-0.567,11.369
55,1436465584272,-21.073,-0.567,11.369
56,1436465584273,-21.073,-0.567,11.369
57,1436465584274,-21.073,-0.567,11.062
58,1436465584275,-21.073,-0.567,11.062
59,1436465584276,-21.073,-0.567,11.062
60,1436465584277,-21.073,-0.567,11.062
61,1436465584284,-21.073,-0.567,11.062
62,1436465584285,-21.073,-0.567,11.062
63,1436465584286,-21.073,-0.567,11.062
64,1436465584287,-21.073,-0.567,11.062
65,1436465584452,-21.073,-0.567,11.062
66,1436465584453,-21.073,-0.567,11.062
67,1436465584454,-21.073,-0.567,11.062
68,1436465584455,-21.073,-0.567,11.062
69,1436465584456,-21.073,-0.567,10.751
70,1436465584457,-21.073,-0.567,10.751
71,1436465584458,-21.073,-0.567,10.751
72,1436465584459,-21.073,-0.567,10.751
73,1436465584460,-21.073,-0.567,10.751
74,1436465584477,-21.073,-0.567,10.751
75,1436465584497,-21.073,-0.567,10.751
76,1436465584518,-21.073,-0.567,10.751
77,1436465584537,-21.073,-0.567,10.751
78,1436465584557,-21.073,-0.567,10.751
79,1436465584577,-21.073,-0.567,10.751
80,1436465584596,-21.073,-0.567,10.751
81,1436465584619,-21.073,-0.567,10.751
82,1436465584639,-21.073,-0.567,10.751
83,1436465584658,-21.073,-0.567,10.751
84,1436465584677,-21.073,-0.567,10.751
85,1436465584698,-21.073,-0.567,10.751
86,1436465584719,-21.073,-0.567,10.751
87,1436465584738,-21.073,-0.567,10.751
88,1436465584761,-21.073,-0.567,10.751
89,1436465584779,-21.073,-0.567,10.751
90,1436465584799,-21.073,-0.265,10.751
91,1436465584817,-21.073,-0.265,10.751
92,1436465584838,-21.073,-0.265,10.751
93,1436465584861,-21.073,-0.265,10.751
94,1436465584878,-21.073,-0.265,10.751
95,1436465584898,-21.073,-0.265,10.751
96,1436465584920,-21.073,-0.265,10.751
97,1436465584939,-21.073,-0.265,10.751
98,1436465584960,-21.073,-0.265,11.079
99,1436465584982,-21.073,-0.265,11.079
100,1436465585003,-21.073,-0.265,11.079
101,1436465585059,-21.073,-0.265,11.079
102,1436465585060,-21.073,-0.265,11.396
103,1436465585061,-21.073,-0.265,11.396
104,1436465585079,-21.073,-0.265,11.396
105,1436465585100,-21.073,-0.265,11.775
106,1436465585119,-21.073,-0.265,11.775
107,1436465585138,-21.073,-0.265,11.775
108,1436465585158,-21.073,-0.265,12.234
109,1436465585180,-21.073,-0.265,12.234
110,1436465585199,-21.073,-0.265,12.536
111,1436465585219,-21.073,-0.265,12.536
112,1436465585240,-21.073,-0.265,12.889
113,1436465585260,-21.073,-0.265,12.889
114,1436465585282,-21.073,-0.265,13.233
115,1436465585300,-21.073,-0.265,13.233
116,1436465585321,-21.073,-0.265,13.639
117,1436465585339,-20.77,-0.265,13.639
118,1436465585360,-20.77,-0.265,14.097
119,1436465585382,-20.77,-0.265,14.097
120,1436465585400,-20.77,-0.265,14.498
121,1436465585421,-20.77,-0.265,14.952
122,1436465585439,-20.77,-0.604,15.348
123,1436465585460,-20.77,-0.604,15.348
124,1436465585479,-20.77,-0.604,15.896
125,1436465585501,-20.434,-0.604,16.361
126,1436465585521,-20.434,-0.604,16.361
127,1436465585539,-20.434,-0.604,16.9
128,1436465585562,-20.434,-0.604,17.524
129,1436465585582,-20.434,-0.604,17.524
130,1436465585600,-20.434,-0.604,17.936
131,1436465585662,-20.075,-0.604,18.312
132,1436465585663,-20.075,-0.941,18.312
133,1436465585664,-20.075,-0.941,19.12
134,1436465585681,-20.075,-0.941,19.12
135,1436465585699,-20.075,-0.941,20.005
136,1436465585719,-20.075,-0.941,20.658
137,1436465585752,-19.694,-0.941,21.107
138,1436465585819,-19.694,-0.941,21.749
139,1436465585820,-19.694,-0.941,21.749
140,1436465585821,-19.694,-0.941,21.749
141,1436465585822,-19.331,-0.941,22.076
142,1436465585842,-19.331,-0.941,22.592
143,1436465585859,-19.331,-0.941,22.592
144,1436465585878,-18.98,-0.941,23.397
145,1436465585905,-18.98,-0.941,23.397
146,1436465585919,-18.98,-0.941,23.718
147,1436465585942,-18.597,-0.573,24.206
148,1436465585959,-18.597,-0.015,24.206
149,1436465585980,-18.597,0.776,24.731
150,1436465586005,-18.142,1.359,25.157
151,1436465586022,-18.142,1.799,25.157
152,1436465586042,-17.8,1.799,25.157
153,1436465586063,-17.8,2.302,25.157
154,1436465586081,-17.478,2.302,25.157
155,1436465586103,-17.478,1.994,25.157
156,1436465586121,-17.179,1.693,25.502
157,1436465586143,-17.179,1.693,25.958
158,1436465586163,-17.179,1.693,25.958
159,1436465586182,-17.179,1.693,25.488
160,1436465586201,-16.806,1.693,25.488
161,1436465586221,-16.806,0.764,25.488
162,1436465586243,-16.806,-0.711,25.909
163,1436465586260,-16.806,-2.201,25.909
164,1436465586280,-16.806,-3.633,26.217
165,1436465586299,-16.467,-4.997,26.217
166,1436465586322,-16.467,-6.092,26.646
167,1436465586345,-16.467,-7.495,26.646
168,1436465586362,-16.467,-8.117,27.316
169,1436465586382,-16.139,-8.117,27.316
170,1436465586400,-16.139,-8.117,27.821
171,1436465586420,-16.139,-7.603,27.821
172,1436465586439,-16.139,-7.096,27.821
173,1436465586460,-16.139,-7.096,27.821
174,1436465586482,-16.139,-6.132,27.821
175,1436465586536,-16.139,-5.265,27.821
176,1436465586541,-16.139,-4.428,26.446
177,1436465586552,-16.139,-3.811,24.32
178,1436465586560,-16.139,-4.249,24.32
179,1436465586580,-16.519,-4.249,23.422
180,1436465586601,-16.519,-4.249,22.583
181,1436465586619,-16.888,-2.281,23.87
182,1436465586639,-16.888,0.297,23.87
183,1436465586662,-16.888,1.741,23.13
184,1436465586682,-16.888,1.194,24.168
185,1436465586701,-16.888,1.194,25.81
186,1436465586722,-16.888,1.194,26.437
187,1436465586740,-16.888,1.94,26.437
188,1436465586763,-16.888,2.642,25.407
189,1436465586783,-16.888,2.966,24.978
190,1436465586803,-16.888,2.966,24.978
191,1436465586822,-17.21,2.966,24.978
192,1436465586842,-17.21,2.124,24.978
193,1436465586863,-17.21,1.786,24.978
194,1436465586880,-17.21,0.779,24.365
195,1436465586902,-17.21,0.082,23.709
196,1436465586923,-17.21,0.082,22.781
197,1436465586944,-17.21,0.082,23.365
198,1436465586960,-17.21,-0.636,23.365
199,1436465586983,-17.21,-1.336,23.731
200,1436465587004,-17.21,-2.001,23.731
201,1436465587033,-17.21,-3.302,24.261
202,1436465587051,-17.21,-3.918,24.736
203,1436465587060,-17.21,-4.696,25.386
204,1436465587080,-17.21,-5.502,25.386
205,1436465587100,-17.21,-6.205,25.085
206,1436465587120,-17.21,-6.205,24.642
207,1436465587143,-17.21,-6.205,24.642
208,1436465587162,-17.21,-6.205,24.642
209,1436465587183,-17.556,-5.319,24.642
210,1436465587202,-17.556,-4.542,24.642
211,1436465587232,-17.556,-3.884,24.642
212,1436465587252,-17.556,-3.578,24.026
213,1436465587260,-17.556,-3.578,23.554
214,1436465587280,-17.936,-3.578,22.398
215,1436465587332,-17.936,-3.578,21.513
216,1436465587333,-17.936,-3.578,20.977
217,1436465587343,-17.936,-3.578,20.977
218,1436465587381,-17.936,-1.997,21.841
219,1436465587382,-17.936,-0.505,22.738
220,1436465587403,-17.936,1.01,23.205
221,1436465587421,-17.936,1.359,23.677
222,1436465587440,-17.936,1.359,23.677
223,1436465587460,-17.936,1.855,23.677
224,1436465587479,-17.936,2.394,23.677
225,1436465587499,-17.936,2.813,23.677
226,1436465587523,-17.936,2.813,23.677
227,1436465587539,-17.936,2.813,23.677
228,1436465587562,-17.936,1.785,23.361
229,1436465587579,-17.936,1.283,23.812
230,1436465587599,-17.936,0.665,23.812
231,1436465587619,-17.936,0.311,23.812
232,1436465587639,-17.936,-0.276,22.409
233,1436465587659,-17.936,-0.276,21.099
234,1436465587679,-17.936,-0.276,21.604
235,1436465587699,-17.936,-0.978,22.357
236,1436465587719,-17.936,-1.631,22.795
237,1436465587739,-17.936,-2.917,22.795
238,1436465587759,-17.936,-4.347,23.283
239,1436465587779,-17.936,-5.577,23.786
240,1436465587799,-17.936,-6.449,24.313
241,1436465587819,-17.936,-7.814,24.313
242,1436465587839,-17.936,-8.522,24.313
243,1436465587862,-17.936,-9.297,24.313
244,1436465587882,-17.936,-9.297,24.313
245,1436465587900,-17.936,-8.374,24.313
246,1436465587923,-17.936,-7.31,24.313
247,1436465587943,-17.936,-6.245,24.313
248,1436465587965,-17.936,-5.628,24.313
249,1436465587981,-17.936,-4.785,23.841
250,1436465588024,-17.936,-3.996,22.994
251,1436465588025,-17.936,-3.996,22.29
252,1436465588040,-17.936,-5.027,22.79
253,1436465588062,-17.936,-5.027,21.676
254,1436465588084,-17.936,-4.167,20.996
255,1436465588100,-17.936,-3.164,20.996
256,1436465588122,-17.936,-1.655,21.949
257,1436465588144,-17.936,-0.421,22.746
258,1436465588161,-17.936,0.645,23.825
259,1436465588183,-17.936,1.286,24.78
260,1436465588205,-17.936,1.286,24.102
261,1436465588225,-17.936,2.273,23.413
262,1436465588243,-17.936,2.273,23.413
263,1436465588265,-17.936,2.731,23.413
264,1436465588285,-17.936,2.731,23.413
265,1436465588304,-17.936,1.77,23.829
266,1436465588324,-17.936,0.64,23.829
267,1436465588344,-17.936,-0.192,23.829
268,1436465588365,-17.936,-0.978,23.489
269,1436465588382,-17.936,-1.396,22.167
270,1436465588404,-17.936,-0.959,20.806
271,1436465588425,-17.936,-0.511,20.806
272,1436465588444,-17.936,-0.836,22.25
273,1436465588464,-17.936,-1.927,22.25
274,1436465588484,-17.936,-3.436,22.669
275,1436465588504,-17.936,-4.614,23.037
276,1436465588524,-17.936,-5.389,23.657
277,1436465588545,-17.936,-6.147,23.657
278,1436465588564,-17.936,-6.954,23.657
279,1436465588584,-17.936,-7.994,23.657
280,1436465588604,-17.936,-7.994,23.657
281,1436465588626,-17.936,-7.994,24.04
282,1436465588651,-17.936,-7.131,24.653
283,1436465588662,-17.936,-6.333,24.653
284,1436465588707,-17.936,-5.557,24.653
285,1436465588708,-17.936,-4.565,24.653
286,1436465588732,-17.936,-3.781,24.15
287,1436465588741,-17.936,-3.781,23.3
288,1436465588771,-17.936,-4.606,23.3
289,1436465588784,-17.936,-4.606,22.547
290,1436465588803,-17.936,-4.286,22.547
291,1436465588823,-17.936,-3.594,23.228
292,1436465588843,-17.936,-2.664,23.686
293,1436465588863,-17.936,-0.392,23.686
294,1436465590345,-17.936,1.184,23.999
295,1436465590346,-17.936,2.416,23.999
296,1436465590347,-17.936,3.1,23.999
297,1436465590348,-17.936,4.357,24.436
298,1436465590349,-17.611,5.621,24.436
299,1436465590350,-17.611,6.282,24.436
300,1436465590351,-17.611,6.282,24.436
301,1436465590352,-17.611,6.282,24.436
302,1436465590353,-17.268,5.763,24.436
303,1436465590354,-17.268,5.128,24.436
304,1436465590355,-16.932,4.585,24.946
305,1436465590356,-16.932,3.503,24.946
306,1436465590357,-16.932,2.877,24.366
307,1436465590358,-16.932,3.245,24.366
308,1436465590359,-16.932,3.245,23.843
309,1436465590360,-16.932,2.661,24.148
310,1436465590361,-16.932,2.084,24.548
311,1436465590362,-16.932,0.958,24.548
312,1436465590363,-16.932,-0.781,24.548
313,1436465590364,-16.932,-2.026,24.859
314,1436465590365,-16.932,-3.158,24.859
315,1436465590366,-16.932,-4.15,24.859
316,1436465590367,-16.932,-5.905,25.234
317,1436465590368,-16.932,-7.376,25.234
318,1436465590369,-16.932,-7.865,25.234
319,1436465590370,-16.932,-7.466,25.234
320,1436465590371,-16.932,-6.66,25.721
321,1436465590372,-16.932,-5.937,25.721
322,1436465590373,-16.932,-5.024,25.721
323,1436465590374,-16.932,-4.031,25.721
324,1436465590375,-16.932,-3.433,25.721
325,1436465590376,-16.932,-3.433,25.329
326,1436465590377,-16.932,-4.364,25.329
327,1436465590378,-17.288,-4.364,25.016
328,1436465590379,-17.288,-3.346,23.054
329,1436465590380,-17.288,-2.471,23.847
330,1436465590381,-17.288,-1.289,23.847
331,1436465590382,-17.288,0.1,23.847
332,1436465590383,-17.288,1.383,24.441
333,1436465590384,-17.288,2.667,25.305
334,1436465590385,-17.288,3.263,25.305
335,1436465590386,-17.288,4.159,25.305
336,1436465590387,-17.288,4.736,25.305
337,1436465590388,-17.288,4.736,25.305
338,1436465590389,-17.288,4.736,25.305
339,1436465590390,-17.288,4.736,25.305
340,1436465590391,-17.288,4.071,25.633
341,1436465590392,-17.288,2.996,25.941
342,1436465590393,-17.288,1.753,25.941
343,1436465590394,-17.288,0.651,25.448
344,1436465590395,-17.288,0.651,24.113
345,1436465590396,-17.288,0.976,23.287
346,1436465590397,-17.288,0.976,23.287
347,1436465590398,-17.288,0.337,24.005
348,1436465590399,-17.288,-1.742,24.499
349,1436465590400,-17.288,-3.283,24.499
350,1436465590401,-17.288,-3.947,25.344
351,1436465590402,-17.288,-4.634,25.863
352,1436465590403,-17.288,-5.538,25.863
353,1436465590404,-17.288,-6.968,25.863
354,1436465590405,-17.288,-7.655,25.343
355,1436465590406,-17.288,-7.655,25.343
356,1436465590407,-17.288,-7.156,24.917
357,1436465590408,-17.288,-6.597,24.52
358,1436465590409,-17.288,-5.514,24.52
359,1436465590410,-17.648,-4.721,24.842
360,1436465590411,-17.648,-4.019,24.468
361,1436465590412,-17.648,-3.463,23.907
362,1436465590413,-18.089,-3.916,23.1
363,1436465590414,-18.089,-4.785,23.1
364,1436465590415,-18.089,-4.785,22.135
365,1436465590416,-18.089,-4.142,21.696
366,1436465590417,-18.409,-3.486,21.696
367,1436465590418,-18.409,-2.151,22.494
368,1436465590419,-18.409,0.05,22.857
369,1436465590420,-18.409,1.142,24.021
370,1436465590421,-18.409,1.933,24.021
371,1436465590422,-18.409,2.493,23.561
372,1436465590442,-18.409,3.642,22.683
373,1436465590461,-18.409,4.508,22.683
374,1436465590481,-18.409,4.508,22.683
375,1436465590501,-18.409,3.79,23.037
376,1436465590521,-18.409,3.79,23.037
377,1436465590542,-18.409,3.004,23.037
378,1436465590562,-18.409,2.209,23.037
379,1436465590582,-18.109,1.356,23.037
380,1436465590606,-18.109,0.436,22.705
381,1436465590628,-18.109,0.888,22.183
382,1436465590643,-18.109,0.888,21.878
383,1436465590666,-18.109,0.888,21.878
384,1436465590688,-18.109,0.0,22.509
385,1436465590745,-18.109,-1.284,22.869
386,1436465590746,-18.109,-2.229,22.869
387,1436465590747,-17.787,-3.503,23.22
388,1436465590795,-17.787,-4.64,23.927
389,1436465590796,-17.787,-5.686,24.563
390,1436465590803,-17.787,-7.638,25.129
391,1436465590825,-17.787,-8.927,25.129
392,1436465590844,-17.787,-9.428,25.129
393,1436465590866,-17.787,-9.428,25.714
394,1436465590884,-17.787,-8.5,25.714
395,1436465590916,-17.787,-7.518,25.714
396,1436465590958,-17.787,-6.517,25.714
397,1436465590959,-17.787,-5.523,25.256
398,1436465590971,-17.787,-4.472,24.348
399,1436465590993,-17.787,-4.141,22.221
400,1436465591003,-17.787,-4.873,22.814
401,1436465591024,-17.787,-5.345,23.234
402,1436465591060,-17.787,-4.515,22.575
403,1436465591063,-17.787,-3.717,23.403
404,1436465591083,-17.787,-1.98,23.817
405,1436465591105,-17.787,-0.434,24.603
406,1436465591124,-17.787,1.2,25.415
407,1436465591147,-17.787,2.021,26.272
408,1436465591164,-17.787,2.578,26.272
409,1436465591185,-17.46,3.558,25.468
410,1436465591202,-17.46,4.237,24.501
411,1436465591226,-17.46,4.948,24.501
412,1436465591247,-17.46,4.521,24.972
413,1436465591292,-17.46,4.521,24.972
414,1436465591293,-17.46,3.523,24.972
415,1436465591303,-17.46,3.523,24.972
416,1436465591323,-17.46,2.259,24.972
417,1436465591343,-17.46,0.756,24.647
418,1436465591363,-17.46,1.142,23.188
419,1436465591384,-17.46,1.876,22.705
420,1436465591405,-17.46,1.408,22.705
421,1436465591424,-17.46,0.419,23.072
422,1436465591443,-17.46,-0.811,23.554
423,1436465591463,-17.46,-2.47,23.554
424,1436465591484,-17.46,-3.506,24.032
425,1436465591506,-17.46,-4.45,24.693
426,1436465591525,-17.46,-6.245,24.693
427,1436465591547,-17.46,-7.849,24.693
428,1436465591564,-17.46,-9.04,24.148
429,1436465591587,-17.46,-9.04,24.148
430,1436465591626,-17.46,-9.04,24.148
431,1436465591627,-17.46,-8.052,24.148
432,1436465591644,-17.46,-7.528,24.148
433,1436465591665,-17.46,-6.869,24.148
434,1436465591684,-17.807,-6.068,24.148
435,1436465591704,-17.807,-4.905,23.712
436,1436465591724,-17.807,-4.476,23.712
437,1436465591744,-17.807,-5.31,23.382
438,1436465591764,-17.807,-5.686,23.382
439,1436465591784,-17.807,-4.988,23.382
440,1436465591807,-17.807,-4.367,23.382
441,1436465591827,-17.807,-3.218,23.382
442,1436465591845,-17.807,-1.507,23.382
443,1436465591868,-17.807,-0.042,23.722
444,1436465591884,-17.807,1.104,24.67
445,1436465591908,-17.807,1.701,25.837
446,1436465591928,-17.807,2.682,25.837
447,1436465591948,-17.494,3.634,25.837
448,1436465591967,-17.494,4.106,25.306
449,1436465591988,-17.176,3.785,25.306
450,1436465592005,-17.176,3.785,25.306
451,1436465592029,-17.176,3.379,25.306
452,1436465592048,-16.816,2.658,25.973
453,1436465592064,-16.816,1.858,25.973
454,1436465592085,-16.816,0.617,25.973
455,1436465592105,-16.816,0.617,25.012
456,1436465592130,-16.816,0.617,24.398
457,1436465592150,-16.816,-0.024,25.073
458,1436465592170,-16.816,-0.788,25.073
459,1436465592187,-16.506,-1.799,25.675
460,1436465592204,-16.506,-3.236,25.675
461,1436465592225,-16.506,-4.91,25.675
462,1436465592245,-16.506,-5.398,26.129
463,1436465592265,-16.506,-6.619,26.129
464,1436465592286,-16.506,-7.795,26.129
465,1436465592356,-16.506,-9.065,26.129
466,1436465592357,-16.506,-9.559,26.129
467,1436465592358,-16.506,-9.559,26.129
468,1436465592367,-16.506,-8.734,26.129
469,1436465592386,-16.506,-7.258,26.129
470,1436465592407,-16.506,-6.901,26.129
471,1436465592425,-16.506,-5.903,26.129
472,1436465592455,-16.506,-5.036,26.129
473,1436465592479,-16.506,-5.036,26.129
474,1436465592487,-16.873,-6.398,25.347
475,1436465592505,-16.873,-5.773,25.347
476,1436465592527,-16.873,-4.508,24.923
477,1436465592547,-16.873,-3.515,24.409
478,1436465592567,-16.873,-2.182,24.409
479,1436465592589,-16.873,-0.48,24.821
480,1436465592607,-16.873,0.66,25.202
481,1436465592628,-16.873,1.452,26.022
482,1436465592648,-16.873,2.098,26.022
483,1436465592668,-16.873,3.143,26.022
484,1436465592687,-16.873,3.535,25.193
485,1436465592708,-16.873,3.535,25.193
486,1436465592728,-16.873,3.535,25.193
487,1436465592747,-16.873,3.535,25.193
488,1436465592768,-16.873,2.555,25.193
489,1436465592787,-16.873,1.835,25.193
490,1436465592807,-16.873,1.145,25.193
491,1436465592828,-16.873,0.523,25.193
492,1436465592847,-16.873,0.044,24.824
493,1436465592867,-16.873,0.862,24.824
494,1436465592889,-16.873,0.862,24.824
495,1436465592910,-16.873,0.028,24.824
496,1436465592927,-16.873,-0.898,24.824
497,1436465592954,-16.873,-2.072,24.824
498,1436465592968,-16.873,-3.268,25.283
499,1436465592986,-16.873,-3.88,25.283
500,1436465593009,-16.873,-4.92,25.75
501,1436465593080,-16.873,-6.394,25.75
502,1436465593081,-16.873,-7.289,25.75
503,1436465593082,-16.873,-7.688,25.75
504,1436465593089,-16.873,-6.93,25.75
505,1436465593108,-16.873,-6.335,25.75
506,1436465593127,-16.873,-5.54,25.75
507,1436465593146,-16.873,-4.669,25.75
508,1436465593167,-16.873,-3.811,25.75
