id,attr_time,attr_db
1,1436166025359,23.9486710895408
2,1436166026105,21.0906169624687
3,1436166026827,46.5885927992064
4,1436166027580,27.5501782159497
5,1436166028310,40.5578431427782
6,1436166029033,46.2923406054936
7,1436166029729,42.2866704153987
8,1436166030460,31.2052176687529
9,1436166031213,44.9008218171418
10,1436166031926,47.1789666900843
11,1436166032674,35.3638171740515
12,1436166033417,52.3971092761856
13,1436166034079,44.6064167830087
14,1436166034873,32.0041483323882
15,1436166035599,41.0725093729058
16,1436166036328,25.351126458183
17,1436166037065,42.509245149452
18,1436166037817,27.5692546300207
19,1436166038510,22.7482370358932
20,1436166039186,51.6604730520794
21,1436166039859,43.5261923031416
22,1436166040608,31.7247501804073
23,1436166041395,37.005040367557
24,1436166042084,24.9882335205041
25,1436166042660,42.7845062571896
26,1436166043924,41.9053081140772
27,1436166044602,46.1113149757657
28,1436166045257,41.2273600693669
29,1436166045992,44.9169511457217
30,1436166046733,25.849544330323
31,1436166047460,55.6829356115346
32,1436166048190,42.2547082659495
33,1436166048900,21.4147070980171
34,1436166049639,35.8337474896418
35,1436166050284,29.6695972005136
36,1436166051024,56.521238574194
37,1436166051739,64.623257548366
38,1436166052465,54.3933604272337
39,1436166053185,35.4694277103819
40,1436166053855,55.3342263192889
41,1436166054573,43.460703419013
42,1436166055300,45.6647338537802
43,1436166056022,21.5483795945968
44,1436166056756,34.7695782172261
45,1436166057467,47.3130796246162
46,1436166059301,17.6642229751282
47,1436166060107,44.4891999944433
48,1436166060771,43.5332984454658
49,1436166061493,29.0031523091387
50,1436166062234,46.2758282226861
51,1436166062957,45.4850692199344
52,1436166063643,59.7244929041178
53,1436166064394,45.2705888590969
54,1436166065125,54.9568578550159
55,1436166065845,42.9453400102572
56,1436166066565,50.4372061899619
57,1436166067284,41.945414368086
58,1436166068009,28.5614040115569
59,1436166068770,53.3336386754003
60,1436166069525,46.282344060607
61,1436166070264,39.7854277008497
62,1436166070951,42.4812214059521
63,1436166071691,48.8393302340892
64,1436166072463,44.6082076147446
65,1436166073183,35.670700741381
66,1436166073932,44.6151676143111
67,1436166074613,52.9982104065738
68,1436166075299,40.2489022428184
69,1436166076013,43.6277852269657
70,1436166076737,22.6611136968635
71,1436166077454,37.6796937826373
72,1436166078164,45.8306950668914
73,1436166078799,46.5235735304923
74,1436166079546,40.5268526604657
75,1436166080238,43.201465277572
76,1436166081771,47.7503109258614
77,1436166082495,46.5542905282536
78,1436166083213,45.4800370655847
79,1436166083969,43.8440325470211
80,1436166084682,47.81711220033
81,1436166085369,28.7756964385931
82,1436166086091,57.3579404615008
83,1436166086804,38.7562021598744
84,1436166087547,42.371919385334
85,1436166088281,35.5871992919346
86,1436166089021,24.1189761111125
87,1436166089742,32.6339117969482
88,1436166090443,42.7202733419089
89,1436166091206,39.3579462129791
90,1436166091908,51.0837675440403
91,1436166092662,50.1052701653973
92,1436166093381,25.6618482715454
93,1436166094727,49.26854987548
94,1436166095401,34.6867592596869
95,1436166096122,23.9200936238994
96,1436166096865,44.2721184051795
97,1436166097598,43.3468617600943
98,1436166098327,59.3603642597711
99,1436166099050,36.1393706386206
100,1436166099780,52.2613076283459
101,1436166100456,42.7083818116081
102,1436166101190,44.2769050981228
103,1436166101912,58.4667636324484
104,1436166102649,18.4205046902394
105,1436166103403,45.188565833575
106,1436166104129,48.2335751232961
107,1436166104860,38.4316121487639
108,1436166105606,15.8123754936908
109,1436166106331,47.7882351717495
110,1436166107066,58.5791660960805
111,1436166107789,26.064634118887
112,1436166108499,44.5548799221276
113,1436166109249,35.268479484963
114,1436166109973,20.7146146676957
115,1436166110688,50.1493988951492
116,1436166111372,46.8099767247084
117,1436166112080,48.8772452671955
118,1436166112789,48.6234291677992
119,1436166113508,58.2159555227067
120,1436166114292,32.0171158823395
121,1436166115014,35.5530573181827
122,1436166115722,28.6605913020372
123,1436166116459,43.6588324506377
124,1436166117176,27.8543899530547
125,1436166117898,47.0512766582236
126,1436166118622,43.5512316281855
127,1436166119385,44.5591563356586
128,1436166120041,35.736834945111
129,1436166120579,26.8996689357566
130,1436166121213,41.8350008194662
131,1436166121928,53.0728047504178
132,1436166122669,56.9245487998955
133,1436166123392,47.5432723331211
134,1436166124184,45.8692097777873
135,1436166124891,44.2331760276452
136,1436166125610,50.1644867966968
137,1436166126340,53.3476152686122
138,1436166127067,50.415260246175
139,1436166127787,28.3447744554002
140,1436166128479,32.7334643840504
141,1436166129180,29.791256751836
142,1436166129830,48.5111834340317
143,1436166130542,42.0260688538423
144,1436166131274,47.7344238102973
145,1436166131941,57.1259005556671
146,1436166132692,39.3490781358495
147,1436166133442,46.6403229250005
148,1436166134182,43.6130547600423
149,1436166134905,41.8657309061601
150,1436166135629,40.9590692060852
151,1436166136373,44.190090781413
152,1436166137092,48.3993807565
153,1436166137838,30.5740640341175
154,1436166138572,38.0250825709511
155,1436166139314,27.4350267902836
156,1436166140042,32.8844040227447
157,1436166140766,42.2477046583738
158,1436166141468,25.0584164945928
159,1436166142193,32.1120942144992
160,1436166142842,33.2167761322074
161,1436166143566,45.732952082325
162,1436166144267,42.7983224273937
163,1436166144932,20.2617634972291
164,1436166145669,30.912371275262
165,1436166146411,40.7150413844848
166,1436166147146,50.8511930006081
167,1436166147891,41.1395954225888
168,1436166148622,40.169888850987
169,1436166149409,40.4127471322093
170,1436166150121,38.3326074748246
171,1436166150846,47.4492201650041
172,1436166151557,46.8246546593237
173,1436166152232,40.2396031449261
174,1436166152922,26.0454441343216
175,1436166153650,36.518685623987
176,1436166154421,43.2591882559929
177,1436166155116,47.6635584721911
178,1436166155723,30.6001210545434
179,1436166156453,46.8072574845862
180,1436166157180,43.9991666774251
181,1436166157897,44.3563448297882
182,1436166158637,41.7617596778453
183,1436166159377,46.2916975543626
184,1436166160096,33.3685886235566
185,1436166160788,45.1676689509313
186,1436166161502,56.3977995943792
187,1436166162207,38.4156193527125
188,1436166162872,47.3677968140427
189,1436166163622,47.3434101236865
190,1436166164378,36.4479790202434
191,1436166165091,28.0687684486041
192,1436166165819,40.2590790207634
193,1436166166556,39.9815202632731
194,1436166167273,28.9916091575866
195,1436166168011,22.6868480348594
196,1436166168748,48.5526891354451
197,1436166169462,32.1184347871496
198,1436166170188,31.0948009872125
199,1436166170904,24.1115073964131
200,1436166171619,27.5460521326701
201,1436166172342,59.4683434483977
202,1436166173032,35.7269331888973
203,1436166173770,39.6365963133029
204,1436166174484,35.48389130773
205,1436166175184,34.3093942300914
206,1436166175851,29.4906042821417
207,1436166176564,37.6311620312318
208,1436166177301,22.651092448247
209,1436166178041,36.7616733255339
210,1436166178758,42.5262095560349
211,1436166179524,38.0289757923878
212,1436166180214,24.9859020509858
213,1436166180880,31.4521457504866
214,1436166181578,50.171314785806
215,1436166182301,42.4359067114807
216,1436166183042,45.5778826167558
217,1436166183781,35.3325908852156
218,1436166184509,25.6846796989401
219,1436166185207,48.0754299801937
220,1436166185896,38.7631042422314
221,1436166186572,27.7408190679014
222,1436166187270,26.4233696423582
223,1436166187994,31.5480214630635
224,1436166188726,39.845435029936
225,1436166189485,45.7558537884569
226,1436166190266,42.3794460499542
227,1436166190998,27.9499341195288
228,1436166191721,46.2319594612825
229,1436166192438,48.6869573644043
230,1436166193156,49.2881851084002
231,1436166193844,54.5443553259837
232,1436166194634,52.9635606294218
233,1436166195365,32.2496701816408
234,1436166196092,38.4664874467218
235,1436166196839,41.5012117786845
236,1436166197563,51.6630533912918
237,1436166198300,45.116036955996
238,1436166199019,38.2504657129586
239,1436166199781,49.1651832105741
240,1436166200470,42.9673215007601
241,1436166201120,26.5285119894512
242,1436166201808,36.1806386339046
243,1436166202539,38.9475346463296
244,1436166203266,31.4731547942928
245,1436166203927,47.2806132322239
246,1436166204661,45.2092355123931
247,1436166205392,28.5716972116506
248,1436166206078,46.3179137275704
249,1436166206762,44.3696336996709
250,1436166207475,45.2040531086127
251,1436166208205,41.8317523444421
252,1436166208945,35.8983357605669
253,1436166209690,45.1792737318183
254,1436166210428,39.811139567375
255,1436166211164,28.1196492171627
256,1436166211908,46.2538631373985
257,1436166212655,35.6984924804722
258,1436166213336,48.1692149063426
259,1436166213977,53.4448661532889
260,1436166214689,49.9158563663922
261,1436166215440,32.7157924675808
262,1436166216171,47.3756793425771
263,1436166216919,40.7035283275873
264,1436166217655,43.5054672045425
265,1436166218397,58.9417969675003
266,1436166219114,42.9969749551912
267,1436166219834,47.9991723091784
268,1436166220549,41.5883811549267
269,1436166221240,39.2498182028021
270,1436166221973,44.3963592340983
271,1436166222705,45.6904610740486
272,1436166223425,52.2279162555417
273,1436166224113,47.7997080809965
274,1436166224785,41.3056013050169
275,1436166225510,44.9590457904995
276,1436166226253,56.088841201145
277,1436166226970,39.0589376827665
278,1436166227659,38.7945601051774
279,1436166228372,41.0682865679527
280,1436166229116,39.4337319284607
281,1436166229861,39.9178279453884
282,1436166230586,43.1084618886297
283,1436166231304,46.1198034410645
284,1436166232026,27.7010156033227
285,1436166232727,41.8465512514877
286,1436166233430,61.2046519201067
287,1436166234115,35.3423124633049
288,1436166234742,53.4647376682025
289,1436166235442,57.3792834807652
290,1436166236147,65.5265630636911
291,1436166236823,31.8411283435581
292,1436166237545,46.424203731418
293,1436166238280,64.0345656011271
294,1436166239006,53.0138149731168
295,1436166239739,49.1251424705985
296,1436166240486,48.7184589903398
297,1436166241201,49.26519523452
298,1436166241819,49.2375262995352
299,1436166242535,57.5098004298153
300,1436166243257,35.3456091613591
301,1436166244006,25.7136167793341
302,1436166244688,23.9864738688902
303,1436166245373,41.2650054366192
304,1436166246065,58.9913195321299
305,1436166246729,49.9478218191914
306,1436166248596,42.3404082347332
307,1436166249270,46.8192966027147
308,1436166250010,43.5063935326511
309,1436166250738,37.6557052993778
310,1436166251470,41.8413307761288
311,1436166252192,50.7959280891255
312,1436166252929,40.4896719377241
313,1436166253661,62.9548632519989
314,1436166254391,41.5359139485408
315,1436166255056,46.0344377623753
316,1436166255713,43.213981205644
317,1436166256392,36.3987572107252
318,1436166257122,44.5814494256017
319,1436166257850,47.8831858519649
320,1436166258547,42.8425838405537
321,1436166259271,30.8081244313017
322,1436166260000,22.9897184617188
323,1436166260734,38.9736994233712
324,1436166261462,41.4564763232656
325,1436166262191,53.4866348722877
326,1436166262909,37.387832803484
327,1436166263642,31.7899348691298
328,1436166264365,27.5056889575461
329,1436166265079,27.0064292711575
330,1436166265799,39.2066823210925
331,1436166267539,43.8611917501989
332,1436166268283,28.2390753972094
333,1436166268884,45.8835933241512
334,1436166269629,34.2818155366697
335,1436166270372,35.8316740553719
336,1436166271185,47.0459990564866
337,1436166271907,40.5888363202273
338,1436166272626,23.4350107644302
339,1436166273369,26.1846321351082
340,1436166274136,40.5634065481594
341,1436166274827,38.4531186538234
342,1436166275486,39.4532180569905
343,1436166276223,40.6460946324006
344,1436166276945,33.0997540433232
345,1436166277702,13.8603190373428
346,1436166278465,55.0805127289405
347,1436166279190,44.6396612502745
348,1436166279912,42.6356729477784
349,1436166280646,40.2022150752037
350,1436166281374,30.4004500755713
351,1436166282107,29.5684551379716
352,1436166282832,40.9584958053346
353,1436166283557,51.4038451723283
354,1436166284279,38.0513257091814
355,1436166284993,46.9170868268827
356,1436166285676,43.254671581543
357,1436166286424,25.2753471450693
358,1436166287145,40.4743997741537
359,1436166287878,53.8860546932501
360,1436166288609,37.5651712389613
361,1436166289348,20.9115975634418
362,1436166290075,40.4446314440615
363,1436166290844,40.3075308250923
364,1436166291584,39.4437432811203
365,1436166292325,28.3401998281676
366,1436166293062,47.42922945769
367,1436166293786,48.7252559001769
368,1436166294508,39.6559990499265
369,1436166295232,57.8109119331872
370,1436166295900,36.8341816206506
371,1436166296582,52.7570082396894
372,1436166298006,43.2855902752945
373,1436166298702,39.6639438142706
374,1436166299388,28.294002806167
375,1436166300108,31.4276641825291
376,1436166300837,46.0997922295826
377,1436166301614,48.0486152928398
378,1436166302286,31.6971876492091
379,1436166303011,47.0016863134889
380,1436166303735,27.5521042969653
381,1436166304467,41.3923395591425
382,1436166305188,17.0900956680441
383,1436166305905,42.6818754174816
384,1436166306649,35.6032291273548
385,1436166307382,37.4149307729179
386,1436166308111,35.2329762220191
387,1436166308867,24.2289849910996
388,1436166309592,46.8588337978032
389,1436166310319,34.3776025019679
390,1436166311053,28.5371209984532
391,1436166311777,44.7876956775237
392,1436166312511,47.1431814968784
393,1436166313212,54.0963060239565
394,1436166315087,45.9238487770136
395,1436166315780,44.6243407004666
396,1436166316394,54.4792933740048
397,1436166317090,32.9432541078221
398,1436166317795,23.8994584106103
399,1436166318526,25.4815690740703
400,1436166319299,36.5480783146962
401,1436166320016,33.6303930247097
402,1436166320750,40.4132789497716
403,1436166321481,41.7465937162881
404,1436166322169,41.1819702367167
405,1436166322887,49.7706318568512
406,1436166323627,35.7549775168833
407,1436166324420,56.1504106731663
408,1436166325172,30.0499575244716
409,1436166325899,36.9346830850375
410,1436166326537,38.9011786351323
411,1436166327207,32.7683786614774
412,1436166327916,42.5538004384709
413,1436166328650,22.4522749056438
414,1436166329416,24.1425682361384
415,1436166330064,46.8966350814067
416,1436166330735,47.3104899935176
417,1436166331403,43.5351321953975
418,1436166332135,49.8991176633471
419,1436166332865,35.7476280826346
420,1436166333591,32.1137251237518
421,1436166334414,42.4547204061018
422,1436166335138,32.6504057363945
423,1436166335862,40.2017745888302
424,1436166336588,33.7677952170741
425,1436166337351,22.8615490013495
426,1436166338079,34.147243165859
427,1436166338817,40.7617737737813
428,1436166339543,27.8181055360776
429,1436166340263,39.1536808136525
430,1436166340991,42.1817790904569
431,1436166341725,35.0995379724403
432,1436166342446,46.0538499506764
433,1436166343181,46.4363356319942
434,1436166343911,31.0588152266496
435,1436166344636,46.0508148738809
436,1436166345359,54.8672371060769
437,1436166346115,40.0763723599293
438,1436166346805,51.0231932750212
439,1436166347540,51.6999702604574
440,1436166348297,55.5983486898069
441,1436166349004,54.0578072488603
442,1436166349732,50.9709544328569
443,1436166350479,34.0061096996339
444,1436166351224,22.0169048331886
445,1436166351947,45.3059624256426
446,1436166352684,37.0325354534387
447,1436166353415,28.9969126655463
448,1436166354133,40.394418770664
449,1436166354869,25.7464507529989
450,1436166355608,20.2409749092373
451,1436166356317,23.9095016009106
452,1436166357095,31.2767447156018
453,1436166357769,36.1325899627881
454,1436166358490,35.5989308261663
455,1436166359215,38.8032959594436
456,1436166359890,41.5802493734992
457,1436166360652,43.810223997617
458,1436166361297,41.5085533847176
459,1436166362002,32.9319093829007
460,1436166362733,47.4895824690619
461,1436166363479,25.3545900077641
462,1436166364221,46.5365829153667
463,1436166364947,39.2397180672367
464,1436166365676,48.0810433831176
465,1436166366396,44.5585556280262
466,1436166367118,36.4300812985127
467,1436166367785,30.9963559024841
468,1436166368517,34.8738214633415
469,1436166369260,43.6143944935305
470,1436166369961,38.2740795853355
471,1436166370688,43.6905606434307
472,1436166371416,42.4563615755026
473,1436166372093,42.2360928408575
474,1436166372832,43.1433477359793
475,1436166373553,53.3914937034917
476,1436166374284,47.7763211086093
477,1436166375092,46.4430394313391
478,1436166375826,36.7359555028188
479,1436166376575,42.4778348970519
480,1436166377212,22.2478197228929
481,1436166377917,45.6222445356423
482,1436166378659,23.4994449401373
483,1436166379397,49.6444137749697
484,1436166380110,49.7819099965332
485,1436166380709,33.5277272236109
486,1436166381407,34.8415353269379
487,1436166382107,48.1982830024178
488,1436166382794,52.2846803010173
489,1436166383520,38.8689707533267
490,1436166384262,45.0787591635587
491,1436166384996,54.3140703790977
492,1436166385721,39.0606600513459
493,1436166386454,61.4192436485152
494,1436166387147,42.6491153104763
495,1436166387799,44.8629949617185
496,1436166388522,44.3181270207968
497,1436166389302,43.8254693468459
498,1436166390046,43.4838204729508
499,1436166390757,43.2406682875273
500,1436166391509,37.6649408851286
501,1436166392217,38.9934140592137
502,1436166392945,33.8977887890407
503,1436166393679,25.23359735669
504,1436166394490,26.6110776564393
505,1436166395226,47.5017127044137
506,1436166395966,42.5684863674484
507,1436166396708,49.0780983642715
508,1436166397446,41.6586601250444
509,1436166398117,34.8431017586615
510,1436166398792,40.3552666594026
511,1436166399508,53.2776398053031
512,1436166400265,47.5862273862005
513,1436166400977,48.4881470714051
514,1436166401748,42.5818118405842
515,1436166402468,35.8183661152049
516,1436166403188,31.3439815053749
517,1436166403962,53.3312802173409
518,1436166404701,30.6144447675157
519,1436166405442,45.9594277578861
520,1436166406193,44.9595098547
521,1436166406953,26.3526315833873
522,1436166407673,43.3227957722595
523,1436166408335,40.2892316542246
524,1436166408981,39.1190881065889
525,1436166409715,45.9110040805199
526,1436166410519,46.0085434580409
527,1436166411232,29.1728088738754
528,1436166411876,56.413466593397
529,1436166412617,57.1829151745031
530,1436166413342,47.1466761069971
531,1436166414075,41.0353723938489
532,1436166414825,30.8748622268407
533,1436166415548,36.545422140109
534,1436166416275,41.8639092952211
535,1436166416994,23.0306658782387
536,1436166417702,39.8554349605892
537,1436166418416,20.8591493675763
538,1436166419050,34.246963893261
539,1436166419773,39.53807252827
540,1436166420508,39.0962537119283
541,1436166421268,41.9668205605849
542,1436166421976,23.9182840337886
543,1436166422770,40.3074176229639
544,1436166423564,45.5415170788236
545,1436166424226,53.1254571552776
546,1436166424961,48.7879793340955
547,1436166425701,40.118140901499
548,1436166426435,28.1054521404161
549,1436166427177,22.4277245454845
550,1436166427902,48.6050944479592
551,1436166428600,50.3063070714285
552,1436166429272,34.3201298673572
553,1436166429994,31.9355769594428
554,1436166430746,46.9776565871118
555,1436166431508,45.8195750953882
556,1436166432242,50.8182143027102
557,1436166432976,49.5265612204637
558,1436166433709,44.6606586869908
559,1436166434457,45.5221632810387
560,1436166435255,33.0612376826076
561,1436166435992,44.3075845629272
562,1436166436731,43.6411962488614
563,1436166437457,26.6940286619933
564,1436166438142,40.5402462324355
565,1436166438804,39.4070338101367
566,1436166439608,52.9437166767853
567,1436166440345,38.0849326895087
568,1436166441089,38.1385644904139
569,1436166441798,18.9718662907243
570,1436166442548,46.546029450943
571,1436166443267,46.5572075869391
572,1436166443946,39.268142600089
573,1436166444661,48.8573707394845
574,1436166445398,29.0008429077997
575,1436166446126,16.3405953783664
