id,attr_time,attr_x,attr_y,attr_z
1,1436167051116,-11.01,-41.127,-16.174
2,1436167051137,-11.01,-41.127,-16.174
3,1436167051158,-11.01,-41.127,-16.174
4,1436167051178,-11.01,-41.127,-16.174
5,1436167051196,-11.01,-41.127,-16.174
6,1436167051220,-11.01,-41.127,-16.174
7,1436167051242,-11.01,-41.127,-16.174
8,1436167051256,-11.01,-41.127,-16.174
9,1436167051279,-11.01,-41.127,-16.174
10,1436167051296,-11.01,-41.127,-16.174
11,1436167051319,-11.01,-41.127,-16.174
12,1436167051339,-11.01,-41.127,-16.174
13,1436167051360,-11.01,-41.127,-16.174
14,1436167051380,-11.01,-41.127,-16.174
15,1436167051399,-11.01,-41.127,-16.174
16,1436167051419,-11.01,-41.127,-16.174
17,1436167051439,-11.01,-41.127,-16.174
18,1436167051459,-11.01,-41.127,-16.174
19,1436167051478,-11.01,-41.127,-16.174
20,1436167051499,-11.01,-41.127,-16.174
21,1436167051520,-11.01,-41.127,-16.174
22,1436167051540,-11.01,-41.127,-16.174
23,1436167051560,-11.01,-41.127,-16.174
24,1436167051579,-11.01,-41.127,-16.174
25,1436167051599,-11.01,-41.127,-16.174
26,1436167051619,-11.01,-41.127,-16.174
27,1436167051640,-11.01,-41.127,-16.174
28,1436167051660,-11.01,-41.127,-16.174
29,1436167051680,-11.01,-41.127,-16.174
30,1436167051698,-11.01,-41.127,-16.493
31,1436167051718,-11.01,-41.127,-16.493
32,1436167051737,-11.01,-41.127,-16.493
33,1436167051758,-11.01,-41.127,-16.493
34,1436167051801,-11.01,-41.127,-16.493
35,1436167051802,-11.01,-41.127,-16.493
36,1436167051826,-11.01,-41.127,-16.493
37,1436167051837,-11.01,-41.127,-16.493
38,1436167051860,-11.01,-41.127,-16.493
39,1436167051877,-11.01,-41.127,-16.493
40,1436167051897,-11.01,-41.127,-16.493
41,1436167051919,-11.01,-41.127,-16.493
42,1436167051942,-11.01,-41.127,-16.493
43,1436167051960,-11.01,-41.127,-16.493
44,1436167051978,-11.01,-41.127,-16.493
45,1436167052000,-11.01,-41.127,-16.493
46,1436167052020,-11.01,-41.127,-16.493
47,1436167052039,-11.01,-41.127,-16.493
48,1436167052060,-11.01,-41.127,-16.493
49,1436167052080,-11.01,-41.127,-16.493
50,1436167052100,-11.01,-41.127,-16.493
51,1436167052120,-11.01,-41.127,-16.163
52,1436167052140,-11.01,-41.127,-16.163
53,1436167052160,-11.01,-41.127,-16.163
54,1436167052180,-11.01,-41.127,-16.163
55,1436167052197,-11.01,-41.127,-16.163
56,1436167052220,-11.01,-41.127,-16.163
57,1436167052240,-11.01,-41.127,-16.163
58,1436167052261,-11.01,-41.127,-16.163
59,1436167052280,-11.01,-41.127,-16.163
60,1436167052299,-11.01,-41.127,-16.163
61,1436167052320,-11.01,-41.127,-16.163
62,1436167052340,-11.01,-41.127,-16.163
63,1436167052360,-11.01,-41.127,-16.163
64,1436167052380,-11.01,-41.127,-16.163
65,1436167052401,-11.01,-41.127,-16.163
66,1436167052417,-11.322,-41.127,-15.846
67,1436167052439,-11.322,-41.127,-15.846
68,1436167052459,-11.322,-41.127,-15.846
69,1436167052522,-11.322,-41.127,-15.846
70,1436167052523,-11.322,-41.127,-15.846
71,1436167052524,-11.322,-41.127,-15.846
72,1436167052548,-11.322,-41.127,-15.846
73,1436167052557,-11.322,-41.127,-15.846
74,1436167052577,-11.322,-41.127,-15.846
75,1436167052598,-11.322,-41.127,-15.846
76,1436167052617,-11.322,-41.432,-15.846
77,1436167052638,-11.627,-41.432,-15.846
78,1436167052657,-11.627,-41.432,-15.505
79,1436167052681,-11.627,-41.432,-15.505
80,1436167052702,-11.627,-41.432,-15.505
81,1436167052718,-11.627,-41.432,-15.505
82,1436167052739,-11.627,-41.432,-15.505
83,1436167052761,-11.627,-41.432,-15.505
84,1436167052781,-11.627,-41.432,-15.505
85,1436167052801,-11.627,-41.432,-15.505
86,1436167052821,-11.627,-41.432,-15.505
87,1436167052841,-11.627,-41.432,-15.505
88,1436167052861,-11.627,-41.432,-15.505
89,1436167052881,-11.627,-41.432,-15.505
90,1436167052901,-11.627,-41.432,-15.505
91,1436167052921,-11.627,-41.432,-15.505
92,1436167052943,-11.627,-41.432,-15.505
93,1436167052961,-11.627,-41.432,-15.505
94,1436167052981,-11.627,-41.432,-15.505
95,1436167053001,-11.627,-41.432,-15.505
96,1436167053021,-11.627,-41.432,-15.505
97,1436167053039,-11.627,-41.432,-15.505
98,1436167053060,-11.627,-41.432,-15.505
99,1436167053081,-11.627,-41.432,-15.505
100,1436167053101,-11.627,-41.432,-15.505
101,1436167053122,-11.627,-41.432,-15.505
102,1436167053138,-11.627,-41.432,-15.505
103,1436167053158,-11.627,-41.432,-15.505
104,1436167053178,-11.627,-41.432,-15.505
105,1436167053205,-11.627,-41.432,-15.505
106,1436167053270,-11.627,-41.432,-15.505
107,1436167053271,-11.627,-41.432,-15.505
108,1436167053272,-11.627,-41.432,-15.505
109,1436167053289,-11.627,-41.432,-15.505
110,1436167053298,-11.627,-41.432,-15.505
111,1436167053325,-11.627,-41.432,-15.505
112,1436167053338,-11.627,-41.432,-15.505
113,1436167053358,-11.627,-41.432,-15.505
114,1436167053379,-11.627,-41.432,-15.505
115,1436167053399,-11.627,-41.432,-15.505
116,1436167053419,-11.627,-41.432,-15.505
117,1436167053439,-11.627,-41.432,-15.505
118,1436167053462,-11.283,-41.432,-15.505
119,1436167053480,-11.283,-41.432,-15.505
120,1436167053500,-11.283,-41.432,-15.505
121,1436167053522,-10.934,-41.432,-15.505
122,1436167053542,-10.934,-41.432,-15.505
123,1436167053562,-10.615,-41.432,-15.505
124,1436167053582,-10.615,-41.432,-15.817
125,1436167053602,-9.997,-41.432,-15.817
126,1436167053621,-9.257,-41.432,-15.817
127,1436167053642,-8.866,-41.432,-15.817
128,1436167053660,-8.236,-41.432,-15.817
129,1436167053680,-7.708,-41.432,-16.168
130,1436167053698,-7.054,-41.432,-16.168
131,1436167053719,-6.64,-41.432,-16.168
132,1436167053739,-5.934,-41.432,-16.168
133,1436167053801,-5.934,-41.741,-16.514
134,1436167053802,-4.917,-41.741,-16.514
135,1436167053803,-4.264,-41.741,-16.514
136,1436167053821,-3.68,-41.741,-16.514
137,1436167053838,-2.795,-41.741,-16.867
138,1436167053859,-2.478,-41.741,-16.867
139,1436167053879,-2.478,-41.741,-16.867
140,1436167053899,-1.585,-41.741,-17.216
141,1436167053919,-1.153,-41.741,-17.216
142,1436167053967,-1.153,-41.741,-17.57
143,1436167053968,-0.578,-41.741,-18.089
144,1436167053984,-0.112,-41.741,-18.998
145,1436167054005,0.283,-41.741,-19.322
146,1436167054019,0.283,-41.741,-20.022
147,1436167054039,0.639,-41.741,-20.022
148,1436167054060,0.639,-41.741,-20.022
149,1436167054079,1.01,-41.741,-20.581
150,1436167054100,1.01,-41.741,-20.581
151,1436167054119,1.481,-41.407,-20.581
152,1436167054140,1.481,-41.407,-20.265
153,1436167054159,1.896,-41.407,-20.265
154,1436167054179,2.244,-41.407,-20.265
155,1436167054199,2.671,-41.407,-20.265
156,1436167054218,3.033,-41.407,-20.265
157,1436167054238,3.033,-41.094,-20.614
158,1436167054258,3.372,-41.094,-20.614
159,1436167054279,3.739,-41.094,-20.614
160,1436167054299,4.116,-41.094,-20.614
161,1436167054319,4.609,-41.094,-20.614
162,1436167054340,5.216,-41.094,-20.614
163,1436167054359,5.555,-41.094,-20.614
164,1436167054379,6.008,-41.094,-20.614
165,1436167054399,6.401,-41.094,-20.614
166,1436167054419,7.0,-41.094,-20.614
167,1436167054440,7.389,-41.094,-20.614
168,1436167054459,7.389,-41.094,-20.614
169,1436167054479,7.72,-41.094,-20.614
170,1436167054499,8.093,-41.094,-20.307
171,1436167054519,8.093,-41.094,-20.307
172,1436167054539,8.822,-41.094,-20.307
173,1436167054560,9.259,-41.094,-20.307
174,1436167054579,9.57,-41.094,-20.307
175,1436167054599,10.212,-41.094,-20.307
176,1436167054620,10.58,-41.094,-20.307
177,1436167054639,10.92,-40.782,-20.307
178,1436167054674,11.463,-40.782,-20.307
179,1436167054679,12.034,-40.782,-20.307
180,1436167054698,12.034,-40.782,-20.307
181,1436167054719,12.451,-40.782,-20.307
182,1436167054743,12.773,-40.782,-19.943
183,1436167054764,12.773,-40.782,-19.943
184,1436167054780,13.404,-40.782,-19.943
185,1436167054799,13.404,-40.464,-19.943
186,1436167054824,13.404,-40.464,-19.618
187,1436167054840,13.8,-40.464,-19.618
188,1436167054863,13.8,-40.464,-19.618
189,1436167054879,13.8,-40.464,-19.305
190,1436167054902,13.8,-40.464,-19.305
191,1436167054922,13.8,-40.464,-19.305
192,1436167054941,13.8,-40.464,-18.89
193,1436167054960,13.8,-40.464,-18.89
194,1436167054984,13.8,-40.464,-18.579
195,1436167055002,14.1,-40.464,-18.579
196,1436167055021,14.1,-40.464,-18.579
197,1436167055040,14.5,-40.464,-18.243
198,1436167055062,14.5,-40.464,-18.243
199,1436167055084,14.802,-40.464,-18.243
200,1436167055103,14.802,-40.464,-18.243
201,1436167055122,14.802,-40.464,-18.243
202,1436167055141,15.122,-40.464,-18.243
203,1436167055161,15.122,-40.464,-18.243
204,1436167055182,15.122,-40.13,-18.707
205,1436167055201,15.122,-40.13,-19.273
206,1436167055223,15.122,-40.13,-19.273
207,1436167055242,15.122,-40.13,-19.273
208,1436167055261,15.122,-40.13,-19.273
209,1436167055290,15.122,-40.13,-19.273
210,1436167055347,15.122,-40.13,-19.273
211,1436167055348,15.122,-40.13,-19.273
212,1436167055349,15.122,-40.13,-19.273
213,1436167055366,14.778,-39.823,-19.598
214,1436167055381,14.778,-39.823,-19.598
215,1436167055401,14.778,-39.823,-19.598
216,1436167055420,14.778,-39.823,-19.598
217,1436167055445,14.472,-39.823,-19.598
218,1436167055463,14.472,-39.823,-19.598
219,1436167055480,14.472,-39.823,-19.598
220,1436167055500,14.472,-39.823,-19.598
221,1436167055523,14.472,-39.823,-19.598
222,1436167055541,14.472,-39.823,-19.598
223,1436167055560,14.472,-39.823,-19.598
224,1436167055583,14.472,-39.823,-19.598
225,1436167055602,14.472,-39.823,-19.194
226,1436167055623,14.472,-39.823,-19.194
227,1436167055645,14.472,-39.823,-19.194
228,1436167055663,14.874,-40.133,-18.85
229,1436167055684,14.874,-40.133,-18.85
230,1436167055704,15.203,-40.133,-18.85
231,1436167055723,15.203,-40.133,-18.85
232,1436167055744,15.612,-40.133,-18.457
233,1436167055765,15.612,-40.133,-18.457
234,1436167055781,16.223,-40.133,-18.457
235,1436167055804,16.601,-40.133,-18.113
236,1436167055825,17.053,-40.133,-18.113
237,1436167055845,17.053,-40.133,-18.113
238,1436167055864,17.518,-40.133,-17.724
239,1436167055884,17.518,-40.133,-17.724
240,1436167055903,17.964,-40.133,-16.897
241,1436167055922,17.964,-40.133,-16.528
242,1436167055942,17.964,-40.133,-16.056
243,1436167055965,18.35,-40.133,-16.056
244,1436167055986,18.35,-40.133,-15.626
245,1436167056005,18.35,-40.133,-15.626
246,1436167056024,18.35,-40.133,-15.626
247,1436167056045,18.833,-40.133,-15.626
248,1436167056111,18.833,-40.133,-15.626
249,1436167056112,19.261,-40.133,-15.626
250,1436167056113,19.261,-40.133,-15.626
251,1436167056121,19.677,-39.793,-15.217
252,1436167056147,19.677,-39.793,-15.217
253,1436167056163,20.059,-39.793,-15.217
254,1436167056182,20.059,-39.793,-15.217
255,1436167056204,20.37,-39.793,-15.217
256,1436167056221,20.37,-39.447,-15.217
257,1436167056243,20.37,-39.447,-15.217
258,1436167056261,20.37,-39.447,-15.217
259,1436167056285,20.715,-39.447,-15.217
260,1436167056301,20.715,-39.447,-15.217
261,1436167056324,20.715,-39.447,-15.217
262,1436167056343,20.715,-39.447,-15.217
263,1436167056364,20.715,-39.132,-15.217
264,1436167056385,20.715,-39.132,-15.217
265,1436167056404,20.715,-39.132,-15.545
266,1436167056424,20.715,-39.132,-15.545
267,1436167056446,20.715,-39.132,-15.545
268,1436167056464,20.715,-39.132,-15.545
269,1436167056504,20.715,-39.132,-15.545
270,1436167056505,20.715,-39.132,-15.545
271,1436167056525,20.317,-39.132,-15.545
272,1436167056546,20.317,-39.437,-14.703
273,1436167056564,20.317,-39.437,-14.054
274,1436167056584,19.972,-39.437,-14.054
275,1436167056605,19.972,-39.437,-14.054
276,1436167056624,19.972,-39.805,-14.054
277,1436167056645,19.972,-39.805,-14.054
278,1436167056664,19.972,-39.805,-14.054
279,1436167056684,19.972,-39.805,-14.054
280,1436167056706,19.67,-39.805,-14.054
281,1436167056725,19.67,-39.805,-13.652
282,1436167056744,19.67,-40.127,-13.652
283,1436167056766,19.67,-40.127,-13.652
284,1436167056819,19.67,-40.127,-13.258
285,1436167056820,19.67,-40.127,-13.258
286,1436167056821,19.67,-40.127,-13.258
287,1436167056841,19.67,-40.127,-13.258
288,1436167056865,19.67,-40.127,-12.861
289,1436167056883,19.67,-40.127,-12.861
290,1436167056902,20.025,-40.127,-12.861
291,1436167056924,20.025,-40.127,-12.861
292,1436167056942,20.025,-40.127,-12.861
293,1436167056967,20.025,-40.127,-12.861
294,1436167056987,20.359,-40.127,-12.861
295,1436167057002,20.359,-40.127,-12.861
296,1436167057029,20.359,-40.127,-12.861
297,1436167057043,20.359,-40.127,-12.544
298,1436167057064,20.671,-40.127,-12.544
299,1436167057085,20.671,-40.127,-12.544
300,1436167057105,20.671,-40.127,-12.544
301,1436167057125,21.099,-40.127,-12.544
302,1436167057145,21.099,-40.127,-12.544
303,1436167057162,21.461,-39.793,-12.544
304,1436167057185,21.461,-39.793,-12.544
305,1436167057207,21.461,-39.793,-12.544
306,1436167057222,21.823,-39.793,-12.544
307,1436167057245,21.823,-39.793,-12.544
308,1436167057265,21.823,-39.793,-12.544
309,1436167057285,21.823,-39.442,-12.544
310,1436167057305,22.227,-39.442,-12.544
311,1436167057325,22.227,-39.442,-12.544
312,1436167057345,22.227,-39.442,-13.052
313,1436167057365,22.227,-39.442,-13.496
314,1436167057385,22.227,-39.138,-13.847
315,1436167057406,22.227,-39.138,-13.847
316,1436167057426,22.227,-39.138,-13.847
317,1436167057446,22.227,-39.138,-13.847
318,1436167057465,22.227,-39.138,-13.847
319,1436167057585,22.227,-39.138,-13.847
320,1436167057586,22.227,-39.138,-13.847
321,1436167057587,22.227,-39.138,-13.847
322,1436167057588,21.894,-39.138,-13.847
323,1436167057589,21.894,-39.138,-13.847
324,1436167057590,21.894,-39.138,-13.847
325,1436167057647,21.589,-39.138,-13.847
326,1436167057648,21.589,-39.138,-13.372
327,1436167057649,21.589,-39.138,-13.372
328,1436167057662,21.589,-39.491,-13.072
329,1436167057847,21.235,-39.491,-13.072
330,1436167057848,21.235,-39.491,-13.072
331,1436167057849,20.863,-39.491,-13.072
332,1436167057850,20.863,-39.491,-13.072
333,1436167057851,20.863,-39.819,-13.072
334,1436167057852,20.863,-39.819,-12.721
335,1436167057853,20.863,-39.819,-12.721
336,1436167057854,20.863,-39.819,-12.361
337,1436167057855,20.863,-39.819,-12.361
338,1436167057887,20.863,-39.819,-12.014
339,1436167057888,20.863,-39.819,-12.014
340,1436167057905,20.863,-39.819,-12.014
341,1436167057926,20.863,-39.819,-11.64
342,1436167057946,21.29,-39.819,-11.64
343,1436167057966,21.29,-39.819,-11.64
344,1436167057988,21.29,-39.819,-11.294
345,1436167058004,21.29,-39.819,-11.294
346,1436167058025,21.667,-39.819,-11.294
347,1436167058045,21.667,-39.819,-10.617
348,1436167058064,21.667,-39.819,-10.264
349,1436167058094,21.667,-39.819,-9.803
350,1436167058103,22.062,-39.819,-9.403
351,1436167058123,22.062,-39.819,-9.017
352,1436167058142,22.062,-39.819,-8.384
353,1436167058166,22.366,-39.819,-8.384
354,1436167058186,22.366,-39.819,-7.716
355,1436167058206,22.366,-39.819,-7.716
356,1436167058226,22.366,-39.819,-7.716
357,1436167058245,22.763,-39.819,-7.365
358,1436167058265,22.763,-39.819,-7.365
359,1436167058330,22.763,-39.819,-7.365
360,1436167058331,23.075,-39.819,-7.365
361,1436167058332,23.075,-39.819,-7.365
362,1436167058343,23.075,-39.819,-7.365
363,1436167058366,23.075,-39.819,-7.365
364,1436167058385,23.075,-39.819,-7.365
365,1436167058405,23.075,-39.819,-7.365
366,1436167058426,23.075,-39.819,-7.365
367,1436167058444,23.075,-39.819,-7.365
368,1436167058465,23.075,-39.819,-7.365
369,1436167058485,23.075,-39.819,-7.676
370,1436167058506,23.075,-39.819,-7.676
371,1436167058523,23.075,-39.819,-7.676
372,1436167058546,23.075,-39.819,-8.045
373,1436167058568,23.075,-39.819,-8.045
374,1436167058586,23.075,-39.819,-8.045
375,1436167058606,23.075,-39.819,-8.045
376,1436167058626,22.767,-39.819,-8.045
377,1436167058646,22.767,-39.819,-8.389
378,1436167058666,22.767,-39.819,-8.389
379,1436167058686,22.445,-39.819,-8.389
380,1436167058705,22.445,-39.819,-8.389
381,1436167058726,22.445,-39.819,-8.703
382,1436167058746,22.445,-39.819,-8.703
383,1436167058767,22.073,-39.819,-8.703
384,1436167058786,22.073,-40.135,-8.703
385,1436167058807,22.073,-40.135,-8.703
386,1436167058827,22.073,-40.135,-8.703
387,1436167058846,22.073,-40.135,-8.703
388,1436167058867,22.073,-40.135,-8.703
389,1436167058887,22.073,-40.135,-8.703
390,1436167058906,22.073,-40.135,-8.703
391,1436167058926,22.384,-40.135,-8.703
392,1436167058945,22.384,-40.135,-8.703
393,1436167058972,22.384,-40.135,-8.372
394,1436167059043,22.384,-40.135,-8.372
395,1436167059044,22.384,-40.135,-8.372
396,1436167059045,22.384,-40.135,-8.068
397,1436167059046,22.708,-40.135,-8.068
398,1436167059064,22.708,-40.135,-7.582
399,1436167059084,22.708,-40.135,-7.582
400,1436167059104,22.708,-40.135,-7.24
401,1436167059125,22.708,-40.135,-6.666
402,1436167059144,23.045,-40.135,-6.666
403,1436167059165,23.045,-40.135,-6.666
404,1436167059191,23.045,-40.135,-6.327
405,1436167059206,23.045,-40.135,-6.327
406,1436167059227,23.045,-40.135,-6.327
407,1436167059247,23.045,-40.135,-6.327
408,1436167059267,23.045,-40.135,-6.327
409,1436167059287,23.045,-40.135,-5.92
410,1436167059307,23.045,-40.135,-5.92
411,1436167059327,23.045,-40.135,-5.574
412,1436167059347,23.045,-40.135,-5.574
413,1436167059367,23.045,-40.135,-5.574
414,1436167059387,23.045,-40.135,-5.574
415,1436167059407,23.045,-39.833,-5.574
416,1436167059425,23.406,-39.833,-5.574
417,1436167059447,23.406,-39.833,-5.574
418,1436167059467,23.406,-39.833,-5.574
419,1436167059487,23.406,-39.833,-5.574
420,1436167059507,23.406,-39.833,-6.288
421,1436167059527,23.406,-39.833,-6.747
422,1436167059547,23.406,-39.833,-7.095
423,1436167059568,23.406,-39.833,-7.095
424,1436167059588,23.406,-39.833,-7.431
425,1436167059607,23.406,-39.833,-7.431
426,1436167059628,23.406,-39.833,-7.431
427,1436167059646,23.406,-39.833,-7.431
428,1436167059666,23.406,-39.833,-7.431
429,1436167059691,23.406,-39.833,-7.431
430,1436167059773,23.406,-39.833,-7.431
431,1436167059774,23.406,-39.833,-7.431
432,1436167059775,23.046,-39.833,-7.431
433,1436167059776,23.046,-39.833,-7.431
434,1436167059786,23.046,-39.833,-7.431
435,1436167059805,22.717,-39.833,-7.431
436,1436167059825,22.717,-39.833,-7.431
437,1436167059845,22.717,-40.177,-7.431
438,1436167059873,22.717,-40.177,-7.431
439,1436167059892,22.717,-40.177,-7.431
440,1436167059905,22.717,-40.177,-7.431
441,1436167059947,22.717,-40.177,-7.431
442,1436167059950,22.717,-40.177,-7.431
443,1436167059969,22.717,-40.177,-7.431
444,1436167059988,22.717,-40.177,-7.431
445,1436167060008,22.37,-40.177,-7.104
446,1436167060026,22.37,-40.177,-7.104
447,1436167060048,22.37,-40.177,-7.104
448,1436167060068,22.37,-40.177,-6.799
449,1436167060088,22.37,-40.177,-6.799
450,1436167060108,22.37,-40.177,-6.799
451,1436167060128,22.37,-40.177,-6.799
452,1436167060146,22.715,-40.177,-6.451
453,1436167060168,22.715,-40.177,-6.451
454,1436167060188,22.715,-40.177,-6.451
455,1436167060206,22.715,-40.177,-6.451
456,1436167060226,22.715,-40.177,-6.12
457,1436167060247,22.715,-40.177,-6.12
458,1436167060269,22.715,-40.177,-6.12
459,1436167060290,22.715,-40.177,-5.711
460,1436167060310,22.715,-40.177,-5.711
461,1436167060328,22.715,-40.177,-5.711
462,1436167060345,22.715,-40.177,-5.397
463,1436167060365,22.715,-40.177,-5.397
464,1436167060387,22.715,-40.177,-5.397
465,1436167060470,22.715,-40.177,-5.397
466,1436167060471,23.057,-40.177,-5.397
467,1436167060472,23.057,-40.177,-5.039
468,1436167060473,23.057,-40.177,-5.039
469,1436167060486,23.057,-40.177,-5.039
470,1436167060505,23.057,-40.177,-5.039
471,1436167060525,23.384,-40.177,-5.039
472,1436167060545,23.384,-39.868,-5.039
473,1436167060566,23.384,-39.868,-5.039
474,1436167060585,23.384,-39.868,-5.039
475,1436167060605,23.384,-39.868,-5.039
476,1436167060628,23.384,-39.868,-5.435
477,1436167060650,23.384,-39.868,-5.435
478,1436167060666,23.384,-39.868,-5.435
479,1436167060689,23.384,-39.868,-5.435
480,1436167060706,23.384,-39.868,-5.435
481,1436167060728,23.384,-39.868,-5.435
482,1436167060748,23.384,-39.868,-5.435
483,1436167060768,23.384,-39.868,-5.744
484,1436167060789,23.384,-39.868,-5.744
485,1436167060809,23.384,-39.868,-5.744
486,1436167060829,23.384,-39.868,-5.744
487,1436167060849,23.384,-39.868,-5.744
488,1436167060869,23.384,-39.868,-5.744
489,1436167060887,23.384,-39.868,-5.744
490,1436167060909,23.384,-39.868,-5.744
491,1436167060929,23.384,-39.868,-5.744
492,1436167060947,23.384,-39.868,-5.744
493,1436167060966,23.384,-40.177,-6.05
494,1436167060987,23.083,-40.177,-6.05
