id,attr_time,attr_db
1,1436898151124,27.9157415736346
2,1436898151579,32.1285781724892
3,1436898152065,37.8832401730874
4,1436898152583,27.2674020005145
5,1436898153066,21.9907155035715
6,1436898153574,24.3069404408055
7,1436898154082,21.0183644242265
8,1436898154511,34.1704870223048
9,1436898155984,31.6831291377455
10,1436898156412,49.9912776213293
11,1436898156898,38.897357956295
12,1436898157421,41.2227377448203
13,1436898157903,40.8956678642416
14,1436898158392,29.0763909696232
15,1436898158855,31.2290421727713
16,1436898159308,34.5471884568153
17,1436898159756,72.4928394971667
18,1436898160222,70.0938115509559
19,1436898160760,68.7738336552104
20,1436898161246,39.1473987348941
21,1436898161674,35.4506121019794
22,1436898162092,68.2180551289688
23,1436898162582,40.5149720841333
24,1436898163076,42.8681076608727
25,1436898163577,33.534198396285
26,1436898164083,31.1302571983018
27,1436898164584,30.4305608228099
28,1436898165073,39.7302407070231
29,1436898165555,53.0095022265691
30,1436898166034,53.3497235259283
31,1436898166534,56.7176683392238
32,1436898167091,52.4364357543056
33,1436898167581,36.7577801447821
34,1436898168083,63.3421974707427
35,1436898168549,70.022537721746
36,1436898168938,47.9503249156051
37,1436898170086,70.9254081899948
38,1436898170612,69.0384051719836
39,1436898171100,68.2448589906076
40,1436898171580,32.8019495842129
41,1436898171962,44.8533792632259
42,1436898172402,40.0205967491469
43,1436898172856,72.2627597425316
44,1436898173352,69.8485482283016
45,1436898173852,69.9575571751003
46,1436898174383,41.5149994613477
47,1436898174866,68.2230849964599
48,1436898175331,42.4162570294134
49,1436898175737,44.3719950112363
50,1436898176190,59.3483558702074
51,1436898176693,46.2743370106214
52,1436898177197,54.7155380032684
53,1436898177680,50.967668880579
54,1436898178171,40.7335249248528
55,1436898178679,50.1743810854595
56,1436898179173,35.0841393855016
57,1436898179661,51.5908899910929
58,1436898180068,37.7035831643659
59,1436898180529,38.1836995234621
60,1436898180976,57.2504933425991
61,1436898181515,44.2847494397574
62,1436898181998,53.0362590922839
63,1436898182514,42.199478053832
64,1436898182976,52.4615619223055
65,1436898183490,46.4681153992463
66,1436898183969,45.8952108112484
67,1436898184496,38.175100452638
68,1436898184967,38.4185634406652
69,1436898185420,47.5502575768768
70,1436898185954,51.953222615448
71,1436898186457,44.5311774687214
72,1436898186965,44.6496490666282
73,1436898187445,39.7072824453581
74,1436898187978,47.0393351931725
75,1436898188455,38.0444744217013
76,1436898188946,36.0969877427571
77,1436898189445,35.5572050951411
78,1436898189937,33.6406399316233
79,1436898190355,30.9104728701001
80,1436898190809,36.9689148665284
81,1436898191300,35.0610337941267
82,1436898191776,38.4476735780086
83,1436898193419,39.9616073651701
84,1436898193809,37.2556016631992
85,1436898194232,34.3445939186289
86,1436898194723,35.5464022309501
87,1436898195109,35.1597759264182
88,1436898195530,33.2403056316981
89,1436898196016,42.6350693504147
90,1436898196512,45.0221172194906
91,1436898197024,39.7618323456209
92,1436898197495,35.7287099765528
93,1436898197947,31.2149762874648
94,1436898198397,33.143667252544
95,1436898198892,36.1608119687038
96,1436898199355,35.7847955755174
97,1436898199852,34.6611712732039
98,1436898200353,30.9074112136247
99,1436898200885,35.1465222144203
100,1436898201337,41.0226760477055
101,1436898201785,38.459475990185
102,1436898202272,31.3038291279396
103,1436898202737,34.7313512659832
104,1436898203092,42.3634436713835
105,1436898203522,38.944776823028
106,1436898204041,45.1623064752525
107,1436898204566,38.9549903501327
108,1436898204976,35.2583267124681
109,1436898206119,47.3556274658787
110,1436898206530,44.0429143352793
111,1436898206981,49.3505993783275
112,1436898207463,42.8904842247346
113,1436898207965,37.2477292944072
114,1436898208466,42.7959581340253
115,1436898208962,35.1820275224581
116,1436898209471,39.0961650173396
117,1436898209990,39.1499345352428
118,1436898210489,38.7885927812158
119,1436898210964,44.3647569762206
120,1436898211411,54.4303695152764
121,1436898211825,41.465930181532
122,1436898212287,39.9394328488628
123,1436898212779,44.2109785182336
124,1436898213265,39.0875611883545
125,1436898213757,50.6511595889035
126,1436898214242,45.4404416997155
127,1436898214776,38.285991775697
128,1436898215266,45.5708799753042
129,1436898215716,53.4240458903329
130,1436898216194,42.2591031712973
131,1436898216691,53.8044951011174
132,1436898217166,43.5692786804291
133,1436898217651,48.8558758650312
134,1436898218155,60.2042577388541
135,1436898218545,51.6563061830207
136,1436898218968,45.7958052661548
137,1436898219427,44.3604780348196
138,1436898219912,54.1031982438173
139,1436898220441,52.5941109511459
140,1436898220949,38.4673887071638
141,1436898221480,41.1344286985629
142,1436898221975,50.8995863965308
143,1436898222494,40.3306542074954
144,1436898222981,39.8591962029985
145,1436898223496,46.4383807154453
146,1436898224004,43.683216907999
147,1436898224511,37.1646994157284
148,1436898225019,36.273370888438
149,1436898225507,43.0365622067007
150,1436898225977,42.1696275141941
151,1436898226507,36.9618075766298
152,1436898226943,35.4582418784907
153,1436898227331,32.5490658719858
154,1436898227784,35.0019149321918
155,1436898228291,33.5740962667479
156,1436898228785,33.0429773353565
157,1436898229250,43.118492030425
158,1436898229739,31.4218554212383
159,1436898230130,34.2423488313408
160,1436898230623,37.3451016376905
161,1436898231104,36.0667153425144
162,1436898231632,40.1123253890409
163,1436898232140,38.0414933710449
164,1436898232635,37.8754962524001
165,1436898233139,31.5217075005712
166,1436898233633,37.9615655693875
167,1436898234123,36.0079432320909
168,1436898234609,40.233212644219
169,1436898235115,40.3273247297295
170,1436898235605,31.978762769378
171,1436898236085,54.7143821438936
172,1436898236496,35.7117924904507
173,1436898236970,41.9191319547476
174,1436898237410,35.6142746613149
175,1436898237866,29.055838155914
176,1436898238361,28.8481150922505
177,1436898238838,32.975151264604
178,1436898239341,39.4442705827493
179,1436898239830,27.591119934577
180,1436898240377,45.1686326667655
181,1436898240862,28.1086413261523
182,1436898241343,51.2686605566464
183,1436898241796,31.1464079061674
184,1436898242239,36.2825780650552
185,1436898242717,42.0358103154841
186,1436898243127,55.1509116542818
187,1436898243560,31.4012577810913
188,1436898244053,37.7028963986151
189,1436898244545,46.8123473694951
190,1436898245067,43.1572251767781
191,1436898245553,37.1603758684628
192,1436898246030,30.0817248020625
193,1436898246537,35.6111212053639
194,1436898247025,51.6829059417666
195,1436898247496,46.5964721666733
196,1436898247898,34.5130714808426
197,1436898248417,66.9833777498295
198,1436898248897,32.9537431444634
199,1436898249382,46.500391686794
200,1436898249863,65.2171154617567
201,1436898250326,71.4780743823477
202,1436898250822,68.3180392570823
203,1436898251252,65.8541874536775
204,1436898251709,65.4560557785367
205,1436898252199,52.3582353986346
206,1436898252718,55.1033516792145
207,1436898253196,48.4447682301025
208,1436898253701,54.6134646159843
209,1436898254187,43.3995917079112
210,1436898254665,59.9939128062809
211,1436898255214,56.1919545718973
212,1436898255705,70.2216507591144
213,1436898256216,55.8982665238682
214,1436898256670,66.0085603617496
215,1436898257098,67.966519701974
216,1436898257541,41.6182835164327
217,1436898258004,42.318859525289
218,1436898258519,38.083258090445
219,1436898259024,40.2035128326537
220,1436898259524,38.7470075483112
221,1436898260033,46.2326000822762
222,1436898260574,41.9873746442074
223,1436898261010,42.9524742771605
224,1436898261484,38.2925268774055
225,1436898261970,34.7311063609347
226,1436898262450,38.8434260255374
227,1436898262924,41.5646243715305
228,1436898263422,37.8208268694437
229,1436898263915,41.1533440409405
230,1436898264421,40.1279132547859
231,1436898264917,43.9446946569916
232,1436898265416,49.2960513273645
233,1436898265983,39.8481378380468
234,1436898266476,42.564516153499
235,1436898266976,38.1792511260067
236,1436898267470,42.7683870441413
237,1436898267867,40.9833250018394
238,1436898268320,39.5187456918709
239,1436898268790,40.8543591293011
240,1436898269276,39.2976271154413
241,1436898269765,41.2561725808431
242,1436898270239,38.2868043348757
243,1436898270688,38.6488791546385
244,1436898271109,39.612184211281
245,1436898271517,43.1456870970899
246,1436898271990,40.7938880790183
247,1436898272492,50.5576780081821
248,1436898272983,46.7288063342589
249,1436898273500,60.3963332525101
250,1436898273990,39.1244153246339
251,1436898274512,41.6601105419399
252,1436898275013,41.4634258084763
253,1436898275514,38.5899681326217
254,1436898276004,38.7055541842639
255,1436898276449,36.1679175598737
256,1436898276833,36.374970142884
257,1436898277250,40.371340014197
258,1436898277721,35.1698767651475
259,1436898278162,39.3302500546828
260,1436898278579,35.8148445401627
261,1436898279072,70.252880916196
262,1436898279586,53.497821414792
263,1436898280065,66.0215293822874
264,1436898280599,58.9803496443548
265,1436898281003,70.6102629545416
266,1436898281491,34.6272205448496
267,1436898281999,32.1328866933645
268,1436898282501,45.3279924528454
269,1436898282987,57.8516326249265
270,1436898283479,57.5639255695598
271,1436898283974,36.1706796146367
272,1436898284461,54.4892204093962
273,1436898284954,56.9726273211363
274,1436898285466,26.6056893385212
275,1436898285964,53.2222624931073
276,1436898286456,24.204749509335
277,1436898287005,62.2143326984839
278,1436898287489,41.2717880635623
279,1436898287963,54.7263946708545
280,1436898288444,27.5011330388459
281,1436898288833,36.3713244668789
282,1436898289267,29.2510233116442
283,1436898289725,38.6614969531818
284,1436898290212,44.2014210110271
285,1436898290732,44.4231198777156
286,1436898291214,36.9334723723077
287,1436898291734,35.3822979964468
288,1436898292160,71.9143509499481
289,1436898292596,71.291112469092
290,1436898293090,75.2638890420688
291,1436898293587,67.8049090071937
292,1436898294087,49.631589432848
293,1436898294592,63.6447185617973
294,1436898295071,49.0929450876184
295,1436898295564,21.3447293391606
296,1436898296069,33.5683487206711
297,1436898296617,24.4439010797458
298,1436898297056,33.4845707154001
299,1436898297555,27.5777659594958
300,1436898298051,33.9001700213839
301,1436898298531,50.0301222512524
302,1436898298990,48.5897175811146
303,1436898299387,45.0898258917879
304,1436898299803,35.3626625304645
305,1436898300291,22.7238594017541
306,1436898300796,51.5552602689661
307,1436898301230,51.4751135555032
308,1436898301681,65.309678374271
309,1436898302140,35.0539231925942
310,1436898302634,72.1948979348165
311,1436898303112,61.1788004693329
312,1436898303624,31.8487488211929
313,1436898304114,75.5677575382454
314,1436898304624,42.6629569029006
315,1436898305125,54.0983329475272
316,1436898305621,42.8083108546727
317,1436898306103,77.6813322356898
318,1436898306625,73.6877326505553
319,1436898307122,61.6470808465449
320,1436898307611,55.0143942215897
321,1436898308083,35.6071690478346
322,1436898308575,66.2342174563229
323,1436898309064,72.3655185340403
324,1436898309537,34.0212187760028
325,1436898309939,31.5812426803304
326,1436898310362,30.817569624286
327,1436898310856,69.2169881814208
328,1436898311344,36.2299755941905
329,1436898311791,29.9074953793218
330,1436898312288,29.2062799782887
331,1436898312747,28.9980164920972
332,1436898313165,28.9823077756627
333,1436898313651,25.7101417431345
334,1436898314143,26.9258580796119
335,1436898314647,30.8910648926618
336,1436898315132,25.3175557625131
337,1436898315632,27.5357955645013
338,1436898316134,26.4891214718091
339,1436898316619,33.572229838022
340,1436898317019,28.4376560867189
341,1436898317451,29.5862558761092
342,1436898317915,30.1957549387863
343,1436898318405,31.8275335153142
344,1436898318873,30.5395056461675
345,1436898319377,32.5594292695532
346,1436898319864,32.4478829285868
347,1436898320312,34.4476214569813
348,1436898320810,35.1182312476477
349,1436898321230,31.5700887337486
350,1436898321699,24.0562930985289
351,1436898322191,45.4983665062635
352,1436898322645,67.2620704970654
353,1436898323016,56.6908162399986
354,1436898323358,58.3209904716231
355,1436898323802,42.2255010728829
356,1436898324294,22.7298935904943
357,1436898324802,39.6682698729446
358,1436898325301,25.7265993307087
359,1436898325794,38.2405389530844
360,1436898326326,35.771029918699
361,1436898326777,47.9495795945882
362,1436898327159,34.729297617536
363,1436898327497,37.5872941083852
364,1436898327975,69.2580810154291
365,1436898328426,47.2462320401212
366,1436898328858,31.6674568892044
367,1436898329263,24.3954918867195
368,1436898329719,32.6514385242514
369,1436898330171,33.0774115103562
370,1436898330562,28.3632561645653
371,1436898330896,24.7578134483514
372,1436898331346,22.6526292822552
373,1436898331830,34.4931572807568
374,1436898332310,34.6673378711277
375,1436898332797,30.9542443138093
376,1436898333282,26.566919565781
377,1436898333727,32.0725243439155
378,1436898334164,25.6776373952816
379,1436898334663,28.7138308306004
380,1436898335166,27.8638265992661
381,1436898335655,66.952995973825
382,1436898336144,67.1158154250719
383,1436898336696,47.8718431001657
384,1436898337134,71.4910275578101
385,1436898337562,68.7561556560179
386,1436898337994,56.4333182050886
387,1436898338473,70.3818906433676
388,1436898338953,70.5291060536186
389,1436898339456,63.3054448641344
390,1436898339939,78.7819783742272
391,1436898340430,74.3619449841655
392,1436898340912,51.1618938386769
393,1436898341379,56.0582387008162
394,1436898341819,67.444425009199
395,1436898342257,71.3612706680226
396,1436898342721,44.96233844859
397,1436898343220,71.8684973672342
398,1436898343675,71.1924573853761
399,1436898344124,64.7383462187216
400,1436898344611,62.5992260099851
401,1436898345112,55.5771561055923
402,1436898345614,74.8152395596606
403,1436898346122,42.6499680277012
404,1436898346617,68.2919703692769
405,1436898347116,75.6873747261063
406,1436898347570,45.4241453346874
407,1436898348011,71.3612236134717
408,1436898348456,31.6379840885524
409,1436898348880,29.4510477913996
410,1436898349331,36.0605745053711
411,1436898349786,44.7664153201908
412,1436898350275,35.8317370195053
413,1436898350699,30.8975103908632
414,1436898351122,30.8791797613788
415,1436898351547,23.8952044908676
416,1436898352003,36.8535454890952
417,1436898352451,28.7126290586528
418,1436898352902,28.4867466164775
419,1436898353409,26.2571439850696
420,1436898353890,36.3586323400785
421,1436898354371,35.1194566319867
422,1436898354885,69.4928564954083
423,1436898355363,60.2687330560211
424,1436898355826,29.571860196172
425,1436898356284,53.1077359735974
426,1436898356779,47.7107026863527
427,1436898357324,46.9239561870537
428,1436898357772,47.1474493970971
429,1436898358226,37.4360671150756
430,1436898358720,35.3244614191001
431,1436898359148,73.1120197365034
432,1436898360534,74.378208362883
433,1436898360954,77.0857264283095
434,1436898361435,70.3917503825935
435,1436898361879,68.5973177919944
436,1436898362263,76.3271213672187
437,1436898362733,72.9303174105016
438,1436898363218,66.9607361422922
439,1436898363733,48.8322775997677
440,1436898364223,65.7767421844725
441,1436898364740,51.5847725452472
442,1436898365250,36.056800850304
443,1436898365703,65.6425366376343
444,1436898366150,66.2296396054242
445,1436898366681,55.1109473765364
446,1436898367155,66.9517442911254
447,1436898367670,68.6931320697572
448,1436898368154,75.7257752844698
449,1436898368642,73.7254465401004
450,1436898369117,71.3876787067498
451,1436898369612,70.8546254539434
452,1436898370104,67.7833280620773
453,1436898370601,66.7241160162369
454,1436898371131,62.1281805552465
455,1436898371617,52.0353911530164
456,1436898372108,32.691951535744
457,1436898372610,67.0406243044103
458,1436898373019,69.1593352036433
459,1436898373462,73.5942537923952
460,1436898373919,43.5651079937295
461,1436898374405,53.4491473157347
462,1436898374913,44.3424728230882
463,1436898375432,43.6831133332948
464,1436898375871,39.4659381200505
465,1436898376352,60.3091028122047
466,1436898376835,63.9105768928388
467,1436898377307,60.4402759930748
468,1436898379026,32.5565426689344
469,1436898379505,34.0121548349175
470,1436898379997,29.5474124464676
471,1436898380479,39.7703553483721
472,1436898380974,30.8605004783257
473,1436898381474,72.4848175218287
474,1436898381992,74.9441143693993
475,1436898382491,71.3189572190693
476,1436898382904,55.0178589954403
477,1436898383341,53.1796320013188
478,1436898383797,56.5570770537261
479,1436898384298,59.9354887179322
480,1436898384777,53.510172339916
481,1436898385280,38.4688910878222
482,1436898385783,40.9737070016777
483,1436898386292,33.3272365448813
484,1436898386730,30.8431667674433
485,1436898387130,36.6322369229215
486,1436898387590,71.823965565539
487,1436898388073,71.0610865338642
488,1436898388556,44.2008997223754
489,1436898389066,41.4256698052679
490,1436898389560,53.9295908981115
491,1436898390063,43.7107627488302
492,1436898390557,44.239649527072
493,1436898391065,41.4793982215946
494,1436898391562,41.4829281117999
495,1436898392056,37.5437103944366
496,1436898392550,35.5610456458313
497,1436898393048,39.8671954675933
498,1436898393531,41.2102440890606
499,1436898394002,35.5903971422055
500,1436898394443,37.7081111146435
501,1436898394874,42.4661534627438
502,1436898395342,42.0051607523236
503,1436898395825,39.8274473601262
504,1436898396384,37.724770850986
505,1436898396811,71.8336793924744
506,1436898397267,29.7588192765502
507,1436898397808,41.268346266485
508,1436898398228,64.003411248474
509,1436898398685,72.399491190971
510,1436898399189,75.2191573763976
511,1436898399702,71.173861265481
512,1436898400195,75.7858919298864
513,1436898400697,73.9880341567514
514,1436898401185,73.7431750858374
515,1436898401654,55.3998421572283
516,1436898402151,35.1182594716724
517,1436898402670,71.2133983219406
518,1436898403193,52.3696301533352
519,1436898403677,73.1550735964482
520,1436898404128,71.2483748126543
521,1436898404513,78.2482857086358
522,1436898404941,74.3467828956397
523,1436898405387,71.3604507785595
524,1436898405839,62.4609599972522
525,1436898406274,63.5258080482696
526,1436898406757,44.6388264277427
527,1436898407236,34.578057857424
528,1436898407621,68.6451416141157
529,1436898408072,74.1269177471336
530,1436898409703,72.3005061070542
531,1436898410198,40.9987085652095
532,1436898410694,49.6772256624498
533,1436898411175,37.7656748672548
534,1436898411655,37.1137108224248
535,1436898412165,52.8622184440392
536,1436898412626,50.3664117583224
537,1436898413059,38.7494345647805
538,1436898413563,74.0711362364382
539,1436898414059,64.9042170579733
540,1436898414547,57.9072775932311
541,1436898414937,53.1872644667583
542,1436898415385,53.7903167061811
543,1436898415844,36.3067306404537
544,1436898416329,36.9265776299162
545,1436898416830,40.5630941449174
546,1436898417367,42.0573306022954
547,1436898417851,43.759251075812
548,1436898418201,40.6252594639759
549,1436898418655,42.6335751526521
550,1436898419115,41.3058874332761
551,1436898419613,45.803495115324
552,1436898420114,40.5733187973744
553,1436898420657,39.4716271676164
554,1436898421155,39.6628757324087
555,1436898421653,40.6705998754896
556,1436898422160,39.4176118100567
557,1436898422635,39.5678526579277
558,1436898423117,39.7091797382313
559,1436898423616,39.4082351453808
560,1436898424111,40.2549847835821
561,1436898424611,39.9354937904007
562,1436898425099,39.5659781157829
563,1436898426432,40.2151220019094
564,1436898426858,39.8551122700178
565,1436898427319,40.0987573704594
566,1436898427835,38.5332691555121
567,1436898428269,40.9970705927044
568,1436898428744,39.0100923799534
569,1436898429237,42.7799786106604
570,1436898429744,38.0300136851466
571,1436898430246,37.7205696392058
572,1436898430754,39.2196797357517
573,1436898431266,39.5168610877558
574,1436898431723,39.0875781676649
575,1436898432143,40.7861574087108
