id,attr_time,attr_db
1,1436183316597,5.07893927299059
2,1436183317311,8.25973121563834
3,1436183318084,6.07249630523182
4,1436183318809,9.92466593680384
5,1436183319535,12.5778127909554
6,1436183320254,7.55636697347242
7,1436183320949,26.8463491086411
8,1436183321618,19.0509548588183
9,1436183322343,42.6073443560579
10,1436183323078,30.3972273113846
11,1436183323836,43.6409139336325
12,1436183324559,55.2294112670395
13,1436183325326,48.0380763249552
14,1436183326133,57.0418621102018
15,1436183326790,43.7641304915912
16,1436183327577,42.6152859638732
17,1436183328299,46.0346073326755
18,1436183328947,46.430549185185
19,1436183329698,56.110860029499
20,1436183330411,51.554691244217
21,1436183331181,39.7624151262498
22,1436183331909,39.0554208723153
23,1436183332715,39.1253653919107
24,1436183333460,42.0524695885172
25,1436183334186,42.1009479533995
26,1436183334909,39.6241005210853
27,1436183335647,42.7440372010565
28,1436183336331,51.4934491863014
29,1436183336972,42.8761742511206
30,1436183337560,52.7678067938162
31,1436183338233,34.1124641117789
32,1436183338950,38.2918150060672
33,1436183339658,41.1373968156561
34,1436183340373,53.5709709641578
35,1436183341104,56.9836594542121
36,1436183341747,24.0728643991029
37,1436183342404,35.1538757756129
38,1436183343127,48.9268489785166
39,1436183343866,51.9497701990399
40,1436183344584,53.7397225225745
41,1436183345320,37.2009850559993
42,1436183346052,50.7218292669323
43,1436183346783,41.0274015832304
44,1436183347532,37.4666143605949
45,1436183348281,40.2496586323153
46,1436183348965,44.7754791767001
47,1436183349697,53.7049227611007
48,1436183350450,44.1196963312426
49,1436183351207,58.9965304333512
50,1436183351947,56.6746237321298
51,1436183352717,44.8100984704295
52,1436183353475,54.82340729769
53,1436183354195,57.7155129805383
54,1436183354928,54.1810449057343
55,1436183355666,58.8235629784939
56,1436183356471,50.23703798336
57,1436183357144,37.5251621212092
58,1436183357939,57.2946780452997
59,1436183358648,54.6305422919418
60,1436183359319,41.6540333451434
61,1436183360147,32.0765528667096
62,1436183360873,32.83162273476
63,1436183361606,44.4346411304754
64,1436183362333,40.1144135206241
65,1436183363003,40.8640259400901
66,1436183363685,40.7166558725416
67,1436183364433,41.6972470291024
68,1436183365166,49.5143098956609
69,1436183365896,51.9842270789819
70,1436183366635,46.1247615748145
71,1436183367378,46.221876364687
72,1436183368167,47.8202608347803
73,1436183368849,32.6165206877928
74,1436183369542,57.4034325422211
75,1436183370257,49.5802842333936
76,1436183371011,49.984986009218
77,1436183371743,37.7442015552604
78,1436183372488,35.7178644499732
79,1436183373202,28.6715811199655
80,1436183373958,34.0623590312916
81,1436183374686,37.3021316631267
82,1436183375426,34.3792529122587
83,1436183376173,34.7383818758244
84,1436183376872,32.0720273765203
85,1436183377587,46.9097410146843
86,1436183378325,45.1626697877866
87,1436183378995,39.3437793237556
88,1436183379726,44.2153649774615
89,1436183380465,56.4982453027881
90,1436183381209,52.5006363406293
91,1436183381963,50.8308148541987
92,1436183382702,54.8605179681718
93,1436183383381,53.1081995039975
94,1436183384076,38.9029048125993
95,1436183384814,39.8830207160608
96,1436183385557,47.6250874343037
97,1436183386287,42.3776697338558
98,1436183386966,44.2675056537523
99,1436183387698,33.2306225890794
100,1436183388420,34.0753505130173
101,1436183389133,38.7884082864551
102,1436183389805,50.9116886624474
103,1436183390531,36.124801040892
104,1436183391274,39.0707753574819
105,1436183392023,42.878673927829
106,1436183392773,35.617743297648
107,1436183393513,34.1988360415234
108,1436183394235,30.0129475553663
109,1436183394973,32.0927396725683
110,1436183395652,40.827534238356
111,1436183396370,46.7397188053457
112,1436183397076,42.7037998152983
113,1436183397812,45.3045831495828
114,1436183398571,36.6948230775771
115,1436183399310,38.3751939335837
116,1436183400046,46.9732594283482
117,1436183400661,35.3949000988735
118,1436183401324,50.2293454920371
119,1436183401996,40.3037199073409
120,1436183402694,55.5598136562224
121,1436183403384,54.8392313928386
122,1436183404097,38.4126107376411
123,1436183404820,41.2432845382896
124,1436183405554,35.3716088015924
125,1436183406276,42.5944011106952
126,1436183407025,45.3100176009917
127,1436183407739,38.5686989515978
128,1436183408417,38.8388751832716
129,1436183409153,63.4030102582779
130,1436183409898,57.4066196735629
131,1436183410634,57.0953455530167
132,1436183411372,51.4063308907596
133,1436183412049,33.1683983224533
134,1436183412706,44.2910780119784
135,1436183413395,35.0641402927554
136,1436183414160,39.4595000267261
137,1436183414889,34.9215619560788
138,1436183415638,54.9477719271888
139,1436183416368,60.416714300574
140,1436183416992,38.5864716391147
141,1436183417628,30.6988296429874
142,1436183418402,45.8010375364844
143,1436183419069,49.5399220318377
144,1436183420398,30.0462009475737
145,1436183421122,45.6449164408176
146,1436183421861,45.3794854139407
147,1436183422606,35.0734662145756
148,1436183423381,45.3743423896666
149,1436183424058,33.07463183857
150,1436183424797,31.8902102762346
151,1436183425532,43.7685604317921
152,1436183427278,36.2328210909532
153,1436183427912,41.8145688625486
154,1436183428642,49.9644939041567
155,1436183429367,44.305756061552
156,1436183430113,57.8682937130907
157,1436183430840,63.9276074816254
158,1436183431562,52.982158930797
159,1436183432345,60.7755846612269
160,1436183433899,57.3822791008656
161,1436183434608,43.7976136228424
162,1436183435354,67.2533460463676
163,1436183436106,67.650286413611
164,1436183436821,46.5071779447793
165,1436183438407,57.560553625992
166,1436183439171,53.5885340940008
167,1436183439936,50.084667076583
168,1436183440682,37.9545632905723
169,1436183441422,49.5800766664112
170,1436183442199,40.3316007994029
171,1436183442984,41.0181541231602
172,1436183443716,55.2951870907125
173,1436183444465,49.9417264552932
174,1436183445211,50.597232047433
175,1436183445938,43.3997958407016
176,1436183446683,48.2328554255233
177,1436183447262,45.9493547974001
178,1436183447895,49.4746005303116
179,1436183448597,45.4597303462242
180,1436183449272,64.2289598586675
181,1436183450019,63.3322355576247
182,1436183450721,44.5993116157437
183,1436183451481,50.0200701319162
184,1436183452281,44.5445872263376
185,1436183453038,59.427536060575
186,1436183453723,38.3916559117441
187,1436183454350,42.7769995910362
188,1436183455004,61.8742334929231
189,1436183455638,41.8066183839662
190,1436183456323,58.8742894185004
191,1436183457190,45.5818378677847
192,1436183457931,38.0085983073383
193,1436183458601,57.9392171918134
194,1436183459345,63.146727669741
195,1436183459973,57.0625366929505
196,1436183460728,50.2904862912107
197,1436183461459,55.9238724301981
198,1436183462189,56.9730436475047
199,1436183462780,67.8396584108309
200,1436183463462,44.8732610878329
201,1436183464216,40.7886472413592
202,1436183464951,48.8452639112084
203,1436183465625,67.4462354138245
204,1436183466367,61.9605487267416
205,1436183467082,45.8793663614266
206,1436183467895,61.5016644107468
207,1436183468644,45.2426758697348
208,1436183469379,50.9861223980138
209,1436183470086,54.8157307628771
210,1436183470741,63.6130812974568
211,1436183471444,62.7759505617667
212,1436183472271,62.2266565440906
213,1436183473029,52.7774272020173
214,1436183473714,45.1696056924119
215,1436183474458,47.629543779922
216,1436183475209,45.9440201731133
217,1436183475862,46.3449529170265
218,1436183476631,53.0272620594179
219,1436183477412,45.4254819766331
220,1436183478102,64.6992079202844
221,1436183478833,59.983875227704
222,1436183479573,39.4484025904133
223,1436183480271,54.5317464475645
224,1436183480924,54.2008479796793
225,1436183481654,42.4251805752956
226,1436183482432,64.5431891489133
227,1436183483166,45.7146343470251
228,1436183483992,60.8212953097006
229,1436183484721,51.0753094279866
230,1436183485485,68.0657012737541
231,1436183486205,66.3666528539918
232,1436183486911,46.1257117341137
233,1436183487573,67.255481994175
234,1436183488294,60.2618596185859
235,1436183489063,62.4808978547013
236,1436183489804,57.0923879608518
237,1436183490516,65.893777879385
238,1436183491130,48.3111110934467
239,1436183491781,63.4227239629464
240,1436183492520,64.3377519454876
241,1436183493259,66.5424254846053
242,1436183494020,67.2813412386202
243,1436183494755,68.9660761213443
244,1436183495449,59.5258129563011
245,1436183496196,62.6629537915111
246,1436183496919,68.8113792968665
247,1436183497637,63.5228156801168
248,1436183498373,64.4427823611275
249,1436183499109,55.8621100813834
250,1436183499866,45.1188260985864
251,1436183500584,54.8715854987525
252,1436183501314,61.0986098943757
253,1436183501925,68.9148239994138
254,1436183502668,40.866905894962
255,1436183503349,48.2981523399536
256,1436183504011,61.774540348738
257,1436183504716,62.1840823861769
258,1436183505469,47.7786489050401
259,1436183506209,66.0107964110081
260,1436183506883,67.8391073893886
261,1436183507684,60.5242258728984
262,1436183508418,60.8189385078301
263,1436183509162,66.8546173421339
264,1436183509917,61.9589156573915
265,1436183510644,60.8416653761348
266,1436183511342,68.6660101781165
267,1436183512031,65.8956629311422
268,1436183512866,65.66309850718
269,1436183513694,69.5266472617307
270,1436183514425,44.3424070855392
271,1436183515178,51.2422620608638
272,1436183515911,54.6967512270173
273,1436183516561,65.3363806662885
274,1436183517292,70.6231574009257
275,1436183518036,58.8081470324818
276,1436183518766,43.8031315898439
277,1436183519494,42.5688846465317
278,1436183520234,65.9486944136647
279,1436183521014,70.3995676338272
280,1436183521760,60.802722799871
281,1436183522691,63.5242418868109
282,1436183523251,63.1736966694617
283,1436183523802,69.8446723594584
284,1436183524352,73.5682417502001
285,1436183524917,64.0739340214351
286,1436183525514,43.2810729623127
287,1436183526256,46.0395330125048
288,1436183527129,68.7161224197997
289,1436183527694,66.2819949621597
290,1436183528270,72.4217889437825
291,1436183528824,58.5378178571152
292,1436183529375,62.7985501075305
293,1436183530350,61.9930228840022
294,1436183531008,69.5955175348917
295,1436183531752,70.0037176707
296,1436183532525,72.2532899197478
297,1436183533259,63.177479477724
298,1436183533840,65.4799583664124
299,1436183534397,55.4864181663528
300,1436183534988,63.3986908361942
301,1436183535536,66.2174630246747
302,1436183536172,68.7284460155348
303,1436183536959,69.487846437149
304,1436183537692,66.9581271983017
305,1436183538251,73.2902057499286
306,1436183538828,72.532668920294
307,1436183539385,75.6471085683459
308,1436183539943,71.1688959773688
309,1436183541495,40.8171592578696
310,1436183542247,41.9668964700368
311,1436183543059,58.7508999448808
312,1436183543793,45.9961944210576
313,1436183544351,56.0730021412081
314,1436183544928,45.5912866854083
315,1436183545485,71.7038540851603
316,1436183546065,48.2991031918799
317,1436183546670,70.5909177292284
318,1436183547469,73.3262334743604
319,1436183548349,59.5339244409116
320,1436183548927,69.0612531204109
321,1436183549481,70.4403094620447
322,1436183550066,67.8038994456586
323,1436183550683,66.2830959498005
324,1436183552647,67.5702204584731
325,1436183553429,69.6855971216635
326,1436183554157,73.9194657369679
327,1436183554779,68.9792834174269
328,1436183555472,76.6350205408892
329,1436183556223,52.7917928284536
330,1436183556976,74.9358105173641
331,1436183557657,56.7354656377477
332,1436183558309,64.8377966528037
333,1436183558956,43.449624436227
334,1436183559642,57.6807285467179
335,1436183560335,56.1547732417141
336,1436183560995,60.0926110991862
337,1436183561736,78.9383031095579
338,1436183562468,53.1365448624627
339,1436183563211,49.851188565586
340,1436183563973,55.875595444508
341,1436183564633,52.2544298891198
342,1436183565255,56.5032872756577
343,1436183565893,56.3905443832779
344,1436183566617,61.3208795439904
345,1436183567360,79.3741552467527
346,1436183568145,37.3989833426247
347,1436183568861,39.8872462717883
348,1436183569578,59.6285950553352
349,1436183570298,52.1566262438856
350,1436183571068,25.2873944939997
351,1436183571795,30.252281917775
352,1436183572540,32.3126309910482
353,1436183573265,21.4156521799877
354,1436183574027,37.4619021071839
355,1436183574743,43.0644901609491
356,1436183575471,48.4746980191478
357,1436183576224,61.3638233592499
358,1436183576973,54.9983568178115
359,1436183577682,65.8448911779929
360,1436183578345,54.1349716799291
361,1436183579007,42.5088400843145
362,1436183579677,51.1155499112395
363,1436183580406,51.4334561329981
364,1436183581184,41.4849271902264
365,1436183581909,65.5128173483922
366,1436183582497,58.6704617291747
367,1436183583135,46.995603756344
368,1436183583884,54.8421138620796
369,1436183584652,59.0869526475236
370,1436183585371,51.0363856852182
371,1436183586145,42.4744027181883
372,1436183586878,56.0773709885818
373,1436183587610,56.8052392099071
374,1436183588370,58.0722624096993
375,1436183589154,58.1949686345394
376,1436183589873,60.1469509050785
377,1436183590607,60.4580761395917
378,1436183591346,52.8429214657421
379,1436183592099,49.9064360396395
380,1436183592886,46.2983267385847
381,1436183593505,49.7253298877667
382,1436183594185,39.7339511447213
383,1436183594912,45.6198610527347
384,1436183595645,46.7446644657987
385,1436183596381,43.2888669374391
386,1436183597165,60.5135089743468
387,1436183597818,47.0827472378994
388,1436183598514,45.6006653534345
389,1436183599232,34.2294533912271
390,1436183599972,41.9576804432761
391,1436183600701,43.6918308835569
392,1436183601494,36.6834592926261
393,1436183602228,49.5734796871416
394,1436183602962,39.6355733045756
395,1436183603594,39.704037720586
396,1436183604250,41.2840337790113
397,1436183604943,37.8447485612222
398,1436183605698,30.0454280922039
399,1436183606459,74.5856993891113
400,1436183607207,78.8393474585295
401,1436183607997,77.6865329921737
402,1436183608829,35.5788342321272
403,1436183609569,54.3396731931538
404,1436183610301,39.9472798526616
405,1436183611067,39.1565054588159
406,1436183611783,53.0098599853636
407,1436183612518,79.4044669910887
408,1436183613336,48.282209174813
409,1436183614093,56.9451168256532
410,1436183614819,56.6118214748803
411,1436183615546,42.7887443568108
412,1436183616274,20.4553451236542
413,1436183617023,28.9045284752072
414,1436183617728,31.8190496306895
415,1436183618460,41.4130410126326
416,1436183619210,28.1799548664453
417,1436183619956,38.3780298998747
418,1436183620694,33.1516652624999
419,1436183621413,33.8987519882921
420,1436183622173,42.7929663783507
421,1436183622908,35.3871504916076
422,1436183624889,43.1543410826171
423,1436183625638,39.7419064336995
424,1436183626355,38.0160974533827
425,1436183627126,28.7029698554316
426,1436183627862,41.1905968519127
427,1436183628600,35.3417557979001
428,1436183629313,37.4775735255802
429,1436183630094,79.1636500278046
430,1436183630848,70.2956754775783
431,1436183631560,74.911966706231
432,1436183632299,63.2403474213549
433,1436183633104,41.446629158242
434,1436183633840,28.0937114087772
435,1436183635638,35.4004213038982
436,1436183636382,43.38702099157
437,1436183637126,46.9339434711298
438,1436183637855,37.8560511161389
439,1436183638530,42.0483893124916
440,1436183639257,53.0933531254492
441,1436183639986,53.3769491629665
442,1436183640705,37.4386510894341
443,1436183641446,53.0968769305176
444,1436183642194,69.1253318041679
445,1436183642919,77.9877895762987
446,1436183643663,68.6860797027027
447,1436183644324,49.4673896636255
448,1436183645070,50.582752909309
449,1436183645771,66.6903569743699
450,1436183646466,40.2062087456747
451,1436183647208,31.3570265548837
452,1436183647943,42.8459392487521
453,1436183648618,75.4932125657939
454,1436183650028,45.3198789308299
455,1436183650751,40.2428797572065
456,1436183651485,39.3386340441336
457,1436183652248,46.0962314219693
458,1436183652983,40.3035837465364
459,1436183653699,73.8355082139266
460,1436183654446,45.5466051670347
461,1436183655207,64.7913830895969
462,1436183655961,34.7005648912229
463,1436183656703,29.1452698436689
464,1436183657418,41.8725602284223
465,1436183658993,31.550658663138
466,1436183659722,40.256597965886
467,1436183660432,44.3639072750727
468,1436183661113,32.1630034762599
469,1436183661865,39.6915425523457
470,1436183662594,31.6366626601494
471,1436183663340,79.1891268595174
472,1436183664213,72.4730532185949
473,1436183664878,43.1339378633265
474,1436183665616,26.99660859542
475,1436183666349,28.260250468493
476,1436183667109,23.2774058620365
477,1436183667859,22.0859850861755
478,1436183668609,11.7282607572022
479,1436183669424,24.9679565049393
480,1436183670198,15.6848425013813
481,1436183670952,35.0216400085708
482,1436183671678,29.9448446456483
483,1436183672428,33.9730756997906
484,1436183673160,37.7127287868273
485,1436183673900,24.5656897113832
486,1436183674693,38.9282719281499
487,1436183675447,32.523388121649
488,1436183676071,44.3495151762185
489,1436183676681,35.4688869142399
490,1436183677301,30.2402988216733
491,1436183677889,67.3693799135467
492,1436183678538,49.4661872139865
493,1436183679301,70.0424037119269
494,1436183680061,42.4398925104491
495,1436183680613,39.9110413681684
496,1436183681176,70.2360980904337
497,1436183681728,45.6821961018539
498,1436183682289,39.6179690663899
499,1436183683765,68.0269863687457
500,1436183684382,36.7684916550421
501,1436183685122,41.6935930973394
502,1436183685847,45.4841677703422
503,1436183686615,42.2938534430296
504,1436183687280,31.1206398410594
505,1436183687859,37.7622669770139
506,1436183688404,71.6521664121866
507,1436183688960,72.1476295323405
508,1436183689529,62.9989950322476
509,1436183690206,27.0254915455548
510,1436183690913,26.1911398726722
511,1436183691521,35.0944177072339
512,1436183692089,33.4085736324187
513,1436183692636,33.717957904888
514,1436183693187,27.5286596835097
515,1436183694205,19.5930195151588
516,1436183694837,57.8113573709544
517,1436183695567,70.2760241038245
518,1436183696317,31.8808730595352
519,1436183697147,22.4145657980726
520,1436183697807,26.771844143335
521,1436183698373,33.7989973096104
522,1436183698933,33.7632702615383
523,1436183699474,33.9872986321022
524,1436183700022,30.076025970792
525,1436183700621,38.9516135404775
526,1436183701356,26.8902265647279
527,1436183702133,37.3847586262627
528,1436183702895,62.9390606552637
529,1436183703541,67.4291097038699
530,1436183704110,64.5286937753425
531,1436183704657,45.6379114013389
532,1436183705211,69.1297074480184
533,1436183705765,64.0388714402879
534,1436183707140,46.1894130481831
535,1436183707840,72.5787750124325
536,1436183708605,62.7112204855011
537,1436183709367,71.0569479821578
538,1436183710121,50.5729926879942
539,1436183710851,54.4401572911143
540,1436183711521,67.169296656335
541,1436183712206,69.5911065546356
542,1436183712956,70.2391104671322
543,1436183713750,64.9163698848631
544,1436183714405,53.7416971020887
545,1436183715174,56.6754042933199
546,1436183715761,60.8663842248721
547,1436183716443,69.1475035060454
548,1436183717180,70.7999246060566
549,1436183717953,66.1948639970826
550,1436183718731,64.223767306584
551,1436183719380,45.3421794246142
552,1436183720128,64.0702677535084
553,1436183720880,67.8186706795913
554,1436183721607,50.7299168597015
555,1436183722345,53.5392733175598
556,1436183723032,55.0642010025853
557,1436183723892,63.6164504873356
558,1436183724638,52.8944544768507
559,1436183725363,61.1150575899151
560,1436183726137,61.3985987954898
561,1436183726864,66.9278677365404
562,1436183727600,65.8657760138705
563,1436183728385,55.8375666090898
564,1436183729125,54.3129880188743
565,1436183729815,59.3441217818125
566,1436183730490,67.0530441902827
567,1436183731224,64.0276924820663
568,1436183731901,55.41847022845
569,1436183732620,67.0975855959266
570,1436183733290,67.1609371653095
571,1436183733959,65.1415325355532
572,1436183734692,64.5119838798243
573,1436183735404,57.3059284883116
574,1436183736166,62.6876797171058
575,1436183736898,61.854832533342
