id,attr_time,attr_db
1,1436183317811,16.623448876679
2,1436183318292,26.1460719787762
3,1436183318780,29.9423780869367
4,1436183319265,36.1576345938282
5,1436183319767,16.6780857532668
6,1436183320270,51.8168820488147
7,1436183320771,22.2858051854785
8,1436183321257,23.3860936214448
9,1436183321763,30.9732070620873
10,1436183322262,35.4701256263414
11,1436183322763,37.8072604965419
12,1436183323283,51.3059002332821
13,1436183323791,38.839848964571
14,1436183324288,43.462629572183
15,1436183324681,42.4625359563379
16,1436183325116,72.3877394403903
17,1436183325572,73.760808548701
18,1436183326056,50.2799137395335
19,1436183326544,43.6090177859246
20,1436183327051,41.6270248356779
21,1436183327522,46.2122134975692
22,1436183328004,40.4931783596911
23,1436183328441,37.8190282101841
24,1436183328913,40.8044407625381
25,1436183329407,40.0629013367983
26,1436183329864,36.3064565366121
27,1436183330294,53.2560181400213
28,1436183330760,45.4342210323605
29,1436183331255,37.7685390806583
30,1436183331745,42.4726506613468
31,1436183333529,40.703269662162
32,1436183333980,38.7843132576489
33,1436183334494,44.1414012673206
34,1436183334944,40.0879004228373
35,1436183335453,41.3142637501329
36,1436183335954,39.4926049785759
37,1436183336442,40.3285194048842
38,1436183336938,39.4044923681998
39,1436183337385,38.7421607388695
40,1436183337879,42.919374969712
41,1436183338366,40.6333156111906
42,1436183338869,40.0795374318805
43,1436183339365,38.9253850053736
44,1436183339867,43.5145462266061
45,1436183340380,38.7019329885325
46,1436183340891,36.4203380341231
47,1436183341368,43.6873809898065
48,1436183341862,40.5532315419682
49,1436183342342,36.5186633191986
50,1436183342839,43.5911207068673
51,1436183343327,43.4455056823061
52,1436183345120,39.3910489087113
53,1436183345571,45.3723694350989
54,1436183346060,40.0348246141432
55,1436183346536,38.1532352686199
56,1436183346964,41.3471806710647
57,1436183347390,39.2845125210436
58,1436183347885,46.3339425971231
59,1436183348302,72.2608891103842
60,1436183348709,44.1149434994075
61,1436183349157,41.7670315540308
62,1436183349610,41.7702832810625
63,1436183350004,42.7677299595677
64,1436183350338,41.3243912814643
65,1436183350764,46.0640585057176
66,1436183351227,44.3861054138886
67,1436183351740,46.979144152628
68,1436183352236,43.041601591308
69,1436183352736,39.5365210770131
70,1436183353236,48.5055051551763
71,1436183353742,42.5693122016559
72,1436183354223,39.132045209759
73,1436183354692,42.9806047419343
74,1436183355132,43.4820157277806
75,1436183355552,43.9457717959202
76,1436183356022,41.0342807354463
77,1436183356544,34.2600429154968
78,1436183357037,49.2583653484155
79,1436183357529,38.0493617256919
80,1436183358012,35.980344311871
81,1436183358435,37.4847405542635
82,1436183358922,46.1042953908059
83,1436183359406,39.9783494772675
84,1436183359912,36.3323672519651
85,1436183360389,44.2604052142429
86,1436183360799,39.9225109487569
87,1436183361231,33.7116413310115
88,1436183361686,37.9065656959561
89,1436183362189,27.7853675039542
90,1436183362681,44.7329744004267
91,1436183363183,37.298011814257
92,1436183363683,35.1694986611286
93,1436183364168,42.1629257486095
94,1436183364661,38.5860932669797
95,1436183365157,38.4781091956824
96,1436183365566,48.9310009405208
97,1436183366010,37.780056923524
98,1436183366473,35.8378542652829
99,1436183367690,34.6347746074327
100,1436183368028,39.9884195822473
101,1436183368492,34.5383453241645
102,1436183368973,51.3474068227831
103,1436183369486,36.7308727613033
104,1436183369937,37.1017047036147
105,1436183370397,34.7248172741841
106,1436183370883,44.3876342988247
107,1436183371371,35.2222924994585
108,1436183371859,32.620471140383
109,1436183372352,45.1939060686298
110,1436183372840,39.4855623397342
111,1436183373372,44.7525517598212
112,1436183373841,44.3083153743939
113,1436183374337,34.9538826028542
114,1436183374843,39.0213919172767
115,1436183375319,44.7286587802198
116,1436183375724,38.3312365125707
117,1436183376170,35.3816153898163
118,1436183376624,36.2158688355324
119,1436183377105,36.680471492954
120,1436183377580,44.2502669906609
121,1436183378016,36.0772599511057
122,1436183378346,41.0442758212225
123,1436183378778,41.7238901529692
124,1436183379245,36.4527652782383
125,1436183379744,37.3843893708484
126,1436183380239,47.984459107839
127,1436183380702,41.1770380616043
128,1436183381199,37.8595289958846
129,1436183381708,37.5248966845338
130,1436183382204,40.5444178243157
131,1436183382701,37.9274037058137
132,1436183383210,46.1726666382469
133,1436183383699,41.7616520507802
134,1436183384190,39.7568308534238
135,1436183384687,34.5937622191459
136,1436183385194,34.1421555213731
137,1436183385707,40.0922635403889
138,1436183386157,44.00950074235
139,1436183386566,45.7656860974574
140,1436183387050,35.4530678411912
141,1436183387459,40.0079480841772
142,1436183387868,36.3719111299253
143,1436183388310,43.2422820506084
144,1436183388771,36.9129169512497
145,1436183389280,50.0750815106276
146,1436183389782,37.5956117141716
147,1436183390272,33.3376466999874
148,1436183390794,49.9587677098964
149,1436183391257,39.6011019542369
150,1436183391757,40.2623813647449
151,1436183392279,43.6973016600814
152,1436183392770,38.6166157284062
153,1436183393293,36.1896590262907
154,1436183393801,37.3709473426964
155,1436183394300,40.59848253524
156,1436183394801,39.3378294446412
157,1436183395287,46.5028046239544
158,1436183395800,36.5793191992905
159,1436183396250,38.7256614710539
160,1436183396725,38.4390348104728
161,1436183397193,43.0569585835142
162,1436183397695,39.6900053742075
163,1436183398170,34.9140382929105
164,1436183398820,37.6937702331669
165,1436183399174,37.0009203386574
166,1436183399500,42.6828755249662
167,1436183399964,43.9902856229138
168,1436183400458,38.9641091554939
169,1436183400976,45.2273777597282
170,1436183401487,36.2019363563872
171,1436183401972,31.4514500192354
172,1436183402499,40.8456851985896
173,1436183403014,32.542750170998
174,1436183403499,38.3085639676465
175,1436183404007,44.7037400316748
176,1436183404498,37.7518770509374
177,1436183404974,37.5333057554694
178,1436183405413,38.3235576972
179,1436183405841,43.6150376509213
180,1436183406265,43.1952131885383
181,1436183406767,41.8088739351302
182,1436183407250,36.9138398028754
183,1436183407762,43.0840843817374
184,1436183408245,41.7253595172244
185,1436183408735,38.8250546005187
186,1436183409149,38.1001482240674
187,1436183409584,39.418394100148
188,1436183410057,44.3276552030823
189,1436183410399,40.0939446723243
190,1436183410855,42.5892268889672
191,1436183411356,39.4231728089275
192,1436183411874,38.3577061504889
193,1436183412358,45.4113863454871
194,1436183412845,35.9882764179569
195,1436183413325,35.9801819790602
196,1436183413804,41.4520334087315
197,1436183414285,51.7173847653574
198,1436183414790,41.8164570663914
199,1436183415294,41.6605514313078
200,1436183415811,46.8698964560747
201,1436183416305,37.6819995956668
202,1436183416676,42.168326757931
203,1436183417080,34.5480875923183
204,1436183417541,32.4282744985946
205,1436183417999,46.2211061731044
206,1436183418471,44.4476481133162
207,1436183418954,37.0027317651512
208,1436183419354,38.100012722474
209,1436183419783,42.4148863352637
210,1436183420262,42.4214237213552
211,1436183420779,48.4904704763627
212,1436183421325,38.1554303216191
213,1436183421825,46.3038605736895
214,1436183422347,42.5372803219242
215,1436183422834,35.4069356800477
216,1436183423325,46.9543425409801
217,1436183423815,46.7208413974366
218,1436183424306,58.1909174288721
219,1436183424767,56.4269071496419
220,1436183425231,56.0676664730941
221,1436183425721,52.7835295860077
222,1436183426237,44.8357059422852
223,1436183426735,37.2839233857515
224,1436183427187,47.1290171512502
225,1436183427623,44.2013695829515
226,1436183428124,43.0947593620203
227,1436183428607,33.6317863854406
228,1436183429102,48.8540182156828
229,1436183429577,40.9670936887276
230,1436183430007,36.7372057745263
231,1436183430406,64.945035124447
232,1436183430864,54.2964082125824
233,1436183431386,42.7079170749819
234,1436183431865,44.3595632571636
235,1436183432375,36.7590642960071
236,1436183432878,39.1533122333107
237,1436183433366,41.7748908362315
238,1436183433837,38.9533915808485
239,1436183434245,39.0143268643158
240,1436183434700,47.0140376244693
241,1436183435211,48.2169611521721
242,1436183435715,42.7714212687346
243,1436183436260,35.9390624446127
244,1436183436757,42.9945504380581
245,1436183437210,37.8357847678597
246,1436183437643,41.8777081185629
247,1436183438130,42.3962668972398
248,1436183438602,41.7940610720373
249,1436183439030,49.8664425382814
250,1436183439413,45.362719573739
251,1436183439943,42.6208980862905
252,1436183440383,40.0141181082844
253,1436183440838,43.0689839562504
254,1436183441344,44.08501553523
255,1436183441847,46.4835700378726
256,1436183442372,38.6177270888428
257,1436183442856,47.1034386689119
258,1436183443346,47.0392942552585
259,1436183443855,46.1478356282797
260,1436183444366,41.2654936225386
261,1436183444862,50.8701705959333
262,1436183445337,43.4023765476643
263,1436183445823,44.4662991048495
264,1436183446298,40.2572728993484
265,1436183446773,51.3300159298055
266,1436183447224,43.6653683379383
267,1436183447664,47.6920115354312
268,1436183448160,38.2177158925016
269,1436183448643,50.3222671286146
270,1436183449137,42.9914323146663
271,1436183449622,38.2627102081824
272,1436183450120,33.7475873460221
273,1436183450569,38.9287825275425
274,1436183450994,42.3679638813284
275,1436183451505,32.8343258220646
276,1436183451985,32.9568387533543
277,1436183452362,31.4905201928652
278,1436183452783,45.8297177580941
279,1436183453262,40.36430581219
280,1436183453760,47.0198781707426
281,1436183454251,43.3339388779178
282,1436183454751,43.4716910020607
283,1436183455252,43.5533197407902
284,1436183455735,42.0581312238549
285,1436183456232,34.2552409803084
286,1436183456711,36.7186992029801
287,1436183457197,52.9570534745349
288,1436183457638,42.9627750993437
289,1436183458041,45.1521098349276
290,1436183458539,37.3416129287927
291,1436183459014,34.0289310104797
292,1436183459495,37.6377988058915
293,1436183459982,39.9919471827122
294,1436183460395,44.1405641189329
295,1436183460819,43.9393549646259
296,1436183461293,42.0253395790017
297,1436183461775,38.1205541331936
298,1436183462283,47.8167967824127
299,1436183462746,43.4975785610626
300,1436183463237,36.8955853123272
301,1436183463746,36.075917612203
302,1436183464221,31.9137192203374
303,1436183464697,39.1802844215955
304,1436183465182,32.5309129344681
305,1436183465656,41.300512694449
306,1436183466170,32.9435069723061
307,1436183466659,44.9435092369885
308,1436183467157,52.0661180356453
309,1436183467629,38.782830958574
310,1436183468015,36.5711243216809
311,1436183468471,41.3446540045234
312,1436183468941,43.1568341962939
313,1436183469414,42.9054631626648
314,1436183469912,34.7676299856929
315,1436183470506,46.993942631418
316,1436183470888,38.7594762213079
317,1436183471221,43.550958688437
318,1436183471649,51.9677370600296
319,1436183472105,43.4916122919877
320,1436183472623,37.6424822089165
321,1436183473106,34.9640065568075
322,1436183473605,42.2987753654095
323,1436183474086,45.1300602090101
324,1436183474586,43.0407120951647
325,1436183475069,35.7943254635781
326,1436183475574,40.1051841489627
327,1436183476060,38.9603392273141
328,1436183476581,40.7317798929416
329,1436183477070,35.6730679329559
330,1436183477572,45.8903802904289
331,1436183478017,37.7991664658769
332,1436183478431,39.5622773061376
333,1436183478903,44.2532968752742
334,1436183479390,40.0087559741325
335,1436183479890,44.9507850977768
336,1436183480384,41.8076813037424
337,1436183480887,32.7053029483941
338,1436183481288,35.5258060079737
339,1436183481732,45.7336059266074
340,1436183482204,42.8743551783278
341,1436183482702,45.9329497010251
342,1436183483202,38.0748230471838
343,1436183483689,43.547556467695
344,1436183484186,38.8470356436257
345,1436183484676,32.9643455926259
346,1436183485169,38.0252178772542
347,1436183485661,40.7070140747477
348,1436183486145,34.3811292168265
349,1436183486689,39.4643611366123
350,1436183487168,45.2716779837
351,1436183487649,48.5224782134814
352,1436183488088,44.4434286277578
353,1436183488498,39.5767449392578
354,1436183488970,36.6654978497014
355,1436183489468,31.3448302470226
356,1436183489963,42.8468442905889
357,1436183490475,34.0227779425409
358,1436183490975,34.2243797896248
359,1436183491318,42.1686615588397
360,1436183491711,38.1745215771079
361,1436183492185,76.6249263113476
362,1436183492671,47.8745187842895
363,1436183493165,38.2628013894872
364,1436183493645,44.393090394817
365,1436183494137,39.7194976288018
366,1436183494623,53.8037136343377
367,1436183495115,44.3222772131748
368,1436183495649,44.3053881257615
369,1436183496151,41.2622341487127
370,1436183496651,48.8199955035104
371,1436183497135,41.5192884409761
372,1436183497610,41.3064423586562
373,1436183498080,40.3253508427119
374,1436183498457,46.3132152852426
375,1436183498910,40.4965947019494
376,1436183499399,35.3952461550707
377,1436183499903,44.1672400112641
378,1436183500353,46.123449504774
379,1436183500810,39.7444404989248
380,1436183501284,40.0594561489903
381,1436183501782,41.1884190296367
382,1436183502270,43.1213363612379
383,1436183502753,34.6081080302094
384,1436183503237,35.7214165703591
385,1436183503750,42.119303325479
386,1436183504215,50.7307994508073
387,1436183504704,45.0529172784811
388,1436183505204,41.6929996348051
389,1436183505728,50.2161785146676
390,1436183506226,52.0438398886658
391,1436183506746,40.4941642513697
392,1436183507248,46.1508895044499
393,1436183507712,47.2117731677334
394,1436183508200,47.0019494902774
395,1436183508635,39.7012311088358
396,1436183509004,36.1078885980384
397,1436183509419,48.0316029352473
398,1436183509885,39.2055399035006
399,1436183510391,48.6608294070133
400,1436183510930,45.6679078571031
401,1436183511441,44.4381787882102
402,1436183511885,42.1539000843959
403,1436183512309,40.542109566232
404,1436183512782,41.7439233108578
405,1436183513265,49.2157018454536
406,1436183513744,42.6941981318545
407,1436183514232,39.6798586303535
408,1436183514739,45.7194308514124
409,1436183515224,43.2602238780812
410,1436183515680,53.392433229544
411,1436183516171,43.7353443626753
412,1436183516672,44.7061736590686
413,1436183517155,45.8849293732249
414,1436183517621,41.9636706844853
415,1436183518006,44.6918074673972
416,1436183518434,34.9859467975138
417,1436183518895,50.9739833947192
418,1436183519370,45.2794521770568
419,1436183519841,35.2585735639001
420,1436183520278,46.2052855675107
421,1436183520679,44.739007269543
422,1436183521143,42.1099447037898
423,1436183521616,34.1862329998029
424,1436183522083,47.735726895486
425,1436183522541,39.6494523358103
426,1436183522989,44.092586198181
427,1436183523426,41.4119424725274
428,1436183523904,42.2264316239825
429,1436183524398,38.3499202039983
430,1436183524907,42.0480619216789
431,1436183525389,41.8419877669098
432,1436183525927,47.9070117854204
433,1436183526430,37.8481458755496
434,1436183526905,45.558538928365
435,1436183527359,48.2769184192916
436,1436183527862,55.022714097527
437,1436183528360,42.5639366138122
438,1436183528851,44.3375959370091
439,1436183529328,44.6180962667799
440,1436183529822,61.053605243088
441,1436183530305,39.9916089949283
442,1436183530786,46.0140867912933
443,1436183531193,40.674498492421
444,1436183531584,29.9822096929098
445,1436183531962,42.1543329914914
446,1436183533859,43.6795859579944
447,1436183534347,42.1247580291697
448,1436183534855,51.2247008521497
449,1436183535345,41.2938974903163
450,1436183535811,44.9543786455028
451,1436183537338,73.8477046026485
452,1436183537772,55.2588308583108
453,1436183538272,34.8064051463413
454,1436183538779,45.4919601761074
455,1436183539274,50.5415230468499
456,1436183539764,41.2328991875187
457,1436183540252,44.7137130303689
458,1436183540751,54.1679588062144
459,1436183541219,43.2826833820182
460,1436183541622,50.8497058959669
461,1436183542000,42.2911934501715
462,1436183542466,37.5083924138546
463,1436183542945,44.5777691884215
464,1436183543414,44.035867280954
465,1436183543846,38.1074326771556
466,1436183544274,35.6063387123014
467,1436183544708,40.1465424514158
468,1436183545165,38.5422978434567
469,1436183545708,49.6300069167607
470,1436183546140,44.9522455445017
471,1436183546548,43.8518149600834
472,1436183546984,44.7089133603418
473,1436183547483,39.9216296804558
474,1436183547988,47.2849826744814
475,1436183548479,44.7266268122935
476,1436183548966,45.1452652202612
477,1436183549456,31.8923782171041
478,1436183549942,46.4340425746705
479,1436183550422,55.7765274311286
480,1436183550923,35.3305703471759
481,1436183551415,47.6105671149379
482,1436183553066,73.6001693394232
483,1436183553517,68.526900897342
484,1436183554005,56.1702627257901
485,1436183554509,36.8190475243087
486,1436183555006,72.8979971937372
487,1436183555495,64.3244695579725
488,1436183556026,33.8785763147339
489,1436183556455,32.1408637516552
490,1436183556934,40.5904937170156
491,1436183557421,44.4611459079486
492,1436183557916,46.5218742677845
493,1436183558419,33.531009478135
494,1436183558916,66.2076909000982
495,1436183559412,51.9058359555948
496,1436183559913,78.1391694290916
497,1436183560417,39.9816102817272
498,1436183560892,59.6890894600011
499,1436183561378,45.3195863338612
500,1436183561880,40.7314697005515
501,1436183562362,73.4353048720667
502,1436183562839,53.8220528416774
503,1436183563324,43.6505941733099
504,1436183563828,58.3496982024955
505,1436183564211,46.7511165074375
506,1436183564653,41.2399535372029
507,1436183565114,69.6232273357329
508,1436183565604,68.5877415294229
509,1436183566086,30.190997127097
510,1436183566557,31.8070116705209
511,1436183567013,37.5168891758566
512,1436183567429,73.5173138485476
513,1436183567915,69.1198387055516
514,1436183568421,59.5209542829616
515,1436183568917,30.2772972499332
516,1436183569399,20.8110717435481
517,1436183569907,39.6522595926022
518,1436183570410,35.9668936091369
519,1436183570915,36.4573303566797
520,1436183571402,34.8541388505929
521,1436183571865,41.8072429230279
522,1436183572309,20.4557130087808
523,1436183572771,33.8846299950789
524,1436183573254,36.4324673668021
525,1436183573730,35.6182034551925
526,1436183574211,60.6309081838576
527,1436183574687,60.5115361822816
528,1436183575142,47.7814268520063
529,1436183575562,52.7225051784417
530,1436183576035,43.1853060965665
531,1436183576502,14.721143266869
532,1436183576991,37.0610428436532
533,1436183577466,34.4828912013793
534,1436183577947,57.7391790626338
535,1436183578436,58.8928923456754
536,1436183578901,36.3457085220625
537,1436183579245,47.1674097177274
538,1436183579659,65.6895437119178
539,1436183580117,66.2212798546226
540,1436183580599,40.392492181245
541,1436183581093,52.726408486724
542,1436183581594,19.5217685215603
543,1436183582094,19.5215971422612
544,1436183582621,58.7661455581163
545,1436183583127,34.6720427910469
546,1436183583613,32.9595051268741
547,1436183584096,35.5132547691278
548,1436183584594,37.6824922338501
549,1436183585033,57.1201725156644
550,1436183585426,58.4237091311511
551,1436183585884,48.6438296882169
552,1436183586391,36.1244125492462
553,1436183588070,42.0591559455822
554,1436183588452,15.6474347420566
555,1436183588903,25.4574382363399
556,1436183589357,35.2693111270292
557,1436183589759,33.1752924256709
558,1436183590209,28.1684069603677
559,1436183590677,24.0550538333033
560,1436183591208,28.1805675584749
561,1436183591689,36.6315542686596
562,1436183592225,31.3843485963772
563,1436183592649,35.1425982607165
564,1436183593078,25.511596435672
565,1436183593500,34.6591339628559
566,1436183594001,35.6534809320734
567,1436183594494,27.8595140916983
568,1436183594970,50.6435926740257
569,1436183595364,41.6398197257123
570,1436183595841,22.6661247636743
571,1436183596338,25.5915436158633
572,1436183596806,42.1921738451091
573,1436183597313,26.0188433848218
574,1436183597791,42.8787442517243
575,1436183598298,15.2411331515419
