id,attr_time,attr_db
1,1436183316154,33.2317194231088
2,1436183316659,21.3259082351098
3,1436183317103,19.549067254499
4,1436183317477,16.4883838790947
5,1436183317883,21.6644607723075
6,1436183318305,22.6995552934492
7,1436183318769,18.7369012150217
8,1436183319261,17.6843176799471
9,1436183319779,21.9111705184776
10,1436183320276,18.8847188390341
11,1436183320770,23.6755609130379
12,1436183321278,31.0514189174752
13,1436183321772,26.9168482408525
14,1436183322263,42.8809576657529
15,1436183322751,37.2236334994301
16,1436183323241,37.9894083623669
17,1436183323723,62.5591392393542
18,1436183324174,56.1849327732971
19,1436183324604,56.8651225317591
20,1436183325061,42.2625469108447
21,1436183325549,40.5245775412737
22,1436183326032,46.3037621784454
23,1436183326522,61.2037929619175
24,1436183327017,72.2514897389189
25,1436183327549,69.9093381355355
26,1436183328031,63.798458052585
27,1436183328526,66.7311759109518
28,1436183329181,58.6757446657309
29,1436183329513,57.6304149385814
30,1436183329967,54.9073892122181
31,1436183330427,66.7600402526781
32,1436183330909,58.4737984506751
33,1436183331407,45.215877926339
34,1436183331875,55.1920564803688
35,1436183332360,60.0336600562968
36,1436183332818,64.0116012942636
37,1436183333329,58.5840555177747
38,1436183333822,43.7809016604227
39,1436183334266,51.8398087966768
40,1436183334690,58.2415864990628
41,1436183335159,63.122746449937
42,1436183335645,56.8413650512538
43,1436183336125,46.2693022615713
44,1436183336613,48.4512464961444
45,1436183337089,60.1114594809066
46,1436183337541,60.5487259877656
47,1436183337976,63.7320089283765
48,1436183338433,45.4587147673921
49,1436183338951,42.956295442575
50,1436183339433,54.6206686394309
51,1436183340010,52.9604549925998
52,1436183340489,52.2879786113018
53,1436183340997,46.1112159340093
54,1436183341406,67.1258679072282
55,1436183341841,60.5952785023033
56,1436183342313,53.2283259534181
57,1436183342791,60.030150091665
58,1436183343290,44.0046640492354
59,1436183343794,65.6987151078551
60,1436183344274,60.6213561547998
61,1436183344728,44.9636017014931
62,1436183345112,50.6428441985739
63,1436183345548,43.966085616732
64,1436183346051,57.5231989714665
65,1436183346534,65.7792748418801
66,1436183347025,53.0765635624705
67,1436183347519,46.6697582029508
68,1436183347998,55.7441028157216
69,1436183348480,56.1467453986405
70,1436183348993,55.8962307654063
71,1436183349424,43.9735246921475
72,1436183349871,64.3734001312581
73,1436183350325,63.9138594309641
74,1436183350795,52.7323793315712
75,1436183351277,58.6832232163564
76,1436183351771,44.8708007032574
77,1436183352253,60.1740109477839
78,1436183352761,57.1929497755078
79,1436183353269,44.746558419982
80,1436183353710,65.6104233902085
81,1436183354101,68.0919573241428
82,1436183354523,58.0503513232368
83,1436183354986,61.5156978954877
84,1436183355433,47.0691658593185
85,1436183356021,67.7789819337352
86,1436183356500,62.8058258117277
87,1436183356976,41.6412519640791
88,1436183357505,61.4379762803691
89,1436183357970,52.4459074383068
90,1436183358328,52.9677670296442
91,1436183358793,61.1981061937803
92,1436183359286,44.9631811143976
93,1436183359810,62.3601451419075
94,1436183360288,59.0401651942191
95,1436183360789,45.0530494263254
96,1436183361270,61.4859179651196
97,1436183361792,62.2404861391675
98,1436183362278,46.5205444377968
99,1436183362770,60.932555676452
100,1436183363259,55.5673595845735
101,1436183363749,45.8387978079569
102,1436183364223,49.431139206091
103,1436183364744,66.2986367247818
104,1436183365231,47.4696885149549
105,1436183365734,58.862431057078
106,1436183366201,60.2356654398753
107,1436183366676,48.5368900218567
108,1436183367082,44.3827368993301
109,1436183367436,47.0510351434572
110,1436183367902,46.1983702021255
111,1436183368372,61.0720240710174
112,1436183368847,49.9163544166834
113,1436183369334,58.4454038164204
114,1436183369891,55.0661914564751
115,1436183370379,49.8730881702574
116,1436183370878,45.8029188368433
117,1436183371369,59.3076004332673
118,1436183371859,52.2151925691252
119,1436183372308,60.7487890866614
120,1436183372729,47.3773259633074
121,1436183373193,62.483076356204
122,1436183373667,64.6801664562188
123,1436183374142,49.2591946465421
124,1436183374628,50.4384141318279
125,1436183375183,61.2136273765054
126,1436183375670,46.0658843835759
127,1436183376141,47.4523424325252
128,1436183376631,62.1869749085512
129,1436183377101,54.7829278806386
130,1436183377586,56.4461170432527
131,1436183378042,51.1918415152602
132,1436183378510,62.2133955751034
133,1436183378985,58.6328712369274
134,1436183379460,48.4462830387892
135,1436183380014,59.0427423382901
136,1436183380510,54.1237153560933
137,1436183380982,50.2938062206407
138,1436183381459,56.6805493907554
139,1436183381924,58.8168390641957
140,1436183382410,52.1170791009999
141,1436183382906,55.5657085947174
142,1436183383408,54.2384321091165
143,1436183383920,60.0183988733165
144,1436183384420,50.9797186926529
145,1436183384903,59.4907858802949
146,1436183385391,55.4507100597843
147,1436183385909,54.1443656583832
148,1436183386411,57.3339636944209
149,1436183386892,52.2603084607657
150,1436183387365,52.8235548941877
151,1436183387786,51.2108415113944
152,1436183388232,62.6805329219626
153,1436183388698,69.8593466507572
154,1436183389174,49.8737446559967
155,1436183389662,44.6596941648656
156,1436183390131,56.6917261712683
157,1436183390622,55.8887683268177
158,1436183391124,58.1774502249605
159,1436183391613,51.2124870707828
160,1436183392043,61.6722777846198
161,1436183392447,61.767432283423
162,1436183392910,52.5921901867804
163,1436183393409,57.8206161184798
164,1436183393902,60.84133300621
165,1436183394391,54.647825075241
166,1436183394875,59.8057055631176
167,1436183395380,53.4171961596162
168,1436183395863,57.5836578639758
169,1436183396390,59.2415009652844
170,1436183396888,60.3924364614827
171,1436183397400,53.3088723521587
172,1436183397869,57.1171756505213
173,1436183398262,43.5828109049918
174,1436183398722,49.1372146858211
175,1436183399170,60.2145914089791
176,1436183399635,58.9191841656702
177,1436183400122,59.2346361058783
178,1436183400686,55.6967139921132
179,1436183401196,54.0696833918745
180,1436183401703,48.6424230940521
181,1436183402188,49.9961699521551
182,1436183402633,60.1481533867358
183,1436183403058,59.5508982622566
184,1436183403503,53.1059997464735
185,1436183403978,57.1469956656033
186,1436183404469,51.2171414596107
187,1436183404959,57.7746363090032
188,1436183405435,58.0199730657249
189,1436183405925,44.0557995645115
190,1436183406411,60.7697957601188
191,1436183406893,58.6060384950976
192,1436183407404,46.7347324527476
193,1436183407886,48.6094543694885
194,1436183408295,62.680857624408
195,1436183408729,61.455563630273
196,1436183409194,56.5629011354994
197,1436183409694,52.2075054042794
198,1436183410210,66.6660133746614
199,1436183410764,60.7219569182315
200,1436183411263,52.4982090000365
201,1436183411764,59.1866658321726
202,1436183412251,56.7483933915218
203,1436183412731,52.1172813027965
204,1436183413240,67.6052917017512
205,1436183413703,55.2800374588438
206,1436183414141,46.6152040461716
207,1436183414616,52.1360475127977
208,1436183415091,55.1872715398785
209,1436183415594,57.7544987697415
210,1436183416111,55.604183534656
211,1436183416594,44.4631551003856
212,1436183417078,62.1528596845987
213,1436183417568,52.1781678197742
214,1436183418055,51.6250829247822
215,1436183418512,63.8256276574334
216,1436183418867,55.8799045225549
217,1436183419285,64.237105265998
218,1436183419752,57.4777862791361
219,1436183420225,47.0079609309767
220,1436183420799,55.586184563349
221,1436183421292,59.0124017337275
222,1436183421778,51.5649015180707
223,1436183422264,46.6885123457163
224,1436183422751,57.714862665414
225,1436183423247,45.9169413578425
226,1436183423726,53.1515618305338
227,1436183424157,52.2992565901442
228,1436183424619,63.7722639406129
229,1436183425114,53.2762252966801
230,1436183425679,46.7816823387206
231,1436183426161,67.4075804831325
232,1436183426653,59.997432837806
233,1436183427141,46.7535566909864
234,1436183427630,53.1324080202357
235,1436183428119,63.6623029528377
236,1436183428584,56.2992741678398
237,1436183429071,60.5812036584866
238,1436183429546,44.8313836648435
239,1436183429965,61.2970834896059
240,1436183430455,58.9566119022259
241,1436183430922,52.5136433171143
242,1436183431420,53.6580972115304
243,1436183431913,57.0848693353511
244,1436183432382,59.1579396713276
245,1436183432853,60.9634020560611
246,1436183433304,43.2580523056537
247,1436183433820,60.6336464994278
248,1436183434307,61.4782163418286
249,1436183434804,50.1965455435468
250,1436183435248,48.5093272322189
251,1436183435615,50.522185318901
252,1436183436041,48.9360001208069
253,1436183436512,57.9550465579602
254,1436183437006,53.3376514501731
255,1436183437498,60.698372150236
256,1436183437982,48.8945767474735
257,1436183438468,59.1703239903992
258,1436183438951,61.5064554890606
259,1436183439429,45.9802630252474
260,1436183439897,63.2779849266431
261,1436183440446,54.3370677224657
262,1436183440963,49.128948233334
263,1436183441451,58.2331564655526
264,1436183441926,54.5515386845457
265,1436183442360,54.6714789806948
266,1436183442821,58.0411085027596
267,1436183443307,45.3013039399028
268,1436183443818,58.3540399261348
269,1436183444309,55.697386809499
270,1436183444804,42.2932953508476
271,1436183445241,48.1770233844167
272,1436183445667,51.6788053955484
273,1436183446102,64.5373727053169
274,1436183446563,57.7541151297958
275,1436183447064,47.1422226232891
276,1436183447557,44.5896222735973
277,1436183448051,57.3086256226364
278,1436183448551,53.7535744129369
279,1436183448991,62.323600204108
280,1436183449406,44.8670519583181
281,1436183449869,52.9110073837785
282,1436183450289,55.8118333705945
283,1436183450670,61.6118949748384
284,1436183451060,48.3247497417371
285,1436183451532,62.1526954180062
286,1436183452010,56.3530591382716
287,1436183452493,42.9595697363547
288,1436183452985,57.7073879230684
289,1436183453487,55.3640210305475
290,1436183453975,49.345425515179
291,1436183454447,55.071016485412
292,1436183454851,45.7719165872488
293,1436183455296,47.7139249470835
294,1436183455839,51.8315190952795
295,1436183456261,46.6281883028497
296,1436183456600,54.3469003960201
297,1436183457071,54.5450320301424
298,1436183457521,52.208499612837
299,1436183457927,43.8122451097698
300,1436183458377,54.3885291255869
301,1436183458825,50.8351022966476
302,1436183459306,58.4758172707466
303,1436183459768,52.3876101559955
304,1436183460267,43.8243187779883
305,1436183460785,63.1179492134019
306,1436183461286,56.3981944029763
307,1436183461793,57.9714161556216
308,1436183462278,46.8568056564343
309,1436183462790,53.4373369535596
310,1436183463219,55.0582563456983
311,1436183463571,59.3322218592656
312,1436183464032,55.970127238321
313,1436183464520,54.3224413918005
314,1436183465015,46.9110983052869
315,1436183465493,56.5378160233502
316,1436183466020,56.2115297591366
317,1436183466503,46.0251540677692
318,1436183466977,50.6236442011628
319,1436183467360,49.0739720394761
320,1436183467769,48.0541223432141
321,1436183468221,55.2231272861324
322,1436183468705,54.7988093072719
323,1436183469196,55.5939520141804
324,1436183469675,49.0880001733287
325,1436183470151,50.9249246216047
326,1436183470662,49.6071477987832
327,1436183471202,50.7358641780591
328,1436183471666,50.8447755906159
329,1436183472153,59.3050251710157
330,1436183472653,54.249132696103
331,1436183473143,62.8816482381114
332,1436183473621,50.3444485407466
333,1436183474155,61.4217985827404
334,1436183474655,54.9472784730506
335,1436183475140,53.9709558878612
336,1436183475635,60.7997515154039
337,1436183476277,58.4256145495435
338,1436183476759,48.150812902599
339,1436183477219,64.8500626185865
340,1436183477656,59.7515030199191
341,1436183478111,57.0657236216673
342,1436183478590,55.2825152022747
343,1436183479099,50.4178517508634
344,1436183479501,52.7313729791611
345,1436183479889,53.6081670331167
346,1436183481740,45.7511871806077
347,1436183482197,48.1638811500661
348,1436183482692,52.7056537281096
349,1436183483163,57.4346867207118
350,1436183483665,45.6417755301233
351,1436183484173,64.0881679931531
352,1436183484674,52.1334865912209
353,1436183485185,50.8815901592068
354,1436183485672,50.2768882781179
355,1436183486222,53.5301507508819
356,1436183486716,47.4760681733908
357,1436183487196,51.4072601604176
358,1436183487582,45.9690797370853
359,1436183488034,54.4438564081215
360,1436183488500,56.3500963990555
361,1436183489001,52.3592973021307
362,1436183489490,58.1675676724301
363,1436183490000,52.4851090925805
364,1436183490492,58.5488573336217
365,1436183491028,56.6815915556928
366,1436183491513,45.4599326794784
367,1436183493352,52.7242488051805
368,1436183493730,41.7325892725606
369,1436183494212,72.7073923462578
370,1436183494694,61.1309281601789
371,1436183495196,51.4969430024436
372,1436183495694,59.425961524532
373,1436183496183,50.2513676415642
374,1436183496675,63.4955326337375
375,1436183497172,54.5781295690019
376,1436183497663,45.1074538093553
377,1436183498108,41.4376343078921
378,1436183498526,43.0382611998632
379,1436183499027,45.363518211058
380,1436183499483,60.3619717582203
381,1436183499885,62.8510911951965
382,1436183500236,58.4592652972677
383,1436183500598,49.5477802903427
384,1436183501011,55.8421022964551
385,1436183501462,60.9571912229278
386,1436183501949,60.0970698945241
387,1436183502436,57.2319897548738
388,1436183502930,44.6488187729956
389,1436183503364,52.383313436672
390,1436183503813,59.1252839676144
391,1436183504333,62.8059319816235
392,1436183504840,48.1181511756214
393,1436183505374,50.7640121154634
394,1436183505832,62.3419207386162
395,1436183507239,49.3367289742179
396,1436183507691,53.2717417606829
397,1436183508168,57.8751927736097
398,1436183508606,58.5663945282951
399,1436183508987,63.6268890951892
400,1436183509342,62.928904150169
401,1436183509761,58.3596043685157
402,1436183510216,56.1040509405822
403,1436183510681,55.6214882539675
404,1436183511167,46.0379098071606
405,1436183511636,59.0699419312812
406,1436183512061,59.2374767683382
407,1436183512517,60.032857211824
408,1436183512992,58.5010031906444
409,1436183513482,48.9920987302758
410,1436183513977,52.2211130923243
411,1436183514473,60.9428047117523
412,1436183514979,56.1781899296608
413,1436183515470,53.0315293023007
414,1436183516675,51.0792839174601
415,1436183517121,52.6487027063273
416,1436183517620,58.2133028293798
417,1436183518092,58.4805836176967
418,1436183518578,60.7148564074296
419,1436183519049,45.5512098198581
420,1436183519448,53.4115713407987
421,1436183519864,44.8985358665474
422,1436183520319,52.287058563861
423,1436183520811,56.990279605222
424,1436183521262,58.6241338015852
425,1436183521779,60.4935367332545
426,1436183522260,49.096081619945
427,1436183522753,64.9137593660233
428,1436183523267,57.4968098497001
429,1436183523712,46.1997119592143
430,1436183524191,59.0855509115369
431,1436183524688,54.2724927938323
432,1436183525183,62.7637012411632
433,1436183525676,58.4596827734235
434,1436183526161,45.238439150009
435,1436183526650,58.7895119557016
436,1436183527141,58.6176976263592
437,1436183527628,50.9912558968292
438,1436183528118,50.314355312661
439,1436183528582,52.9917729898035
440,1436183529068,61.5087621569799
441,1436183529565,57.7562867814153
442,1436183530009,44.7221204653939
443,1436183530401,56.3938105000951
444,1436183531048,47.252723057926
445,1436183531452,56.9834912514678
446,1436183531874,58.4092568048618
447,1436183532323,47.3333327204528
448,1436183532830,52.7493467173991
449,1436183533328,52.9783012771806
450,1436183533821,55.2835871610445
451,1436183534290,58.026418063207
452,1436183534869,63.2360945563226
453,1436183535359,61.514373096611
454,1436183535846,57.1930329038655
455,1436183536309,42.6540643741455
456,1436183536724,53.6467855269722
457,1436183537161,51.9946234466393
458,1436183537616,56.6802085898388
459,1436183538121,59.4146118367753
460,1436183538598,51.8025691924839
461,1436183539078,50.6016209267725
462,1436183539550,69.4256965603465
463,1436183539943,66.4911873590461
464,1436183540292,59.5118581498949
465,1436183540678,52.4556710998346
466,1436183541183,58.7068119834504
467,1436183541617,57.6708733698466
468,1436183542058,53.7533462514361
469,1436183542549,44.8112585678173
470,1436183543047,56.7421261905632
471,1436183543509,63.0390957784334
472,1436183543987,51.6812163590142
473,1436183544406,61.6287467847262
474,1436183544862,43.6953667094644
475,1436183545358,55.6626395835763
476,1436183545843,58.5682521440665
477,1436183546347,50.0837535418314
478,1436183546845,45.6977618380874
479,1436183547323,58.3408534019732
480,1436183547802,59.4987134002874
481,1436183548289,61.3910069914127
482,1436183548793,49.2613156258905
483,1436183549295,65.9072309186358
484,1436183549791,55.3515590436504
485,1436183550313,44.5319126078567
486,1436183550859,60.8602581553642
487,1436183551315,58.7863671245034
488,1436183551718,44.9928294308981
489,1436183552175,57.5751629583134
490,1436183552661,51.9769755610948
491,1436183553146,63.6780821676535
492,1436183553631,52.3760883483381
493,1436183554120,62.4674910615197
494,1436183554495,49.097438046435
495,1436183554870,42.7681743472039
496,1436183555379,73.4214240371848
497,1436183555893,64.8508131644597
498,1436183556375,55.9478323725661
499,1436183556903,72.144916735456
500,1436183557333,69.7618089078781
501,1436183557769,41.4031866744015
502,1436183558247,47.476755957834
503,1436183558700,40.9987824999163
504,1436183559142,30.7770046476511
505,1436183559634,54.5094546569325
506,1436183560095,47.624266493802
507,1436183560547,38.3361906873538
508,1436183560998,52.3156990529682
509,1436183561383,54.2507986632569
510,1436183561797,58.5450667122684
511,1436183562242,43.3945796367159
512,1436183562719,45.8654644632485
513,1436183563208,40.8732343028504
514,1436183563692,32.9267078344481
515,1436183564159,53.4732798833264
516,1436183564627,42.6920980617383
517,1436183565061,46.3439899433255
518,1436183565489,59.0808490829463
519,1436183565936,68.7518068282012
520,1436183566391,38.4951125972298
521,1436183566872,52.6596319091989
522,1436183567370,59.0281644139138
523,1436183567857,35.5979457807679
524,1436183568361,35.2498740564779
525,1436183568844,36.085402058192
526,1436183569350,61.0687586637762
527,1436183569894,60.3523875832859
528,1436183570440,46.6239221903598
529,1436183570902,31.50897818043
530,1436183571384,25.0855399612114
531,1436183571890,32.1780479754518
532,1436183572323,38.0401853719929
533,1436183572756,38.7496903275433
534,1436183573216,29.4995407680633
535,1436183573704,49.705256895789
536,1436183574196,26.8874135459579
537,1436183574669,38.6219605294168
538,1436183575149,41.6605272575278
539,1436183575655,36.8338858508972
540,1436183576154,44.9792037360188
541,1436183576630,44.0150568804289
542,1436183577113,41.6517401598685
543,1436183577617,45.5468753109116
544,1436183578082,38.4173640866878
545,1436183578553,40.2181040862529
546,1436183579043,38.1653655830503
547,1436183579434,38.5224743076192
548,1436183579860,40.702659034202
549,1436183580294,44.0552108898191
550,1436183580783,36.1935239964451
551,1436183581286,39.3963941001644
552,1436183581771,61.8006131892466
553,1436183582250,47.6827109740518
554,1436183582719,36.2845555719138
555,1436183583170,39.6460210310309
556,1436183583600,21.9944890355026
557,1436183584067,28.3110384805602
558,1436183584561,37.4197148939813
559,1436183585037,32.3942171939119
560,1436183585514,37.6054850441504
561,1436183585897,35.9582451360845
562,1436183586295,40.5437627434551
563,1436183586747,29.6699298416042
564,1436183587207,42.7833251948631
565,1436183587673,38.9864136634669
566,1436183588139,32.8089723534268
567,1436183588619,39.7804668124263
568,1436183589124,41.1923558444559
569,1436183589582,30.1919258385172
570,1436183590065,35.5765263606138
571,1436183590540,20.3780263044459
572,1436183591052,25.0725573186675
573,1436183591464,26.419025380403
574,1436183591883,45.2863411042667
575,1436183592344,45.3698976722908
