id,attr_time,attr_db
1,1436183316341,17.1530977825232
2,1436183316808,17.1128809967029
3,1436183317307,18.2778609864226
4,1436183317789,18.4001901039102
5,1436183318321,19.2441115920009
6,1436183318793,17.985103496181
7,1436183319257,21.1037097077145
8,1436183319758,19.2311866501644
9,1436183320229,17.8553239241837
10,1436183320715,19.2966183228957
11,1436183321183,19.3118937868425
12,1436183321711,34.1644105465934
13,1436183322142,30.6192018980267
14,1436183322552,36.5469306359853
15,1436183323020,60.8229236937301
16,1436183323522,68.5610141984642
17,1436183323997,64.0832753528145
18,1436183325479,69.4723288854653
19,1436183325811,69.9571023434159
20,1436183326258,73.6620085471869
21,1436183326724,73.1556448826397
22,1436183327239,69.3419538418719
23,1436183327762,72.9882690288503
24,1436183328245,74.5386779649154
25,1436183328714,69.8122439569582
26,1436183329188,74.020082232368
27,1436183329688,72.5528335778388
28,1436183330090,69.6188893279043
29,1436183331496,72.1556981279683
30,1436183331939,71.9446630561232
31,1436183332425,72.4249156858346
32,1436183332929,70.3246242101702
33,1436183333458,71.2624582782269
34,1436183333937,73.6317166419294
35,1436183334424,68.3592666899772
36,1436183334920,71.9297518936395
37,1436183335405,71.1790680836441
38,1436183335869,70.2926676720842
39,1436183336312,72.9971006534749
40,1436183336710,71.6732204265767
41,1436183337121,70.5454590924547
42,1436183338636,72.7725468545145
43,1436183339102,72.8408293058898
44,1436183339483,72.1752559059831
45,1436183339878,72.2892331523713
46,1436183340343,71.3253007482189
47,1436183340827,70.9815921709734
48,1436183341309,71.511047663175
49,1436183341801,72.4398754052557
50,1436183342291,72.3265180086439
51,1436183343407,72.2866370530314
52,1436183343852,71.7086565724579
53,1436183344321,73.558697402533
54,1436183344811,74.7212406550096
55,1436183345297,73.6842407503395
56,1436183345819,65.2423252851006
57,1436183346316,69.959756812213
58,1436183346778,70.4889623070371
59,1436183347155,72.4489964531897
60,1436183347570,72.1656736514431
61,1436183348034,71.7283259753835
62,1436183348531,70.0861492522576
63,1436183349049,68.4094221858053
64,1436183349517,72.6685163503718
65,1436183350028,73.3208336811251
66,1436183350510,70.4857494486886
67,1436183351027,73.9336488822173
68,1436183351550,70.6776514382034
69,1436183352024,71.1127404678552
70,1436183352502,72.8414418987556
71,1436183353008,69.5470158179641
72,1436183353493,69.3061772694047
73,1436183354007,73.4228160869465
74,1436183354480,71.585409840152
75,1436183354963,69.5457866172572
76,1436183355455,69.935458286274
77,1436183355955,70.7265097870809
78,1436183356448,70.7065000814193
79,1436183356909,71.5504753028723
80,1436183357359,71.1183748051518
81,1436183357869,72.7135736143025
82,1436183358368,72.1014660945658
83,1436183358847,73.5770909027721
84,1436183359321,72.1096118109546
85,1436183359798,72.7243476337331
86,1436183360279,68.2124629848876
87,1436183360754,71.8097784211624
88,1436183361220,72.9137587682949
89,1436183361641,73.2009720196659
90,1436183362085,73.8133149213313
91,1436183362559,68.9288321959098
92,1436183363056,67.961278127884
93,1436183363463,70.5023046620636
94,1436183363930,71.8304423757234
95,1436183364423,71.7728206628525
96,1436183364914,73.1564589099263
97,1436183365437,73.1149422205146
98,1436183365897,70.3258789229072
99,1436183366294,73.9821006901506
100,1436183366756,71.6169549432475
101,1436183367204,71.4939179684886
102,1436183367655,71.4023673386336
103,1436183368105,71.6571985192607
104,1436183368585,70.2278443997108
105,1436183369058,71.6513858235856
106,1436183369547,71.5862496672375
107,1436183370055,71.5405857816283
108,1436183370519,73.1898594972456
109,1436183371003,72.9504796556605
110,1436183371476,73.499740626696
111,1436183372009,70.7740988490284
112,1436183372478,72.2147520045676
113,1436183372962,71.4585230414243
114,1436183373442,71.7475669470109
115,1436183373938,72.5841252224673
116,1436183374445,70.7555242517471
117,1436183374904,71.0155846845447
118,1436183375401,72.6313720487771
119,1436183375790,73.6620249196117
120,1436183376220,72.1515865406306
121,1436183376673,73.316186831997
122,1436183377115,72.1340855933046
123,1436183377543,72.5582444851854
124,1436183378024,70.4996010525208
125,1436183378519,71.8147076399029
126,1436183379003,72.3029656796681
127,1436183379484,72.5590623443529
128,1436183379983,72.7504814288337
129,1436183380471,72.8765289648991
130,1436183380940,72.4193273945356
131,1436183381459,72.4076284970771
132,1436183381928,72.6939253659882
133,1436183382409,70.821647384355
134,1436183382812,73.6555772718824
135,1436183383239,73.5230663255737
136,1436183383709,71.2800460136091
137,1436183384200,72.5554012219212
138,1436183384686,72.0298516310098
139,1436183385171,71.5315610808296
140,1436183385657,74.1077773435326
141,1436183386151,72.2588077379149
142,1436183386628,73.1852430545041
143,1436183387167,72.6416916000641
144,1436183387676,73.6496302263313
145,1436183388132,72.7506176605705
146,1436183388574,72.0341560228496
147,1436183389053,72.5121985701105
148,1436183389547,71.349991040735
149,1436183390021,71.0678161490872
150,1436183390509,70.3817827533197
151,1436183391006,72.8369571814383
152,1436183391495,72.4199633681981
153,1436183391981,72.0306549432247
154,1436183392486,74.3848072637269
155,1436183392980,71.376414558768
156,1436183393489,71.3723575605193
157,1436183393998,73.5063068713255
158,1436183394498,69.9526732545106
159,1436183394882,71.0749896058324
160,1436183395314,68.5720707289939
161,1436183395769,70.9087698900064
162,1436183396275,71.3009816602721
163,1436183396774,70.8495617047645
164,1436183397314,72.2847520827429
165,1436183397807,72.0608228150344
166,1436183398263,71.1293932606562
167,1436183398699,69.1882441620842
168,1436183399181,72.7828701994853
169,1436183399668,71.7710219766388
170,1436183400151,72.9157158644205
171,1436183400629,74.005581646649
172,1436183401126,71.9855656822368
173,1436183401608,74.4375044143521
174,1436183402061,71.415944989532
175,1436183402456,70.9734986042903
176,1436183402832,72.3866951126073
177,1436183403304,71.7680276590326
178,1436183403782,74.5417909870312
179,1436183404273,72.6741558229229
180,1436183404761,73.2232350779634
181,1436183405258,72.2850673606385
182,1436183405744,72.169236516129
183,1436183406235,73.6335386565792
184,1436183406727,72.9760553793795
185,1436183407243,75.6720367698874
186,1436183407736,73.3523600467402
187,1436183408212,72.82277427861
188,1436183408595,68.5908948493167
189,1436183409031,69.6268444228159
190,1436183409473,72.7722033768872
191,1436183409915,70.2556642071213
192,1436183410367,70.8996176700097
193,1436183410840,72.2050372323731
194,1436183411323,71.9727675098612
195,1436183411816,72.0143213327517
196,1436183412350,73.6975207497923
197,1436183412889,73.5133714611006
198,1436183413404,71.860315525482
199,1436183413835,73.5039882469546
200,1436183414297,72.4218134982357
201,1436183414786,74.5066578656465
202,1436183415249,70.7861322608656
203,1436183415754,72.1902884076255
204,1436183416255,71.3418135408901
205,1436183416724,72.1373492712134
206,1436183417228,72.9223343728885
207,1436183417706,71.6233986881853
208,1436183418201,72.6669221546465
209,1436183418588,73.839563991506
210,1436183419029,72.5872179962933
211,1436183419499,72.0608744929349
212,1436183420002,71.9320626861583
213,1436183420499,73.4279020883884
214,1436183420971,73.3586074467834
215,1436183421488,70.896610595902
216,1436183421984,73.1034995001756
217,1436183422543,71.8545485019221
218,1436183423033,71.1622958991544
219,1436183423504,72.0849251839802
220,1436183423887,74.2233228227601
221,1436183424344,71.8295383559819
222,1436183424823,72.4636423917499
223,1436183425302,71.842211336914
224,1436183425790,72.6382424965341
225,1436183426272,71.3817013376537
226,1436183426752,72.3623301571553
227,1436183427271,69.3119608093602
228,1436183427748,74.2969890235434
229,1436183428212,69.2840424840218
230,1436183428590,71.3499481718004
231,1436183428999,71.5186737600499
232,1436183429467,71.7793641932984
233,1436183429947,69.8061824230492
234,1436183430470,72.5955872675809
235,1436183430942,72.0572856017567
236,1436183431448,70.5084527811941
237,1436183431937,70.0155594055492
238,1436183432445,72.8147963638505
239,1436183432898,74.1259122171894
240,1436183433347,71.0094149956207
241,1436183433822,72.3765490252275
242,1436183434307,71.8454574775183
243,1436183434780,71.5087902416694
244,1436183435262,72.0853549398564
245,1436183435776,73.0757949182673
246,1436183436274,72.1804422163776
247,1436183436771,72.7038412027676
248,1436183437252,72.8760326430302
249,1436183437674,73.5146166776308
250,1436183438095,71.9070249163079
251,1436183438517,72.1201607491773
252,1436183438988,72.0731129806961
253,1436183439487,71.5397986818399
254,1436183439998,72.4447245343449
255,1436183440487,72.4538268789208
256,1436183440999,71.2992879373725
257,1436183441515,73.4026048342935
258,1436183442017,68.4687670342529
259,1436183442516,72.5643776376606
260,1436183443033,71.8282073350062
261,1436183443499,70.9456773490811
262,1436183443929,72.4085901794123
263,1436183444334,72.5699995244611
264,1436183444674,71.2296126652715
265,1436183445039,67.3857636499399
266,1436183445470,71.9085153472777
267,1436183445919,73.7219547084741
268,1436183446415,71.685254618732
269,1436183446914,74.915743700363
270,1436183447445,70.6006945738033
271,1436183447945,71.0276233838894
272,1436183448475,73.135106120664
273,1436183448926,69.1318032826782
274,1436183449353,73.0245318007753
275,1436183449807,71.3753291305972
276,1436183450318,71.2570053649851
277,1436183450756,73.3137610583155
278,1436183451135,70.929256640787
279,1436183451504,75.2427623897061
280,1436183451978,72.4911291922698
281,1436183452491,72.2882050568141
282,1436183452917,71.8148737736246
283,1436183453348,73.6264410844681
284,1436183453803,72.3265264532801
285,1436183454299,71.1221522893742
286,1436183454774,71.4629420465427
287,1436183455172,72.6947278084496
288,1436183455661,70.0533408667778
289,1436183456151,74.9714949561731
290,1436183456641,71.1570947465879
291,1436183457132,72.1000039902116
292,1436183457635,69.8319951569908
293,1436183458151,73.1995332989392
294,1436183458690,71.2392509000562
295,1436183459187,70.2310598623379
296,1436183459671,70.3045151884612
297,1436183460186,72.4707847707239
298,1436183460694,71.5204880067684
299,1436183461148,72.2785870557647
300,1436183461553,69.6995161883772
301,1436183461978,71.6753898341559
302,1436183462454,73.6490412550199
303,1436183462988,73.7972451339666
304,1436183463480,72.6765018722717
305,1436183463937,72.4919488803503
306,1436183464301,72.1355336539043
307,1436183464768,73.4831808396426
308,1436183465247,69.36394600755
309,1436183465719,73.7726072663996
310,1436183466201,69.9775383954015
311,1436183466699,74.1837271657718
312,1436183467188,70.7658793567183
313,1436183467695,73.154355693211
314,1436183468100,70.8102328823725
315,1436183468533,71.2322970647028
316,1436183469000,73.8276622759229
317,1436183469492,74.1190741859944
318,1436183469973,73.4503835476064
319,1436183470467,70.8473226407791
320,1436183470979,71.809157177917
321,1436183471472,68.7464617234094
322,1436183471930,72.00043158103
323,1436183472375,70.0497122791805
324,1436183472848,70.5655434692221
325,1436183473344,72.4772343269888
326,1436183473796,71.2160213323935
327,1436183474294,71.7632603058747
328,1436183474780,71.5367537214539
329,1436183475282,73.8999287095784
330,1436183475704,74.0609297213871
331,1436183476169,71.2984455767857
332,1436183476643,72.2247588148301
333,1436183477142,71.7220439885585
334,1436183477650,73.2726782225567
335,1436183478155,73.1230677472375
336,1436183478741,71.7085873595352
337,1436183479262,72.0422057199859
338,1436183479747,72.2533606041245
339,1436183480262,72.1147836592081
340,1436183480746,74.6115760007228
341,1436183481242,71.5317550060141
342,1436183481707,74.5251316421007
343,1436183482218,72.4629406754238
344,1436183482751,72.3022448800163
345,1436183483251,71.3911029291543
346,1436183483747,73.0996487296782
347,1436183484113,71.1221200260357
348,1436183484490,73.6143897343829
349,1436183484933,70.8577643164372
350,1436183485460,70.1295451514904
351,1436183485938,72.3654409735796
352,1436183486450,71.1414188518685
353,1436183486961,72.4396786755105
354,1436183487470,71.9249488171359
355,1436183487903,73.4276633658706
356,1436183488375,71.4077049204122
357,1436183488865,73.6931386368862
358,1436183489364,70.6860991828525
359,1436183489855,73.2248909672483
360,1436183490311,70.0428469793251
361,1436183490748,71.9723804711459
362,1436183491200,73.7780380968423
363,1436183491683,71.6107054660404
364,1436183492193,71.9413305349955
365,1436183492689,71.7824770658732
366,1436183493250,70.2069693598815
367,1436183493739,74.1475930165015
368,1436183494245,71.3707374282135
369,1436183494736,73.1661107353252
370,1436183495206,73.4845264203869
371,1436183495616,73.1714311230772
372,1436183496053,72.7759575220209
373,1436183496520,71.2245442582588
374,1436183497000,73.4293816351201
375,1436183497494,72.7044139388449
376,1436183497935,71.6696738154318
377,1436183498372,69.7772345307759
378,1436183498892,72.1736715617376
379,1436183499372,69.5834692219807
380,1436183499865,67.4325053845827
381,1436183500355,73.0844307152304
382,1436183500799,73.3317195800629
383,1436183501282,72.2865532148524
384,1436183501768,71.8330832852475
385,1436183502258,73.7648719632391
386,1436183502756,72.6167799372935
387,1436183503328,70.3008856665018
388,1436183503891,72.0285850553562
389,1436183504314,71.4284330466359
390,1436183504747,72.0967523963652
391,1436183505152,74.3573165064093
392,1436183505603,71.5635724705036
393,1436183506069,70.3021299225765
394,1436183506567,72.2151366762147
395,1436183507063,71.1968991781845
396,1436183507590,72.4431311905576
397,1436183508119,73.2263247237003
398,1436183508566,73.5719847148208
399,1436183508996,72.4696938867293
400,1436183509468,72.0740067804575
401,1436183509955,73.2488465041003
402,1436183510463,71.2246500964109
403,1436183510948,71.8814545203607
404,1436183511435,68.2338457067636
405,1436183511936,72.4369851920732
406,1436183512439,73.3297575309159
407,1436183512947,72.7901911969336
408,1436183513505,70.443460049525
409,1436183514006,72.8906948062473
410,1436183514521,72.0396992211793
411,1436183515021,71.4022041642786
412,1436183515539,73.0328322907479
413,1436183516059,73.3449545780109
414,1436183516550,71.3164542675963
415,1436183517041,73.484426124955
416,1436183517472,69.5632500888486
417,1436183517923,72.1042648886937
418,1436183518466,72.7211164200904
419,1436183518862,72.5595931417126
420,1436183519279,69.6526163860329
421,1436183519739,72.161870599485
422,1436183520219,72.9752885564862
423,1436183520706,71.4858294749056
424,1436183521201,72.8533259607362
425,1436183521656,71.340544615675
426,1436183522068,72.6279650984499
427,1436183522555,71.2915315731856
428,1436183523038,73.8736616386684
429,1436183523584,73.8046062097169
430,1436183524035,69.8762901676513
431,1436183524411,72.491828799194
432,1436183524829,67.9779102223111
433,1436183525282,72.5936644184782
434,1436183525773,72.6811265498406
435,1436183526252,74.455555517365
436,1436183526760,73.2186350855065
437,1436183527260,71.9307871048963
438,1436183527742,72.5300598129003
439,1436183528208,71.9502276182234
440,1436183529620,74.0797384051125
441,1436183530130,71.0466935500135
442,1436183530615,72.7179430569977
443,1436183531104,70.6830828437585
444,1436183531586,73.2325368397181
445,1436183532081,70.6136078835757
446,1436183532616,72.9527980807413
447,1436183533044,72.7801496178626
448,1436183533540,71.9331132199742
449,1436183534060,71.8486754667709
450,1436183534560,72.3721668440464
451,1436183535086,71.4565080419699
452,1436183535591,71.3067429206997
453,1436183536097,71.2778749159531
454,1436183536587,72.4680499620698
455,1436183537094,72.094849826261
456,1436183537588,72.1014156760739
457,1436183538091,73.5710383507667
458,1436183538635,72.4926137884099
459,1436183539990,73.7460237342674
460,1436183540393,73.5385027562252
461,1436183540846,73.2123624145058
462,1436183541341,72.439458118283
463,1436183541832,70.3752836859321
464,1436183542325,73.8632286646769
465,1436183542806,71.7229630966602
466,1436183543356,73.836600855081
467,1436183543828,72.8487509638476
468,1436183544322,73.4529061013343
469,1436183544790,72.956914552
470,1436183545249,73.0470925229501
471,1436183545640,70.7361828769503
472,1436183546081,72.8347610226486
473,1436183546580,73.2485540363463
474,1436183547676,71.1624645862538
475,1436183548048,73.3245884328509
476,1436183548405,72.9516152873293
477,1436183548846,73.3857958171911
478,1436183549326,70.9276936210005
479,1436183549826,74.709248811851
480,1436183550284,70.0207081750459
481,1436183550750,72.454259509828
482,1436183551189,73.5939143658359
483,1436183551568,69.317792195932
484,1436183552005,74.3450971035654
485,1436183552477,71.2989315477977
486,1436183552980,73.2384725438953
487,1436183553488,72.9714663581611
488,1436183554951,73.8397312324763
489,1436183555351,70.0331415526067
490,1436183555794,74.0442679548759
491,1436183556267,68.3969127974603
492,1436183556741,70.4434966020342
493,1436183557228,56.5982872444992
494,1436183557720,72.03492904431
495,1436183558218,59.0280487104456
496,1436183558734,54.5896339043019
497,1436183559219,54.9336164979688
498,1436183559706,60.283380395271
499,1436183560183,48.0468732914229
500,1436183560685,62.8351606496143
501,1436183561193,43.8436564366494
502,1436183561676,31.5757132278122
503,1436183562145,56.6726088084971
504,1436183562516,58.3966016346841
505,1436183563490,58.7541283330874
506,1436183563880,32.0492668425654
507,1436183564315,34.0659101764422
508,1436183564783,42.8217025000788
509,1436183565210,35.8504685053928
510,1436183565699,45.6384245391602
511,1436183566178,41.8182126859181
512,1436183566649,51.5408483749075
513,1436183567138,30.9016318176778
514,1436183567573,53.5032700025922
515,1436183568045,57.0352005829474
516,1436183568551,46.655795519342
517,1436183569062,66.5180582905454
518,1436183569531,69.0573436661813
519,1436183570031,68.5874438530967
520,1436183570554,66.0826679807012
521,1436183570951,62.3927105887374
522,1436183571294,52.9002198134041
523,1436183571741,65.8214765608548
524,1436183572203,62.7512320152037
525,1436183572641,65.2137819154381
526,1436183573030,59.4832552703003
527,1436183573479,66.6810584222554
528,1436183574015,62.5921513731117
529,1436183574507,64.1129050696092
530,1436183575007,58.7235405868824
531,1436183575530,63.9736081797995
532,1436183575988,29.5253722412837
533,1436183576437,13.6611419187681
534,1436183576925,39.9055511045931
535,1436183577418,38.7525201785429
536,1436183577899,21.595143385373
537,1436183578404,37.5180824121621
538,1436183578931,37.4910120022717
539,1436183579419,27.1170974542548
540,1436183579936,17.7415145256263
541,1436183580432,42.3021020377978
542,1436183580924,41.9212851281561
543,1436183581425,24.0691549816512
544,1436183581925,27.8684318464941
545,1436183582426,54.2976403924207
546,1436183582937,40.7941316380826
547,1436183583399,16.3571354725666
548,1436183583776,28.2064150969616
549,1436183584260,14.9551633673298
550,1436183584715,14.2166047012133
551,1436183585077,18.5015767988804
552,1436183585477,27.3984468448509
553,1436183585926,14.9132650761048
554,1436183586425,30.8177587036768
555,1436183586899,32.066326966548
556,1436183587380,22.7346709508824
557,1436183587864,24.666153441553
558,1436183588334,49.5815988850069
559,1436183588836,56.3524171611883
560,1436183589289,53.4154688250431
561,1436183589762,33.3864277677543
562,1436183590232,32.1865572841144
563,1436183590740,29.659243405062
564,1436183591214,21.0525392274719
565,1436183591695,20.9683849877807
566,1436183592176,23.4862550041698
567,1436183592656,24.2330783451035
568,1436183593138,21.2971535661492
569,1436183593686,18.5062671889458
570,1436183594184,22.4751188729427
571,1436183594695,14.9280191040104
572,1436183595175,13.8743571436445
573,1436183595746,22.630495995568
574,1436183596144,16.6412299192092
575,1436183596590,15.0286121776006
