id,attr_time,attr_light
1,1438258290018,0.0
2,1438258290039,0.0
3,1438258290058,0.0
4,1438258290079,0.0
5,1438258290099,0.0
6,1438258290116,0.0
7,1438258290139,0.0
8,1438258290159,0.0
9,1438258290178,0.0
10,1438258290204,0.0
11,1438258290260,0.0
12,1438258290261,0.0
13,1438258290273,0.0
14,1438258290280,0.0
15,1438258290298,0.0
16,1438258290317,0.0
17,1438258290336,0.0
18,1438258290361,0.0
19,1438258290377,0.0
20,1438258290397,0.0
21,1438258290418,0.0
22,1438258290436,0.0
23,1438258290460,0.0
24,1438258290479,0.0
25,1438258290499,0.0
26,1438258290519,0.0
27,1438258290542,0.0
28,1438258290559,0.0
29,1438258290579,0.0
30,1438258290599,0.0
31,1438258290619,0.0
32,1438258290639,0.0
33,1438258290659,0.0
34,1438258290676,0.0
35,1438258290696,0.0
36,1438258290723,0.0
37,1438258290738,0.0
38,1438258290763,0.0
39,1438258290776,0.0
40,1438258290798,0.0
41,1438258290818,0.0
42,1438258290840,0.0
43,1438258290860,0.0
44,1438258290881,0.0
45,1438258290900,0.0
46,1438258290917,0.0
47,1438258290941,0.0
48,1438258290997,0.0
49,1438258291007,0.0
50,1438258291008,0.0
51,1438258291018,0.0
52,1438258291045,0.0
53,1438258291057,0.0
54,1438258291079,0.0
55,1438258291098,0.0
56,1438258291117,0.0
57,1438258291137,0.0
58,1438258291158,0.0
59,1438258291180,0.0
60,1438258291202,0.0
61,1438258291217,0.0
62,1438258291243,0.0
63,1438258291256,0.0
64,1438258291277,0.0
65,1438258291297,0.0
66,1438258291317,0.0
67,1438258291339,0.0
68,1438258291360,0.0
69,1438258291378,0.0
70,1438258291400,0.0
71,1438258291420,0.0
72,1438258291440,0.0
73,1438258291458,0.0
74,1438258291478,0.0
75,1438258291501,0.0
76,1438258291522,0.0
77,1438258291541,0.0
78,1438258291560,0.0
79,1438258291578,0.0
80,1438258291598,0.0
81,1438258291619,0.0
82,1438258291638,0.0
83,1438258291657,0.0
84,1438258291727,0.0
85,1438258291728,0.0
86,1438258291729,0.0
87,1438258291783,0.0
88,1438258291784,0.0
89,1438258291785,0.0
90,1438258291798,0.0
91,1438258291834,0.0
92,1438258291837,0.0
93,1438258291857,0.0
94,1438258291887,0.0
95,1438258291904,0.0
96,1438258291918,0.0
97,1438258291945,0.0
98,1438258291957,0.0
99,1438258291977,0.0
100,1438258291998,0.0
101,1438258292022,0.0
102,1438258292041,0.0
103,1438258292061,0.0
104,1438258292081,0.0
105,1438258292101,0.0
106,1438258292118,0.0
107,1438258292141,0.0
108,1438258292161,0.0
109,1438258292180,0.0
110,1438258292200,0.0
111,1438258292218,0.0
112,1438258292238,0.0
113,1438258292257,0.0
114,1438258292283,0.0
115,1438258292304,0.0
116,1438258292324,0.0
117,1438258292347,0.0
118,1438258292357,0.0
119,1438258292377,0.0
120,1438258292399,0.0
121,1438258292418,0.0
122,1438258292440,0.0
123,1438258292493,0.0
124,1438258292494,0.0
125,1438258292509,0.0
126,1438258292518,0.0
127,1438258292542,0.0
128,1438258292559,0.0
129,1438258292579,0.0
130,1438258292600,0.0
131,1438258292619,0.0
132,1438258292638,0.0
133,1438258292659,0.0
134,1438258292685,0.0
135,1438258292700,0.0
136,1438258292719,0.0
137,1438258292741,0.0
138,1438258292759,0.0
139,1438258292780,0.0
140,1438258292801,0.0
141,1438258292822,0.0
142,1438258292840,0.0
143,1438258292861,0.0
144,1438258292879,0.0
145,1438258292900,0.0
146,1438258292921,0.0
147,1438258292942,0.0
148,1438258292961,0.0
149,1438258292980,0.0
150,1438258293001,0.0
151,1438258293021,0.0
152,1438258293041,0.0
153,1438258293062,0.0
154,1438258293082,0.0
155,1438258293111,0.0
156,1438258293123,0.0
157,1438258293142,0.0
158,1438258293165,0.0
159,1438258293227,0.0
160,1438258293228,0.0
161,1438258293229,0.0
162,1438258293238,0.0
163,1438258293266,0.0
164,1438258293281,0.0
165,1438258293299,0.0
166,1438258293319,0.0
167,1438258293338,0.0
168,1438258293360,0.0
169,1438258293379,0.0
170,1438258293402,0.0
171,1438258293419,0.0
172,1438258293442,0.0
173,1438258293461,0.0
174,1438258293481,0.0
175,1438258293502,0.0
176,1438258293522,0.0
177,1438258293542,0.0
178,1438258293559,0.0
179,1438258293581,0.0
180,1438258293602,0.0
181,1438258293620,0.0
182,1438258293642,0.0
183,1438258293660,0.0
184,1438258293685,0.0
185,1438258293702,0.0
186,1438258293719,0.0
187,1438258293741,0.0
188,1438258293759,0.0
189,1438258293780,0.0
190,1438258293802,0.0
191,1438258293822,0.0
192,1438258293842,0.0
193,1438258293861,0.0
194,1438258293887,0.0
195,1438258293945,0.0
196,1438258293956,0.0
197,1438258293957,0.0
198,1438258293963,0.0
199,1438258293981,0.0
200,1438258294002,0.0
201,1438258294019,0.0
202,1438258294039,0.0
203,1438258294079,0.0
204,1438258294080,0.0
205,1438258294101,0.0
206,1438258294120,0.0
207,1438258294140,0.0
208,1438258294162,0.0
209,1438258294181,0.0
210,1438258294201,0.0
211,1438258294223,0.0
212,1438258294241,0.0
213,1438258294262,0.0
214,1438258294280,0.0
215,1438258294302,0.0
216,1438258294323,0.0
217,1438258294341,0.0
218,1438258294361,0.0
219,1438258294380,0.0
220,1438258294401,0.0
221,1438258294421,0.0
222,1438258294440,0.0
223,1438258294463,0.0
224,1438258294484,0.0
225,1438258294504,0.0
226,1438258294522,0.0
227,1438258294541,0.0
228,1438258294562,0.0
229,1438258294581,0.0
230,1438258294601,0.0
231,1438258294620,0.0
232,1438258294667,0.0
233,1438258294668,0.0
234,1438258294701,0.0
235,1438258294702,0.0
236,1438258294722,0.0
237,1438258294743,0.0
238,1438258294765,0.0
239,1438258294780,0.0
240,1438258294801,0.0
241,1438258294822,0.0
242,1438258294841,0.0
243,1438258294862,0.0
244,1438258294883,0.0
245,1438258294901,0.0
246,1438258294923,0.0
247,1438258294943,0.0
248,1438258294963,0.0
249,1438258294983,0.0
250,1438258295000,0.0
251,1438258295022,0.0
252,1438258295043,0.0
253,1438258295063,0.0
254,1438258295081,0.0
255,1438258295101,0.0
256,1438258295120,0.0
257,1438258295141,0.0
258,1438258295164,0.0
259,1438258295184,0.0
260,1438258295200,0.0
261,1438258295223,0.0
262,1438258295243,0.0
263,1438258295264,0.0
264,1438258295284,0.0
265,1438258295302,0.0
266,1438258295321,0.0
267,1438258295343,0.0
268,1438258295362,0.0
269,1438258295383,0.0
270,1438258295447,0.0
271,1438258295448,0.0
272,1438258295449,0.0
273,1438258295461,0.0
274,1438258295482,0.0
275,1438258295517,0.0
276,1438258295521,0.0
277,1438258295542,0.0
278,1438258295567,0.0
279,1438258295582,0.0
280,1438258295603,0.0
281,1438258295621,0.0
282,1438258295642,0.0
283,1438258295664,0.0
284,1438258295684,0.0
285,1438258295701,0.0
286,1438258295723,0.0
287,1438258295747,0.0
288,1438258295762,0.0
289,1438258295783,0.0
290,1438258295803,0.0
291,1438258295826,0.0
292,1438258295844,0.0
293,1438258295867,0.0
294,1438258295881,0.0
295,1438258295902,0.0
296,1438258295922,0.0
297,1438258295942,0.0
298,1438258295962,0.0
299,1438258295981,0.0
300,1438258296005,0.0
301,1438258296022,0.0
302,1438258296045,0.0
303,1438258296064,0.0
304,1438258296155,0.0
305,1438258296156,0.0
306,1438258296157,0.0
307,1438258296158,0.0
308,1438258296166,0.0
309,1438258296182,0.0
310,1438258296204,0.0
311,1438258296223,0.0
312,1438258296241,0.0
313,1438258296273,0.0
314,1438258296282,0.0
315,1438258296308,0.0
316,1438258296322,0.0
317,1438258296341,0.0
318,1438258296361,0.0
319,1438258296381,0.0
320,1438258296401,0.0
321,1438258296422,0.0
322,1438258296442,0.0
323,1438258296462,0.0
324,1438258296485,0.0
325,1438258296502,0.0
326,1438258296525,0.0
327,1438258296542,0.0
328,1438258296562,0.0
329,1438258296583,0.0
330,1438258296603,0.0
331,1438258296624,0.0
332,1438258296643,0.0
333,1438258296664,0.0
334,1438258296684,0.0
335,1438258296702,0.0
336,1438258296726,0.0
337,1438258296750,0.0
338,1438258296767,0.0
339,1438258296782,0.0
340,1438258296803,0.0
341,1438258296860,0.0
342,1438258296861,0.0
343,1438258296862,0.0
344,1438258296882,0.0
345,1438258296902,0.0
346,1438258296923,0.0
347,1438258296942,0.0
348,1438258296966,0.0
349,1438258296982,0.0
350,1438258297003,0.0
351,1438258297022,0.0
352,1438258297043,0.0
353,1438258297062,0.0
354,1438258297085,0.0
355,1438258297102,0.0
356,1438258297128,0.0
357,1438258297144,0.0
358,1438258297162,0.0
359,1438258297182,0.0
360,1438258297203,0.0
361,1438258297224,0.0
362,1438258297246,0.0
363,1438258297263,0.0
364,1438258297286,0.0
365,1438258297306,0.0
366,1438258297326,0.0
367,1438258297348,0.0
368,1438258297365,0.0
369,1438258297386,0.0
370,1438258297405,0.0
371,1438258297425,0.0
372,1438258297447,0.0
373,1438258297479,0.0
374,1438258297490,0.0
375,1438258297503,0.0
376,1438258297523,0.0
377,1438258297551,0.0
378,1438258297588,0.0
379,1438258297589,0.0
380,1438258297605,0.0
381,1438258297623,0.0
382,1438258297643,0.0
383,1438258297663,0.0
384,1438258297683,0.0
385,1438258297703,0.0
386,1438258297734,0.0
387,1438258297760,0.0
388,1438258297772,0.0
389,1438258297791,0.0
390,1438258297803,0.0
391,1438258297823,0.0
392,1438258297847,0.0
393,1438258297867,0.0
394,1438258297886,0.0
395,1438258297905,0.0
396,1438258297927,0.0
397,1438258297947,0.0
398,1438258297965,0.0
399,1438258297986,0.0
400,1438258298005,0.0
401,1438258298025,0.0
402,1438258298047,0.0
403,1438258298063,0.0
404,1438258298088,0.0
405,1438258298107,0.0
406,1438258298127,0.0
407,1438258298144,0.0
408,1438258298164,0.0
409,1438258298183,0.0
410,1438258298209,0.0
411,1438258298229,0.0
412,1438258298249,0.0
413,1438258298265,0.0
414,1438258298286,0.0
415,1438258298341,0.0
416,1438258298353,0.0
417,1438258298354,0.0
418,1438258298363,0.0
419,1438258298393,0.0
420,1438258298404,0.0
421,1438258298423,0.0
422,1438258298459,0.0
423,1438258298463,0.0
424,1438258298484,0.0
425,1438258298506,0.0
426,1438258298527,0.0
427,1438258298543,0.0
428,1438258298567,0.0
429,1438258298588,0.0
430,1438258298607,0.0
431,1438258298627,0.0
432,1438258298647,0.0
433,1438258298667,0.0
434,1438258298686,0.0
435,1438258298708,0.0
436,1438258298725,0.0
437,1438258298744,0.0
438,1438258298767,0.0
439,1438258298785,0.0
440,1438258298806,0.0
441,1438258298827,0.0
442,1438258298847,0.0
443,1438258298868,0.0
444,1438258298887,0.0
445,1438258298907,0.0
446,1438258298927,0.0
447,1438258298946,0.0
448,1438258298967,0.0
449,1438258298985,0.0
450,1438258299008,0.0
451,1438258299070,0.0
452,1438258299071,0.0
453,1438258299072,0.0
454,1438258299086,0.0
455,1438258299108,0.0
456,1438258299127,0.0
457,1438258299144,0.0
458,1438258299165,0.0
459,1438258299185,0.0
460,1438258299206,0.0
461,1438258299224,0.0
462,1438258299274,0.0
463,1438258299275,0.0
464,1438258299285,0.0
465,1438258299306,0.0
466,1438258299328,0.0
467,1438258299348,0.0
468,1438258299370,0.0
469,1438258299388,0.0
470,1438258299407,0.0
471,1438258299428,0.0
472,1438258299448,0.0
473,1438258299465,0.0
474,1438258299487,0.0
475,1438258299508,0.0
476,1438258299528,0.0
477,1438258299548,0.0
478,1438258299568,0.0
479,1438258299585,0.0
480,1438258299608,0.0
481,1438258299628,0.0
482,1438258299649,0.0
483,1438258299669,0.0
484,1438258299693,0.0
485,1438258299707,0.0
486,1438258299734,0.0
487,1438258299810,0.0
488,1438258299811,0.0
489,1438258299812,0.0
490,1438258299813,0.0
491,1438258299826,0.0
492,1438258299845,0.0
493,1438258299866,0.0
494,1438258299886,0.0
495,1438258299905,0.0
496,1438258299925,0.0
497,1438258299945,0.0
498,1438258299968,0.0
499,1438258299988,0.0
500,1438258300006,0.0
501,1438258300029,0.0
502,1438258300048,0.0
503,1438258300068,0.0
504,1438258300088,0.0
505,1438258300109,0.0
506,1438258300128,0.0
507,1438258300148,0.0
508,1438258300171,0.0
509,1438258300188,0.0
510,1438258300208,0.0
511,1438258300225,0.0
512,1438258300248,0.0
513,1438258300268,0.0
514,1438258300289,0.0
515,1438258300308,0.0
516,1438258300328,0.0
517,1438258300349,0.0
518,1438258300371,0.0
519,1438258300388,0.0
520,1438258300409,0.0
521,1438258300430,0.0
522,1438258300449,0.0
523,1438258300468,0.0
524,1438258300488,0.0
525,1438258300541,0.0
526,1438258300542,0.0
527,1438258300547,0.0
528,1438258300567,0.0
529,1438258300588,0.0
530,1438258300607,0.0
531,1438258300625,0.0
532,1438258300646,0.0
533,1438258300665,0.0
534,1438258300688,0.0
535,1438258300714,0.0
536,1438258300726,0.0
537,1438258300751,0.0
538,1438258300767,0.0
539,1438258300788,0.0
540,1438258300809,0.0
541,1438258300825,0.0
542,1438258300849,0.0
543,1438258300869,0.0
544,1438258300889,0.0
545,1438258300909,0.0
546,1438258300928,0.0
547,1438258300948,0.0
548,1438258300968,0.0
549,1438258300989,0.0
550,1438258301008,0.0
551,1438258301029,0.0
552,1438258301048,0.0
553,1438258301071,0.0
554,1438258301091,0.0
555,1438258301111,0.0
556,1438258301130,0.0
557,1438258301148,0.0
558,1438258301168,0.0
559,1438258301187,0.0
560,1438258301207,0.0
561,1438258301231,0.0
562,1438258301295,0.0
563,1438258301296,0.0
564,1438258301297,0.0
565,1438258301309,0.0
566,1438258301345,0.0
567,1438258301348,0.0
568,1438258301399,0.0
569,1438258301400,0.0
570,1438258301448,0.0
571,1438258301449,0.0
572,1438258301450,0.0
573,1438258301473,0.0
574,1438258301488,0.0
575,1438258301511,0.0
576,1438258301527,0.0
577,1438258301550,0.0
578,1438258301569,0.0
579,1438258301593,0.0
580,1438258301610,0.0
581,1438258301630,0.0
582,1438258301650,0.0
583,1438258301670,0.0
584,1438258301688,0.0
585,1438258301709,0.0
586,1438258301728,0.0
587,1438258301750,0.0
588,1438258301767,0.0
589,1438258301787,0.0
590,1438258301808,0.0
591,1438258301827,0.0
592,1438258301850,0.0
593,1438258301873,0.0
594,1438258301890,0.0
595,1438258301910,0.0
596,1438258301928,0.0
597,1438258301948,0.0
598,1438258301968,0.0
599,1438258301988,0.0
600,1438258302014,0.0
601,1438258302074,0.0
602,1438258302075,0.0
603,1438258302087,0.0
604,1438258302088,0.0
605,1438258302110,0.0
606,1438258302130,0.0
607,1438258302148,0.0
608,1438258302172,0.0
609,1438258302199,0.0
610,1438258302208,0.0
611,1438258302233,0.0
612,1438258302248,0.0
613,1438258302270,0.0
614,1438258302291,0.0
615,1438258302311,0.0
616,1438258302330,0.0
617,1438258302350,0.0
618,1438258302370,0.0
619,1438258302391,0.0
620,1438258302411,0.0
621,1438258302431,0.0
622,1438258302450,0.0
623,1438258302470,0.0
624,1438258302489,0.0
625,1438258302511,0.0
626,1438258302528,0.0
627,1438258302548,0.0
628,1438258302567,0.0
629,1438258302589,0.0
630,1438258302614,0.0
631,1438258302633,0.0
632,1438258302651,0.0
633,1438258302668,0.0
634,1438258302692,0.0
635,1438258302710,0.0
636,1438258302728,0.0
637,1438258302829,0.0
638,1438258302830,0.0
639,1438258302831,0.0
640,1438258302832,0.0
641,1438258302833,0.0
642,1438258302977,0.0
643,1438258302978,0.0
644,1438258302979,0.0
645,1438258302980,0.0
646,1438258302981,0.0
647,1438258302982,0.0
648,1438258302983,0.0
649,1438258303013,0.0
650,1438258303014,0.0
651,1438258303028,0.0
652,1438258303058,0.0
653,1438258303068,0.0
654,1438258303088,0.0
655,1438258303108,0.0
656,1438258303141,0.0
657,1438258303148,0.0
658,1438258303168,0.0
659,1438258303189,0.0
660,1438258303208,0.0
661,1438258303228,0.0
662,1438258303248,0.0
663,1438258303268,0.0
664,1438258303288,0.0
665,1438258303316,0.0
666,1438258303327,0.0
667,1438258303348,0.0
668,1438258303370,0.0
669,1438258303391,0.0
670,1438258303411,0.0
671,1438258303430,0.0
672,1438258303451,0.0
673,1438258303468,0.0
674,1438258303487,0.0
675,1438258303511,0.0
676,1438258303531,0.0
677,1438258303551,0.0
678,1438258303569,0.0
679,1438258303589,0.0
680,1438258303610,0.0
681,1438258303628,0.0
682,1438258303649,0.0
683,1438258303670,0.0
684,1438258303688,0.0
685,1438258303709,0.0
686,1438258303729,0.0
687,1438258303751,0.0
688,1438258303770,0.0
689,1438258303788,0.0
690,1438258303810,0.0
691,1438258303832,0.0
692,1438258303849,0.0
693,1438258303872,0.0
694,1438258303891,0.0
695,1438258303909,0.0
696,1438258303931,0.0
697,1438258303952,0.0
698,1438258303970,0.0
699,1438258303992,0.0
700,1438258304009,0.0
701,1438258304029,0.0
702,1438258304048,0.0
703,1438258304071,0.0
704,1438258304091,0.0
705,1438258304110,0.0
706,1438258304131,0.0
707,1438258304149,0.0
708,1438258304169,0.0
709,1438258304189,0.0
710,1438258304210,0.0
711,1438258304229,0.0
712,1438258304291,0.0
713,1438258304292,0.0
714,1438258304293,0.0
715,1438258304310,0.0
716,1438258304334,0.0
717,1438258304352,0.0
718,1438258304370,0.0
719,1438258304391,0.0
720,1438258304409,0.0
721,1438258304430,0.0
722,1438258304452,0.0
723,1438258304470,0.0
724,1438258304491,0.0
725,1438258304512,0.0
726,1438258304531,0.0
727,1438258304551,0.0
728,1438258304570,0.0
729,1438258304592,0.0
730,1438258304613,0.0
731,1438258304631,0.0
732,1438258304651,0.0
733,1438258304672,0.0
734,1438258304693,0.0
735,1438258304709,0.0
736,1438258304734,0.0
737,1438258304750,0.0
738,1438258304771,0.0
739,1438258304790,0.0
740,1438258304812,0.0
741,1438258304831,0.0
742,1438258304851,0.0
743,1438258304873,0.0
744,1438258304890,0.0
745,1438258304911,0.0
746,1438258304930,0.0
747,1438258304951,0.0
748,1438258304973,0.0
749,1438258305024,0.0
750,1438258305025,0.0
751,1438258305032,0.0
752,1438258305050,0.0
753,1438258305071,0.0
754,1438258305093,0.0
755,1438258305110,0.0
756,1438258305130,0.0
757,1438258305151,0.0
758,1438258305172,0.0
759,1438258305194,0.0
760,1438258305211,0.0
761,1438258305230,0.0
762,1438258305251,0.0
763,1438258305272,0.0
764,1438258305291,0.0
765,1438258305311,0.0
766,1438258305332,0.0
767,1438258305351,0.0
768,1438258305372,0.0
769,1438258305392,0.0
770,1438258305413,0.0
771,1438258305431,0.0
772,1438258305451,0.0
773,1438258305473,0.0
774,1438258305490,0.0
775,1438258305511,0.0
776,1438258305531,0.0
777,1438258305554,0.0
778,1438258305574,0.0
779,1438258305594,0.0
780,1438258305612,0.0
781,1438258305631,0.0
782,1438258305652,0.0
783,1438258305672,0.0
784,1438258305692,0.0
785,1438258305786,0.0
786,1438258305805,0.0
787,1438258305806,0.0
788,1438258305809,0.0
789,1438258305812,0.0
790,1438258305813,0.0
791,1438258305853,0.0
792,1438258305854,0.0
793,1438258305870,0.0
794,1438258305891,0.0
795,1438258305923,0.0
796,1438258305932,0.0
797,1438258305954,0.0
798,1438258305972,0.0
799,1438258305991,0.0
800,1438258306011,0.0
801,1438258306031,0.0
802,1438258306052,0.0
803,1438258306071,0.0
804,1438258306093,0.0
805,1438258306112,0.0
806,1438258306133,0.0
807,1438258306151,0.0
808,1438258306172,0.0
809,1438258306192,0.0
810,1438258306212,0.0
811,1438258306232,0.0
812,1438258306252,0.0
813,1438258306273,0.0
814,1438258306293,0.0
815,1438258306313,0.0
816,1438258306333,0.0
817,1438258306355,0.0
818,1438258306374,0.0
819,1438258306393,0.0
820,1438258306412,0.0
821,1438258306432,0.0
822,1438258306593,0.0
823,1438258306594,0.0
824,1438258306595,0.0
825,1438258306596,0.0
826,1438258306597,0.0
827,1438258306598,0.0
828,1438258306599,0.0
829,1438258306600,0.0
830,1438258306623,0.0
831,1438258306652,0.0
832,1438258306653,0.0
833,1438258306671,0.0
834,1438258306695,0.0
835,1438258306723,0.0
836,1438258306758,0.0
837,1438258306759,0.0
838,1438258306774,0.0
839,1438258306792,0.0
840,1438258306814,0.0
841,1438258306834,0.0
842,1438258306854,0.0
843,1438258306874,0.0
844,1438258306894,0.0
845,1438258306913,0.0
846,1438258306933,0.0
847,1438258306953,0.0
848,1438258306972,0.0
849,1438258306991,0.0
850,1438258307013,0.0
851,1438258307034,0.0
852,1438258307054,0.0
853,1438258307097,0.0
854,1438258307098,0.0
855,1438258307112,0.0
856,1438258307132,0.0
857,1438258307155,0.0
858,1438258307174,0.0
859,1438258307193,0.0
860,1438258307212,0.0
861,1438258307232,0.0
862,1438258307252,0.0
863,1438258307272,0.0
864,1438258307292,0.0
865,1438258307328,0.0
866,1438258307348,0.0
867,1438258307352,0.0
868,1438258307372,0.0
869,1438258307392,0.0
870,1438258307412,0.0
871,1438258307439,0.0
872,1438258307452,0.0
873,1438258307515,0.0
874,1438258307516,0.0
875,1438258307517,0.0
876,1438258307532,0.0
877,1438258307552,0.0
878,1438258307572,0.0
879,1438258307595,0.0
880,1438258307612,0.0
881,1438258307636,0.0
882,1438258307655,0.0
883,1438258307677,0.0
884,1438258307695,0.0
885,1438258307722,0.0
886,1438258307734,0.0
887,1438258307754,0.0
888,1438258307775,0.0
889,1438258307795,0.0
890,1438258307817,0.0
891,1438258307835,0.0
892,1438258307855,0.0
893,1438258307875,0.0
894,1438258307897,0.0
895,1438258307914,0.0
896,1438258307935,0.0
897,1438258307953,0.0
898,1438258307974,0.0
899,1438258308010,0.0
900,1438258308021,0.0
901,1438258308038,0.0
902,1438258308052,0.0
903,1438258308075,0.0
904,1438258308095,0.0
905,1438258308113,0.0
906,1438258308134,0.0
907,1438258308157,0.0
908,1438258308176,0.0
909,1438258308196,0.0
910,1438258308213,0.0
911,1438258308237,0.0
912,1438258308257,0.0
