id,attr_time,attr_light
1,1438258290021,4.0
2,1438258290040,4.0
3,1438258290060,4.0
4,1438258290082,4.0
5,1438258290105,4.0
6,1438258290124,4.0
7,1438258290145,4.0
8,1438258290162,4.0
9,1438258290183,4.0
10,1438258290202,4.0
11,1438258290220,4.0
12,1438258290244,4.0
13,1438258290266,4.0
14,1438258290285,4.0
15,1438258290302,4.0
16,1438258290325,4.0
17,1438258290380,4.0
18,1438258290381,4.0
19,1438258290382,4.0
20,1438258290402,4.0
21,1438258290424,4.0
22,1438258290442,4.0
23,1438258290460,4.0
24,1438258290480,4.0
25,1438258290502,4.0
26,1438258290521,4.0
27,1438258290542,4.0
28,1438258290561,4.0
29,1438258290580,4.0
30,1438258290604,4.0
31,1438258290621,4.0
32,1438258290641,4.0
33,1438258290662,4.0
34,1438258290683,4.0
35,1438258290703,4.0
36,1438258290724,4.0
37,1438258290743,4.0
38,1438258290762,4.0
39,1438258290787,4.0
40,1438258290804,4.0
41,1438258290823,4.0
42,1438258290845,4.0
43,1438258290862,4.0
44,1438258290883,4.0
45,1438258290900,4.0
46,1438258290921,4.0
47,1438258290942,4.0
48,1438258290966,4.0
49,1438258290993,4.0
50,1438258291007,4.0
51,1438258291021,4.0
52,1438258291082,4.0
53,1438258291176,4.0
54,1438258291177,4.0
55,1438258291178,4.0
56,1438258291179,4.0
57,1438258291180,4.0
58,1438258291190,4.0
59,1438258291191,4.0
60,1438258291207,4.0
61,1438258291235,4.0
62,1438258291241,4.0
63,1438258291261,4.0
64,1438258291285,4.0
65,1438258291302,4.0
66,1438258291325,4.0
67,1438258291343,4.0
68,1438258291365,4.0
69,1438258291381,4.0
70,1438258291405,4.0
71,1438258291424,4.0
72,1438258291442,4.0
73,1438258291464,4.0
74,1438258291484,4.0
75,1438258291505,4.0
76,1438258291524,4.0
77,1438258291544,4.0
78,1438258291566,4.0
79,1438258291582,4.0
80,1438258291604,4.0
81,1438258291624,4.0
82,1438258291642,4.0
83,1438258291665,4.0
84,1438258291686,4.0
85,1438258291706,4.0
86,1438258291727,4.0
87,1438258291743,4.0
88,1438258291762,4.0
89,1438258291783,4.0
90,1438258291802,4.0
91,1438258291824,4.0
92,1438258291842,4.0
93,1438258291894,4.0
94,1438258291895,4.0
95,1438258291901,4.0
96,1438258291925,4.0
97,1438258291942,4.0
98,1438258291970,4.0
99,1438258291987,4.0
100,1438258292002,4.0
101,1438258292031,4.0
102,1438258292054,4.0
103,1438258292064,4.0
104,1438258292082,4.0
105,1438258292106,4.0
106,1438258292122,4.0
107,1438258292145,4.0
108,1438258292162,4.0
109,1438258292182,4.0
110,1438258292204,4.0
111,1438258292224,4.0
112,1438258292242,4.0
113,1438258292264,4.0
114,1438258292285,4.0
115,1438258292304,4.0
116,1438258292323,4.0
117,1438258292344,4.0
118,1438258292364,4.0
119,1438258292385,4.0
120,1438258292404,4.0
121,1438258292424,4.0
122,1438258292447,4.0
123,1438258292467,4.0
124,1438258292487,4.0
125,1438258292504,4.0
126,1438258292524,4.0
127,1438258292544,4.0
128,1438258292565,4.0
129,1438258292584,4.0
130,1438258292605,4.0
131,1438258292651,4.0
132,1438258292652,4.0
133,1438258292662,4.0
134,1438258292682,4.0
135,1438258292705,4.0
136,1438258292722,4.0
137,1438258292742,4.0
138,1438258292767,4.0
139,1438258292784,4.0
140,1438258292804,4.0
141,1438258292825,4.0
142,1438258292844,4.0
143,1438258292868,4.0
144,1438258292886,4.0
145,1438258292906,4.0
146,1438258292926,4.0
147,1438258292942,4.0
148,1438258292965,4.0
149,1438258292991,4.0
150,1438258293005,4.0
151,1438258293028,4.0
152,1438258293045,4.0
153,1438258293065,4.0
154,1438258293083,4.0
155,1438258293105,4.0
156,1438258293124,4.0
157,1438258293155,4.0
158,1438258293163,4.0
159,1438258293185,4.0
160,1438258293205,4.0
161,1438258293226,4.0
162,1438258293243,4.0
163,1438258293266,4.0
164,1438258293286,4.0
165,1438258293305,4.0
166,1438258293332,4.0
167,1438258293387,4.0
168,1438258293388,4.0
169,1438258293389,4.0
170,1438258293403,4.0
171,1438258293423,4.0
172,1438258293445,4.0
173,1438258293465,4.0
174,1438258293484,4.0
175,1438258293505,4.0
176,1438258293523,4.0
177,1438258293544,4.0
178,1438258293565,5.0
179,1438258293586,5.0
180,1438258293608,6.0
181,1438258293625,6.0
182,1438258293646,6.0
183,1438258293666,7.0
184,1438258293687,7.0
185,1438258293707,7.0
186,1438258293727,7.0
187,1438258293747,7.0
188,1438258293766,7.0
189,1438258293786,6.0
190,1438258293823,6.0
191,1438258293824,6.0
192,1438258293851,5.0
193,1438258293868,5.0
194,1438258293884,4.0
195,1438258293906,4.0
196,1438258293926,1.0
197,1438258293945,1.0
198,1438258293965,0.0
199,1438258293985,0.0
200,1438258294004,0.0
201,1438258294025,0.0
202,1438258294044,0.0
203,1438258294075,0.0
204,1438258294084,0.0
205,1438258294106,0.0
206,1438258294155,0.0
207,1438258294156,0.0
208,1438258294175,0.0
209,1438258294184,0.0
210,1438258294204,0.0
211,1438258294224,0.0
212,1438258294244,0.0
213,1438258294271,0.0
214,1438258294283,0.0
215,1438258294304,0.0
216,1438258294324,0.0
217,1438258294348,0.0
218,1438258294368,0.0
219,1438258294388,0.0
220,1438258294408,0.0
221,1438258294428,0.0
222,1438258294443,0.0
223,1438258294468,0.0
224,1438258294488,0.0
225,1438258294508,0.0
226,1438258294524,0.0
227,1438258294547,0.0
228,1438258294568,0.0
229,1438258294588,0.0
230,1438258294607,0.0
231,1438258294628,0.0
232,1438258294647,0.0
233,1438258294668,0.0
234,1438258294688,0.0
235,1438258294708,0.0
236,1438258294728,0.0
237,1438258294745,0.0
238,1438258294766,0.0
239,1438258294786,0.0
240,1438258294806,0.0
241,1438258294861,0.0
242,1438258294862,0.0
243,1438258294865,0.0
244,1438258294885,0.0
245,1438258294905,0.0
246,1438258294925,0.0
247,1438258294947,0.0
248,1438258294966,0.0
249,1438258294986,0.0
250,1438258295006,0.0
251,1438258295025,0.0
252,1438258295046,0.0
253,1438258295070,0.0
254,1438258295088,0.0
255,1438258295108,0.0
256,1438258295129,0.0
257,1438258295148,0.0
258,1438258295168,0.0
259,1438258295188,0.0
260,1438258295208,0.0
261,1438258295228,0.0
262,1438258295246,0.0
263,1438258295268,0.0
264,1438258295286,0.0
265,1438258295307,0.0
266,1438258295328,0.0
267,1438258295378,0.0
268,1438258295379,0.0
269,1438258295385,0.0
270,1438258295408,0.0
271,1438258295428,0.0
272,1438258295452,0.0
273,1438258295469,0.0
274,1438258295487,0.0
275,1438258295508,0.0
276,1438258295527,0.0
277,1438258295548,0.0
278,1438258295576,0.0
279,1438258295626,0.0
280,1438258295637,0.0
281,1438258295638,0.0
282,1438258295645,0.0
283,1438258295671,0.0
284,1438258295686,0.0
285,1438258295706,0.0
286,1438258295727,0.0
287,1438258295747,0.0
288,1438258295767,0.0
289,1438258295786,0.0
290,1438258295809,0.0
291,1438258295829,0.0
292,1438258295849,0.0
293,1438258295870,0.0
294,1438258295889,0.0
295,1438258295909,0.0
296,1438258295932,0.0
297,1438258295948,0.0
298,1438258296056,0.0
299,1438258296057,0.0
300,1438258296058,0.0
301,1438258296059,0.0
302,1438258296060,0.0
303,1438258296074,0.0
304,1438258296088,0.0
305,1438258296109,0.0
306,1438258296129,0.0
307,1438258296149,0.0
308,1438258296169,0.0
309,1438258296189,0.0
310,1438258296209,0.0
311,1438258296228,0.0
312,1438258296251,0.0
313,1438258296270,0.0
314,1438258296289,0.0
315,1438258296313,0.0
316,1438258296373,0.0
317,1438258296374,0.0
318,1438258296375,0.0
319,1438258296395,0.0
320,1438258296407,0.0
321,1438258296428,0.0
322,1438258296446,0.0
323,1438258296466,0.0
324,1438258296489,0.0
325,1438258296507,0.0
326,1438258296527,0.0
327,1438258296547,0.0
328,1438258296569,0.0
329,1438258296587,0.0
330,1438258296609,0.0
331,1438258296629,0.0
332,1438258296649,0.0
333,1438258296669,0.0
334,1438258296689,0.0
335,1438258296710,0.0
336,1438258296729,0.0
337,1438258296749,0.0
338,1438258296771,0.0
339,1438258296787,0.0
340,1438258296810,0.0
341,1438258296828,0.0
342,1438258296848,0.0
343,1438258296869,0.0
344,1438258296889,0.0
345,1438258296910,0.0
346,1438258296937,0.0
347,1438258296948,0.0
348,1438258296970,0.0
349,1438258296990,0.0
350,1438258297010,0.0
351,1438258297029,0.0
352,1438258297047,0.0
353,1438258297096,0.0
354,1438258297097,0.0
355,1438258297118,0.0
356,1438258297126,0.0
357,1438258297149,0.0
358,1438258297167,0.0
359,1438258297188,0.0
360,1438258297209,0.0
361,1438258297227,0.0
362,1438258297250,0.0
363,1438258297271,0.0
364,1438258297287,0.0
365,1438258297309,0.0
366,1438258297330,0.0
367,1438258297350,0.0
368,1438258297369,0.0
369,1438258297390,0.0
370,1438258297410,0.0
371,1438258297430,0.0
372,1438258297450,0.0
373,1438258297469,0.0
374,1438258297489,0.0
375,1438258297508,0.0
376,1438258297529,0.0
377,1438258297550,0.0
378,1438258297568,0.0
379,1438258297589,0.0
380,1438258297610,0.0
381,1438258297630,0.0
382,1438258297651,0.0
383,1438258297671,0.0
384,1438258297690,0.0
385,1438258297710,0.0
386,1438258297727,0.0
387,1438258297749,0.0
388,1438258297769,0.0
389,1438258297788,0.0
390,1438258297840,0.0
391,1438258297841,0.0
392,1438258297855,0.0
393,1438258297868,0.0
394,1438258297889,0.0
395,1438258297907,0.0
396,1438258297931,0.0
397,1438258297949,0.0
398,1438258297970,0.0
399,1438258297989,0.0
400,1438258298021,0.0
401,1438258298031,0.0
402,1438258298049,0.0
403,1438258298071,0.0
404,1438258298091,0.0
405,1438258298111,0.0
406,1438258298131,0.0
407,1438258298150,0.0
408,1438258298171,0.0
409,1438258298191,0.0
410,1438258298211,0.0
411,1438258298230,0.0
412,1438258298252,0.0
413,1438258298268,0.0
414,1438258298289,0.0
415,1438258298311,0.0
416,1438258298331,0.0
417,1438258298350,0.0
418,1438258298368,0.0
419,1438258298388,0.0
420,1438258298408,0.0
421,1438258298428,0.0
422,1438258298448,0.0
423,1438258298468,0.0
424,1438258298490,0.0
425,1438258298510,0.0
426,1438258298533,0.0
427,1438258298601,0.0
428,1438258298602,0.0
429,1438258298603,0.0
430,1438258298611,0.0
431,1438258298637,0.0
432,1438258298649,0.0
433,1438258298668,0.0
434,1438258298689,0.0
435,1438258298709,0.0
436,1438258298730,0.0
437,1438258298749,0.0
438,1438258298768,0.0
439,1438258298789,0.0
440,1438258298811,0.0
441,1438258298831,0.0
442,1438258298851,0.0
443,1438258298869,0.0
444,1438258298889,0.0
445,1438258298912,0.0
446,1438258298935,0.0
447,1438258298949,0.0
448,1438258298972,0.0
449,1438258298994,0.0
450,1438258299011,0.0
451,1438258299029,0.0
452,1438258299050,0.0
453,1438258299069,0.0
454,1438258299093,0.0
455,1438258299112,0.0
456,1438258299133,0.0
457,1438258299149,0.0
458,1438258299170,0.0
459,1438258299189,0.0
460,1438258299211,0.0
461,1438258299230,0.0
462,1438258299295,0.0
463,1438258299296,0.0
464,1438258299297,0.0
465,1438258299316,0.0
466,1438258299330,0.0
467,1438258299349,0.0
468,1438258299369,0.0
469,1438258299389,0.0
470,1438258299409,0.0
471,1438258299432,0.0
472,1438258299450,0.0
473,1438258299474,0.0
474,1438258299490,0.0
475,1438258299509,0.0
476,1438258299532,0.0
477,1438258299552,0.0
478,1438258299569,0.0
479,1438258299590,0.0
480,1438258299612,0.0
481,1438258299632,0.0
482,1438258299652,0.0
483,1438258299669,0.0
484,1438258299706,0.0
485,1438258299709,0.0
486,1438258299729,0.0
487,1438258299798,0.0
488,1438258299799,0.0
489,1438258299800,0.0
490,1438258299811,0.0
491,1438258299829,0.0
492,1438258299849,0.0
493,1438258299871,0.0
494,1438258299891,0.0
495,1438258299910,0.0
496,1438258299932,0.0
497,1438258299954,0.0
498,1438258300057,0.0
499,1438258300058,0.0
500,1438258300059,0.0
501,1438258300060,0.0
502,1438258300061,0.0
503,1438258300079,0.0
504,1438258300107,0.0
505,1438258300109,0.0
506,1438258300129,0.0
507,1438258300155,0.0
508,1438258300181,0.0
509,1438258300191,0.0
510,1438258300217,0.0
511,1438258300230,0.0
512,1438258300255,0.0
513,1438258300270,0.0
514,1438258300292,0.0
515,1438258300314,0.0
516,1438258300332,0.0
517,1438258300353,0.0
518,1438258300370,0.0
519,1438258300392,0.0
520,1438258300414,0.0
521,1438258300432,0.0
522,1438258300451,0.0
523,1438258300474,0.0
524,1438258300492,0.0
525,1438258300516,0.0
526,1438258300532,0.0
527,1438258300553,0.0
528,1438258300570,0.0
529,1438258300590,0.0
530,1438258300611,0.0
531,1438258300637,0.0
532,1438258300652,0.0
533,1438258300671,0.0
534,1438258300692,0.0
535,1438258300719,0.0
536,1438258300792,0.0
537,1438258300793,0.0
538,1438258300794,0.0
539,1438258300795,0.0
540,1438258300812,0.0
541,1438258300834,0.0
542,1438258300850,0.0
543,1438258300872,0.0
544,1438258300890,0.0
545,1438258300915,0.0
546,1438258300940,0.0
547,1438258300950,0.0
548,1438258300982,0.0
549,1438258300994,0.0
550,1438258301013,0.0
551,1438258301034,0.0
552,1438258301053,0.0
553,1438258301074,0.0
554,1438258301091,0.0
555,1438258301114,0.0
556,1438258301131,0.0
557,1438258301151,0.0
558,1438258301172,0.0
559,1438258301194,0.0
560,1438258301214,0.0
561,1438258301234,0.0
562,1438258301251,0.0
563,1438258301273,0.0
564,1438258301295,0.0
565,1438258301314,0.0
566,1438258301335,0.0
567,1438258301355,0.0
568,1438258301373,0.0
569,1438258301393,0.0
570,1438258301412,0.0
571,1438258301434,0.0
572,1438258301456,0.0
573,1438258301522,0.0
574,1438258301523,0.0
575,1438258301524,0.0
576,1438258301531,0.0
577,1438258301555,0.0
578,1438258301575,0.0
579,1438258301591,0.0
580,1438258301611,0.0
581,1438258301633,0.0
582,1438258301653,0.0
583,1438258301677,0.0
584,1438258301692,0.0
585,1438258301711,0.0
586,1438258301734,0.0
587,1438258301755,0.0
588,1438258301773,0.0
589,1438258301794,0.0
590,1438258301815,0.0
591,1438258301834,0.0
592,1438258301854,0.0
593,1438258301873,0.0
594,1438258301896,0.0
595,1438258301914,0.0
596,1438258301935,0.0
597,1438258301953,0.0
598,1438258301972,0.0
599,1438258301996,0.0
600,1438258302020,0.0
601,1438258302036,0.0
602,1438258302057,0.0
603,1438258302075,0.0
604,1438258302091,0.0
605,1438258302111,0.0
606,1438258302131,0.0
607,1438258302155,0.0
608,1438258302173,0.0
609,1438258302227,0.0
610,1438258302228,0.0
611,1438258302234,0.0
612,1438258302252,0.0
613,1438258302272,0.0
614,1438258302292,0.0
615,1438258302312,0.0
616,1438258302335,0.0
617,1438258302352,0.0
618,1438258302374,0.0
619,1438258302392,0.0
620,1438258302414,0.0
621,1438258302437,0.0
622,1438258302455,0.0
623,1438258302475,0.0
624,1438258302495,0.0
625,1438258302515,0.0
626,1438258302535,0.0
627,1438258302555,0.0
628,1438258302575,0.0
629,1438258302595,0.0
630,1438258302615,0.0
631,1438258302633,0.0
632,1438258302653,0.0
633,1438258302675,0.0
634,1438258302695,0.0
635,1438258302714,0.0
636,1438258302733,0.0
637,1438258302755,0.0
638,1438258302775,0.0
639,1438258302795,0.0
640,1438258302815,0.0
641,1438258302835,0.0
642,1438258302855,0.0
643,1438258302876,0.0
644,1438258302895,0.0
645,1438258302918,0.0
646,1438258303019,0.0
647,1438258303020,0.0
648,1438258303021,0.0
649,1438258303022,0.0
650,1438258303023,0.0
651,1438258303041,0.0
652,1438258303055,0.0
653,1438258303074,0.0
654,1438258303092,0.0
655,1438258303116,0.0
656,1438258303132,0.0
657,1438258303153,0.0
658,1438258303174,0.0
659,1438258303197,0.0
660,1438258303216,0.0
661,1438258303236,0.0
662,1438258303253,0.0
663,1438258303275,0.0
664,1438258303295,0.0
665,1438258303316,0.0
666,1438258303336,0.0
667,1438258303356,0.0
668,1438258303376,0.0
669,1438258303396,0.0
670,1438258303415,0.0
671,1438258303435,0.0
672,1438258303456,0.0
673,1438258303476,0.0
674,1438258303494,0.0
675,1438258303516,0.0
676,1438258303536,0.0
677,1438258303556,0.0
678,1438258303576,0.0
679,1438258303593,0.0
680,1438258303613,0.0
681,1438258303634,0.0
682,1438258303653,0.0
683,1438258303678,0.0
684,1438258303731,0.0
685,1438258303734,0.0
686,1438258303735,0.0
687,1438258303753,0.0
688,1438258303774,0.0
689,1438258303793,0.0
690,1438258303813,0.0
691,1438258303838,0.0
692,1438258303855,0.0
693,1438258303876,0.0
694,1438258303895,0.0
695,1438258303915,0.0
696,1438258303935,0.0
697,1438258303956,0.0
698,1438258303974,0.0
699,1438258303996,0.0
700,1438258304014,0.0
701,1438258304036,0.0
702,1438258304056,0.0
703,1438258304077,0.0
704,1438258304097,0.0
705,1438258304117,0.0
706,1438258304135,0.0
707,1438258304157,0.0
708,1438258304177,0.0
709,1438258304194,0.0
710,1438258304215,0.0
711,1438258304237,0.0
712,1438258304254,0.0
713,1438258304273,0.0
714,1438258304299,0.0
715,1438258304317,0.0
716,1438258304335,0.0
717,1438258304355,0.0
718,1438258304377,0.0
719,1438258304396,0.0
720,1438258304414,0.0
721,1438258304468,0.0
722,1438258304469,0.0
723,1438258304480,0.0
724,1438258304496,0.0
725,1438258304514,0.0
726,1438258304536,0.0
727,1438258304554,0.0
728,1438258304576,0.0
729,1438258304595,0.0
730,1438258304615,0.0
731,1438258304636,0.0
732,1438258304656,0.0
733,1438258304674,0.0
734,1438258304697,0.0
735,1438258304717,0.0
736,1438258304737,0.0
737,1438258304757,0.0
738,1438258304777,0.0
739,1438258304797,0.0
740,1438258304817,0.0
741,1438258304837,0.0
742,1438258304858,0.0
743,1438258304875,0.0
744,1438258304897,0.0
745,1438258304917,0.0
746,1438258304937,0.0
747,1438258304956,0.0
748,1438258304974,0.0
749,1438258304996,0.0
750,1438258305017,0.0
751,1438258305037,0.0
752,1438258305056,0.0
753,1438258305077,0.0
754,1438258305097,0.0
755,1438258305117,0.0
756,1438258305142,0.0
757,1438258305208,0.0
758,1438258305209,0.0
759,1438258305210,0.0
760,1438258305217,0.0
761,1438258305245,0.0
762,1438258305255,0.0
763,1438258305281,0.0
764,1438258305295,0.0
765,1438258305315,0.0
766,1438258305340,0.0
767,1438258305379,0.0
768,1438258305380,0.0
769,1438258305398,0.0
770,1438258305418,0.0
771,1438258305438,0.0
772,1438258305458,0.0
773,1438258305478,0.0
774,1438258305501,0.0
775,1438258305517,0.0
776,1438258305538,0.0
777,1438258305555,0.0
778,1438258305578,0.0
779,1438258305596,0.0
780,1438258305616,0.0
781,1438258305638,0.0
782,1438258305656,0.0
783,1438258305675,0.0
784,1438258305695,0.0
785,1438258305720,0.0
786,1438258305741,0.0
787,1438258305761,0.0
788,1438258305778,0.0
789,1438258305795,0.0
790,1438258305816,0.0
791,1438258305835,0.0
792,1438258305856,0.0
793,1438258305876,0.0
794,1438258305958,0.0
795,1438258305959,0.0
796,1438258305960,0.0
797,1438258305961,0.0
798,1438258305988,0.0
799,1438258305999,0.0
800,1438258306020,0.0
801,1438258306036,0.0
802,1438258306065,0.0
803,1438258306100,0.0
804,1438258306101,0.0
805,1438258306116,0.0
806,1438258306142,0.0
807,1438258306156,0.0
808,1438258306175,0.0
809,1438258306195,0.0
810,1438258306219,0.0
811,1438258306240,0.0
812,1438258306255,0.0
813,1438258306279,0.0
814,1438258306299,0.0
815,1438258306319,0.0
816,1438258306339,0.0
817,1438258306359,0.0
818,1438258306376,0.0
819,1438258306399,0.0
820,1438258306419,0.0
821,1438258306439,0.0
822,1438258306459,0.0
823,1438258306478,0.0
824,1438258306498,0.0
825,1438258306520,0.0
826,1438258306539,0.0
827,1438258306558,0.0
828,1438258306578,0.0
829,1438258306598,0.0
830,1438258306617,0.0
831,1438258306636,0.0
832,1438258306702,0.0
833,1438258306703,0.0
834,1438258306704,0.0
835,1438258306721,0.0
836,1438258306736,0.0
837,1438258306756,0.0
838,1438258306776,0.0
839,1438258306796,0.0
840,1438258306819,0.0
841,1438258306837,0.0
842,1438258306858,0.0
843,1438258306877,0.0
844,1438258306899,0.0
845,1438258306917,0.0
846,1438258306937,0.0
847,1438258306958,0.0
848,1438258306979,0.0
849,1438258306997,0.0
850,1438258307018,0.0
851,1438258307039,0.0
852,1438258307059,0.0
853,1438258307079,0.0
854,1438258307101,0.0
855,1438258307117,0.0
856,1438258307139,0.0
857,1438258307159,0.0
858,1438258307179,0.0
859,1438258307200,0.0
860,1438258307219,0.0
861,1438258307239,0.0
862,1438258307256,0.0
863,1438258307277,0.0
864,1438258307299,0.0
865,1438258307318,0.0
866,1438258307340,0.0
867,1438258307359,0.0
868,1438258307382,0.0
869,1438258307442,0.0
870,1438258307443,0.0
871,1438258307444,0.0
872,1438258307457,0.0
873,1438258307479,0.0
874,1438258307496,0.0
875,1438258307519,0.0
876,1438258307539,0.0
877,1438258307557,0.0
878,1438258307577,0.0
879,1438258307598,0.0
880,1438258307620,0.0
881,1438258307638,0.0
882,1438258307660,0.0
883,1438258307678,0.0
884,1438258307700,0.0
885,1438258307720,0.0
886,1438258307740,0.0
887,1438258307760,0.0
888,1438258307779,0.0
889,1438258307800,0.0
890,1438258307817,0.0
891,1438258307839,0.0
892,1438258307860,0.0
893,1438258307880,0.0
894,1438258307900,0.0
895,1438258307919,0.0
896,1438258307939,0.0
897,1438258307962,0.0
898,1438258307982,0.0
899,1438258307997,0.0
900,1438258308020,0.0
901,1438258308039,0.0
902,1438258308059,0.0
903,1438258308078,0.0
904,1438258308159,0.0
905,1438258308160,0.0
906,1438258308161,0.0
907,1438258308162,0.0
908,1438258308177,0.0
909,1438258308197,0.0
910,1438258308217,0.0
911,1438258308238,0.0
912,1438258308257,0.0
