id,attr_time,attr_db
1,1436464501116,47.2344827330236
2,1436464501837,28.1742390743379
3,1436464502603,31.008701203304
4,1436464503316,41.1468614392017
5,1436464503983,18.2707886639748
6,1436464504634,35.4565430719661
7,1436464505352,56.2085690102177
8,1436464506074,50.8849534048984
9,1436464506827,55.9566994418681
10,1436464507488,61.1997559644546
11,1436464508176,30.7120438760858
12,1436464508897,53.2937431051874
13,1436464509655,46.0927480237631
14,1436464510326,45.969822366333
15,1436464511012,18.7352358054948
16,1436464511741,58.9807166463073
17,1436464512546,27.8842977950905
18,1436464513267,24.0905190772769
19,1436464513985,30.6233205318969
20,1436464514724,18.4962178430365
21,1436464515460,27.7938725525914
22,1436464516188,35.6369160653674
23,1436464516919,34.7971580268622
24,1436464517660,40.7830210670642
25,1436464518375,44.6757648543847
26,1436464519048,52.9226258260337
27,1436464519790,29.1972733364666
28,1436464520517,44.6985196912452
29,1436464521250,19.1924768997303
30,1436464522000,35.3287080145724
31,1436464522710,31.0519734788425
32,1436464523407,50.6384485682591
33,1436464524123,39.4102788696919
34,1436464524851,16.3706455031492
35,1436464525576,59.0002084976365
36,1436464526300,39.1741452891986
37,1436464526994,17.8639500298456
38,1436464527673,34.540603537436
39,1436464528418,53.1877746937898
40,1436464529154,40.6389146739313
41,1436464529890,38.6874272149725
42,1436464530638,36.022026523444
43,1436464531349,38.0657823282468
44,1436464532092,30.7838961948831
45,1436464532822,46.1138192780619
46,1436464533584,54.9490523252078
47,1436464534295,30.0394722627974
48,1436464535025,44.5080198979372
49,1436464535733,42.4807669005726
50,1436464536469,59.0216659841765
51,1436464537194,26.8673560169884
52,1436464537921,30.9055285667614
53,1436464538677,28.9209990069943
54,1436464539414,54.0027952165794
55,1436464540120,23.8111808084281
56,1436464540834,19.9892343083736
57,1436464541614,37.9733449822461
58,1436464542339,29.8682789478108
59,1436464543060,46.2365169754333
60,1436464543791,23.6862473135449
61,1436464544521,43.5783686858113
62,1436464545248,33.3888869881766
63,1436464545975,45.8142501234872
64,1436464546704,23.4331712350832
65,1436464547437,56.2883671741657
66,1436464548173,55.8465987355779
67,1436464548893,50.3303165755435
68,1436464549629,31.0552054865693
69,1436464550348,47.9879015422632
70,1436464551061,46.7855789360792
71,1436464551784,55.0598463257605
72,1436464552549,20.4868244334631
73,1436464553305,41.826251740868
74,1436464554020,48.4795874545125
75,1436464554743,31.8060241992163
76,1436464555565,36.4699248572815
77,1436464556228,54.3387583910312
78,1436464556946,40.6660873909926
79,1436464557662,49.8115942528121
80,1436464558426,54.8180960581765
81,1436464559194,61.0453958773322
82,1436464559934,45.1558767561399
83,1436464560667,27.5411665620922
84,1436464561331,57.9298747343541
85,1436464562058,55.4014945702525
86,1436464562782,32.0594192782038
87,1436464563605,40.4071297878935
88,1436464564333,38.4597476779815
89,1436464565041,52.9819484635297
90,1436464565771,46.7393008153759
91,1436464566512,41.5440952243956
92,1436464567231,51.2384636624674
93,1436464567880,27.3704629448978
94,1436464568627,50.2433831643649
95,1436464569348,49.1636268623524
96,1436464570074,24.0050119854552
97,1436464570810,22.3039848462002
98,1436464571525,57.86017937262
99,1436464572201,46.2521419168158
100,1436464572937,56.9667039989993
101,1436464573718,53.6913874369353
102,1436464574466,14.2368833754971
103,1436464575183,60.0080248856878
104,1436464575899,55.5436402281505
105,1436464576641,44.9281940625341
106,1436464577427,44.1960739393238
107,1436464578162,53.9485930044324
108,1436464578940,23.7591746083691
109,1436464579677,67.0248507265471
110,1436464580399,43.2767370700209
111,1436464581124,33.0453182493898
112,1436464581813,17.9038948764305
113,1436464582479,38.0064996235841
114,1436464583239,44.9719458023786
115,1436464583946,41.5948098701593
116,1436464584678,60.0506981279794
117,1436464585403,41.2165998367271
118,1436464586120,44.2043925434246
119,1436464586860,26.2692696495753
120,1436464587607,27.3176777849559
121,1436464588312,23.1828305534842
122,1436464589010,53.7337831268778
123,1436464589730,48.5847055405376
124,1436464590463,54.5668904398772
125,1436464591180,55.4671645304572
126,1436464591844,26.7701376510601
127,1436464592507,51.1582277811222
128,1436464593311,45.547615248147
129,1436464594059,28.1059041040148
130,1436464594803,56.4221822287043
131,1436464595527,57.8384033360276
132,1436464596261,40.8034299371264
133,1436464596984,39.6429405569051
134,1436464597775,49.6285511612881
135,1436464598503,45.3093723106661
136,1436464599202,32.9774168609808
137,1436464599928,43.2388364595801
138,1436464600663,34.677975467581
139,1436464601392,45.8075943477399
140,1436464602075,16.9847037065263
141,1436464602731,34.3364200143497
142,1436464603476,21.6434299589812
143,1436464604202,23.4475198137753
144,1436464604941,14.5539134062787
145,1436464605690,28.0328361363507
146,1436464606392,10.5219661128947
147,1436464607074,61.621722620607
148,1436464607787,44.2353637071173
149,1436464608538,24.2601964013356
150,1436464609248,16.630114773855
151,1436464611208,49.7706383185599
152,1436464611937,46.4538525838846
153,1436464612513,17.1757411837891
154,1436464613180,25.644164349525
155,1436464613909,49.4524721663471
156,1436464614634,46.6413909602267
157,1436464615348,41.1994978966668
158,1436464616061,32.5018212888756
159,1436464616775,46.5360518513084
160,1436464617521,24.4995095100731
161,1436464618265,27.3003475433329
162,1436464619007,56.6505650436071
163,1436464619707,28.3126660540056
164,1436464621805,53.6974140755127
165,1436464622506,28.3876097988877
166,1436464623216,56.182744514734
167,1436464623947,54.9606950053755
168,1436464624701,51.8042830119342
169,1436464625421,54.9410222937255
170,1436464626150,43.1854013245765
171,1436464626886,39.7643620646539
172,1436464627565,30.3493970011924
173,1436464628307,23.3959878573806
174,1436464629037,38.3988600775962
175,1436464629778,31.7381186571926
176,1436464630497,47.009182732903
177,1436464631251,36.4401553307185
178,1436464632001,40.2444303268658
179,1436464632732,40.0458403152665
180,1436464633444,54.3388328338935
181,1436464634156,53.7314950611254
182,1436464634792,37.5597359186286
183,1436464636170,28.854955938928
184,1436464636907,39.5823870630348
185,1436464637636,37.5550462177408
186,1436464638360,41.9818180789206
187,1436464639078,43.0570123310208
188,1436464639807,58.9550164711797
189,1436464640548,49.643600821872
190,1436464641276,48.1692890651534
191,1436464642009,49.1940490706842
192,1436464642722,45.1395838210637
193,1436464643364,42.8309771485972
194,1436464644870,40.6025640279937
195,1436464645553,39.9509316314618
196,1436464646270,40.8258582911108
197,1436464646992,44.2682299833354
198,1436464647764,47.1939765274984
199,1436464648461,40.8178846949835
200,1436464649130,39.6115924968387
201,1436464649843,39.4991807926886
202,1436464650576,42.3208305618746
203,1436464651297,57.6302074060984
204,1436464652038,38.0261686434764
205,1436464652781,42.2674499899821
206,1436464653449,57.4067767952169
207,1436464654172,61.1311823049103
208,1436464654906,39.8251488212656
209,1436464655641,47.2045832646664
210,1436464656349,40.052366180973
211,1436464657058,54.9419311336403
212,1436464657803,54.8721147447282
213,1436464658491,51.0395705787154
214,1436464659135,35.5463193416394
215,1436464659848,41.9328847220632
216,1436464660582,56.7047554174368
217,1436464661329,51.7965381691412
218,1436464662059,38.942919848962
219,1436464662819,36.6002332236999
220,1436464663517,28.6136085660867
221,1436464664238,39.6914758552213
222,1436464664991,39.6004147504616
223,1436464665728,37.0227216450138
224,1436464666439,41.2704977704408
225,1436464667159,35.6151930847898
226,1436464667909,30.4581099418316
227,1436464668672,25.0935219720105
228,1436464669338,42.7680902728501
229,1436464670071,30.2401409004744
230,1436464670799,24.0781810379913
231,1436464671502,28.8894230070393
232,1436464672107,60.8802300397158
233,1436464672830,61.3900304481317
234,1436464673565,57.3283296945762
235,1436464674229,49.8980797884558
236,1436464674976,38.5996423180996
237,1436464675709,56.198379023875
238,1436464676439,46.8550164108069
239,1436464677154,55.1919463002206
240,1436464677812,37.4212189094442
241,1436464678475,61.909267423632
242,1436464679185,60.6813959564708
243,1436464679923,24.538839953873
244,1436464680664,45.6786225493339
245,1436464681382,18.3011973908631
246,1436464682107,38.5621250405565
247,1436464682843,63.7509928664944
248,1436464683582,61.8719486037208
249,1436464684259,57.5099380863123
250,1436464684991,55.1080716895108
251,1436464685724,23.8028018281925
252,1436464686450,61.2461300632065
253,1436464687177,44.6012970467668
254,1436464687895,35.4296671909116
255,1436464688617,45.7400902939411
256,1436464689258,18.5404164257237
257,1436464689957,58.4857936681122
258,1436464690692,64.3268132953313
259,1436464691371,57.0946198982717
260,1436464692021,42.6307825236873
261,1436464692699,59.4175392052171
262,1436464693422,47.7077463264571
263,1436464694135,45.8115304483762
264,1436464694810,22.5015316583921
265,1436464695566,41.7506400636773
266,1436464696293,27.9029518603334
267,1436464697025,12.2231801399148
268,1436464697764,59.4631080451214
269,1436464698653,41.7515925257549
270,1436464699389,11.7676958631035
271,1436464700065,31.9008039105525
272,1436464700782,53.2987261355638
273,1436464701503,41.5954560158014
274,1436464702225,38.0144603468696
275,1436464702937,21.7202430744885
276,1436464703663,7.92382916081812
277,1436464704393,12.4767408658483
278,1436464705064,10.0363488662776
279,1436464705806,14.782823265978
280,1436464706560,13.0811766222776
281,1436464707313,30.919148059403
282,1436464708023,52.7466248552314
283,1436464708766,45.3847790863766
284,1436464709398,39.7542597093541
285,1436464710096,51.3227401119501
286,1436464710836,19.2589222292817
287,1436464711562,35.380934037542
288,1436464712289,27.5807155562698
289,1436464713015,33.7467190946985
290,1436464713737,61.5494541630136
291,1436464714421,54.2606821629445
292,1436464715098,42.3910494668293
293,1436464715879,26.1043653340198
294,1436464716622,46.447157673294
295,1436464717341,38.2934357615685
296,1436464718083,25.5518103413665
297,1436464718791,17.9410589798319
298,1436464719543,55.5610900934201
299,1436464720261,56.2313550757431
300,1436464720995,10.6471608585181
301,1436464721710,53.508057734524
302,1436464722398,14.869148968698
303,1436464723143,41.9895337258657
304,1436464723794,57.0528987400955
305,1436464724464,48.1206365574588
306,1436464725210,53.6149591415396
307,1436464725963,35.4660064200354
308,1436464726724,32.9474017635102
309,1436464727491,59.0835226717886
310,1436464728237,13.2763959831186
311,1436464728934,36.9567805589293
312,1436464729593,35.7393361372051
313,1436464730353,4.40244599846432
314,1436464731041,24.834538639215
315,1436464731752,28.8770956958696
316,1436464732475,22.0782318597374
317,1436464733182,5.97118238646263
318,1436464733918,46.4865095522118
319,1436464734636,29.9893460066293
320,1436464735310,27.8943588210611
321,1436464736024,38.4354903919372
322,1436464736741,21.0555942952366
323,1436464737435,16.4221101635116
324,1436464738090,26.3498319896495
325,1436464738800,19.6556991018865
326,1436464739522,5.4714910598209
327,1436464740239,5.50622698115576
328,1436464740983,7.11900757923284
329,1436464741728,3.188920799116
330,1436464742475,7.80441380707992
331,1436464743212,45.2713629196352
332,1436464743945,47.3745913210092
333,1436464744653,42.1452488588588
334,1436464745304,30.5239465752969
335,1436464746060,6.80706783114983
336,1436464746797,33.5967523669481
337,1436464747566,5.71247697359297
338,1436464748277,34.1475460049555
339,1436464748937,44.2774830462483
340,1436464749539,19.7377257299371
341,1436464750231,50.2531782002875
342,1436464750954,15.2920610108118
343,1436464751680,22.44131174456
344,1436464752402,48.1455472056606
345,1436464753079,52.0493621610445
346,1436464753793,34.3247377506346
347,1436464754513,54.2536880112784
348,1436464755227,56.6525558658429
349,1436464755921,14.8103700907095
350,1436464756636,49.2124540502724
351,1436464757369,37.1116078478742
352,1436464758104,41.1527494047909
353,1436464758863,51.6333390790478
354,1436464759480,36.3819992548428
355,1436464760150,38.0015637782101
356,1436464760847,49.7573533249941
357,1436464761485,19.7821789820165
358,1436464762207,41.6157334764529
359,1436464762948,41.4666418637803
360,1436464763683,20.8655922334506
361,1436464764424,9.37827047226971
362,1436464765138,38.5375595655248
363,1436464765879,8.74227225459989
364,1436464766555,6.8807153815878
365,1436464767270,17.7536768001522
366,1436464768002,18.2842567522384
367,1436464768743,9.2343021547066
368,1436464769504,8.81051617330783
369,1436464770229,4.51540741707983
370,1436464770935,7.67769401957328
371,1436464771631,18.8518301881022
372,1436464772353,10.6154085638824
373,1436464773094,10.2088937009899
374,1436464773818,7.23800208167732
375,1436464774541,31.5230701590103
376,1436464775264,33.5592816353856
377,1436464775994,45.6197444217285
378,1436464776635,45.2446692648669
379,1436464777365,56.2094582756188
380,1436464778094,30.7358892763451
381,1436464778828,18.5578448179009
382,1436464779537,8.41722653389628
383,1436464780172,6.23331301087997
384,1436464780813,11.8237501842588
385,1436464781488,6.00635599781429
386,1436464782203,4.8598720924886
387,1436464782925,7.89536636209433
388,1436464783671,15.5195895462134
389,1436464784404,54.3012873594054
390,1436464785128,43.3762876269949
391,1436464785876,34.6534320336293
392,1436464786542,7.79108409126863
393,1436464787275,35.1556157370291
394,1436464788015,26.590982588611
395,1436464788746,40.8256069899551
396,1436464789472,7.56694164620507
397,1436464790114,11.7957911639298
398,1436464790840,32.3831031512928
399,1436464791580,21.3013893029059
400,1436464792314,6.833952154326
401,1436464793032,9.7555076597969
402,1436464793777,7.91732524587068
403,1436464794508,7.99782844678568
404,1436464795245,8.56739900943449
405,1436464795973,26.5241641935996
406,1436464796692,42.7396315847008
407,1436464797431,41.9550657148498
408,1436464798179,50.6126430545181
409,1436464798944,25.5651805766324
410,1436464799677,20.4489018484029
411,1436464800408,16.0776220497646
412,1436464801081,35.6022484668002
413,1436464801805,22.9740762957647
414,1436464802540,22.4680441754142
415,1436464803264,44.7157778084392
416,1436464804003,29.1479652256134
417,1436464804732,11.9487716436747
418,1436464805446,45.1304200994044
419,1436464806160,61.9707127800875
420,1436464806906,56.3532203592161
421,1436464807623,36.2110174143935
422,1436464808360,35.765225663818
423,1436464809088,46.2896203063464
424,1436464809781,30.5013232218389
425,1436464810355,39.5840257740847
426,1436464811021,47.9531741172636
427,1436464811757,31.364606620212
428,1436464812494,17.8408660437442
429,1436464813235,46.8953526618006
430,1436464813896,44.241353085237
431,1436464815282,17.9788636996413
432,1436464816015,30.4267178161056
433,1436464816712,42.5459885413633
434,1436464817381,15.3807731158956
435,1436464818107,32.7633288200243
436,1436464818841,18.2425981578749
437,1436464819615,20.3717711498327
438,1436464820293,41.3817206807254
439,1436464820987,17.6965804585073
440,1436464821704,12.3192896770775
441,1436464822426,35.1767107532598
442,1436464823175,20.5660968325005
443,1436464823915,40.945461419605
444,1436464824649,42.8277501419683
445,1436464825370,40.5913490555447
446,1436464826096,29.0269075861875
447,1436464826782,30.9907018537023
448,1436464827525,29.1697921523306
449,1436464828240,45.2943617929648
450,1436464829790,30.1813573697853
451,1436464830523,17.1448067030504
452,1436464831240,49.2613623225902
453,1436464831972,44.4232376232889
454,1436464832720,47.475508060177
455,1436464833493,46.6419859910867
456,1436464834227,55.5331783173901
457,1436464834953,53.7504060793761
458,1436464835675,56.3135744418309
459,1436464836413,22.2964426683284
460,1436464837129,43.0834370878929
461,1436464837828,52.5643893391365
462,1436464838642,49.2164711975547
463,1436464839370,51.0524056698082
464,1436464840103,46.4722232170711
465,1436464840813,19.3917410490701
466,1436464841555,20.3798833655389
467,1436464842203,23.8065869783271
468,1436464842924,43.5235588734044
469,1436464843701,37.4976620452284
470,1436464844384,56.3051630897918
471,1436464845070,22.0114024470422
472,1436464845798,46.5508447098632
473,1436464846523,24.975462166893
474,1436464847244,22.7291583004794
475,1436464847957,25.7875721009013
476,1436464848769,20.5849967480918
477,1436464849538,22.2264510989105
478,1436464850272,16.6477221768166
479,1436464850957,15.9256137391678
480,1436464852546,41.8165104535341
481,1436464853253,36.7166584107722
482,1436464853973,43.3918574835964
483,1436464854699,40.4304473410405
484,1436464855416,34.5659910960439
485,1436464856148,54.1096079650937
486,1436464856875,63.4438508900944
487,1436464857571,31.5984208453406
488,1436464858238,45.2472969909618
489,1436464858936,32.3164036510691
490,1436464859670,57.9871727844821
491,1436464860371,41.7163516809962
492,1436464861100,36.4850486580274
493,1436464861819,47.7225239030595
494,1436464862556,31.619634252226
495,1436464863288,14.164256806011
496,1436464865224,46.2895638855211
497,1436464865958,49.0692394639683
498,1436464866679,21.771821909339
499,1436464867300,32.3235091840738
500,1436464867957,44.0489744002367
501,1436464868640,47.4832728038291
502,1436464869359,50.1964301691843
503,1436464870072,35.8391251473338
504,1436464870770,20.9846655962405
505,1436464871438,23.647275637407
506,1436464872152,53.2837830613745
507,1436464872873,49.2304782692972
508,1436464873610,34.1275007101885
509,1436464874347,33.8429122004989
510,1436464875078,41.510824237201
511,1436464875811,61.9551814430763
512,1436464876533,26.6408780515247
513,1436464877249,17.5959325453767
514,1436464877990,44.2143345653936
515,1436464878720,57.7389043373484
516,1436464879446,57.7758417593156
517,1436464880246,46.4569503852206
518,1436464880993,45.1354253305645
519,1436464881703,24.5320943847356
520,1436464882444,60.0368774437292
521,1436464883182,52.3124473942905
522,1436464883927,13.2437854934334
523,1436464884661,16.6058765176027
524,1436464885383,14.7924713903331
525,1436464886107,8.65945341549892
526,1436464886819,6.18209889058343
527,1436464887566,41.8601952093871
528,1436464888279,30.8378299946216
529,1436464889077,8.96648541374525
530,1436464889784,14.5662655912626
531,1436464890386,12.2865054188298
532,1436464891111,47.3470357782818
533,1436464891852,35.2508876732885
534,1436464892598,57.2856841696479
535,1436464893334,38.3896117447436
536,1436464894093,51.0116675498776
537,1436464894765,25.1391341875011
538,1436464895491,20.3671651672156
539,1436464896239,10.0673152816272
540,1436464896969,39.4281419268614
541,1436464897662,49.3375154197102
542,1436464898333,59.0607692634718
543,1436464899149,18.6931909741521
544,1436464899892,44.4928410708427
545,1436464900574,7.30982213376667
546,1436464901239,20.43951161274
547,1436464901953,52.2737347694922
548,1436464902683,21.6091362423582
549,1436464903388,59.3058982538904
550,1436464904143,53.6102959268349
551,1436464904857,55.9653761851766
552,1436464905618,56.4210255297785
553,1436464906338,29.5290026778943
554,1436464907090,29.7158249190111
555,1436464907798,47.6487577999327
556,1436464908575,51.7313846656175
557,1436464909301,44.2217705299266
558,1436464910010,44.9074105172769
559,1436464910761,54.4973712170755
560,1436464911388,20.044229968868
561,1436464912092,44.8797056770919
562,1436464912809,42.7238926603349
563,1436464913551,38.657074415576
564,1436464914334,53.4659689614521
565,1436464915053,43.1085829043771
566,1436464915777,24.9493513868307
567,1436464916512,45.8653462277828
568,1436464917226,42.2103503955084
569,1436464917957,9.31146158021498
570,1436464918690,39.0873017459845
571,1436464919399,7.58445666163404
572,1436464920137,9.87240464740788
573,1436464920847,55.2952623366759
574,1436464921501,51.3575328119124
575,1436464922211,50.6260403399254
