id,attr_time,attr_db
1,1436464501688,32.3403697559353
2,1436464502411,31.1930996203775
3,1436464503140,22.6263064475145
4,1436464503823,40.6550089333306
5,1436464504572,47.7884089064772
6,1436464505305,31.9017490661645
7,1436464506026,40.2733482696052
8,1436464506751,41.4483106347896
9,1436464507502,39.1683621103999
10,1436464508245,41.7895010352874
11,1436464508970,43.3960919831228
12,1436464509701,40.789646565485
13,1436464510413,46.3131102761764
14,1436464511100,55.3915374323325
15,1436464511742,45.6621143238347
16,1436464512463,20.0183973192292
17,1436464513226,46.6026402362933
18,1436464513969,50.026601450677
19,1436464514700,36.4077215093538
20,1436464515439,36.9502081477236
21,1436464516148,39.4600689284957
22,1436464516860,46.222869593187
23,1436464517615,44.2504081789185
24,1436464518420,39.8652470857561
25,1436464519165,26.9046888439278
26,1436464519900,42.4225844947391
27,1436464520525,40.4507268272916
28,1436464521245,38.2658448924288
29,1436464521981,38.499672362283
30,1436464522764,39.4980923703298
31,1436464523509,42.0632113719009
32,1436464524300,17.3210489322244
33,1436464525022,43.7653557910364
34,1436464525720,48.2315714815588
35,1436464526379,34.7437150302262
36,1436464527132,32.1318763804555
37,1436464527896,41.6555366642223
38,1436464528640,33.887720781341
39,1436464529377,38.3504994968965
40,1436464530106,45.3524068140162
41,1436464530838,55.8969541175256
42,1436464531548,38.7594942089666
43,1436464532299,36.4766735991572
44,1436464533024,40.1078656507474
45,1436464533765,46.1786411832849
46,1436464534495,57.0950275013991
47,1436464535249,52.8597562646459
48,1436464535954,40.6793882853623
49,1436464536695,46.5295851145787
50,1436464537423,49.2388471514659
51,1436464538112,48.605799965274
52,1436464538706,45.464608769543
53,1436464539380,38.3731752021229
54,1436464540132,34.5386434892473
55,1436464540847,49.0766064474977
56,1436464541582,41.7681202101089
57,1436464542338,35.0998225339863
58,1436464543052,39.5094343028793
59,1436464543830,53.2151854581693
60,1436464544571,46.2359200350083
61,1436464545313,50.1086452964963
62,1436464546051,44.6958006726613
63,1436464546777,35.2524416636577
64,1436464547490,42.1762794694941
65,1436464548247,37.1087216963404
66,1436464548977,47.7716445105108
67,1436464549686,44.9166578882639
68,1436464550398,37.7530130059298
69,1436464551140,46.684087709587
70,1436464551850,37.936222698426
71,1436464552578,24.0235654217563
72,1436464553348,24.6046878997294
73,1436464554066,23.6720526207301
74,1436464554765,51.8505671620601
75,1436464555476,55.4363771187541
76,1436464556198,42.7608177543193
77,1436464556892,47.5403268398646
78,1436464557615,48.06467522892
79,1436464558338,38.148076015203
80,1436464559007,37.7662816911078
81,1436464559758,46.4454290925147
82,1436464560495,50.3398251259421
83,1436464561254,49.8078367632214
84,1436464561981,38.3623657884094
85,1436464562701,40.9509309307402
86,1436464563443,53.1458446926069
87,1436464564148,37.4047458428177
88,1436464564811,47.1043670645924
89,1436464565530,30.5868406723799
90,1436464566258,46.6523807822042
91,1436464566992,31.6951874810177
92,1436464567709,44.1122673475069
93,1436464568462,51.0882784822033
94,1436464569194,56.2129507535097
95,1436464569838,43.2684460505757
96,1436464570555,34.8890566885496
97,1436464571338,59.2765236885116
98,1436464572047,23.4355971494372
99,1436464572779,58.4425125403933
100,1436464573501,29.6033036864119
101,1436464574216,23.4168159674867
102,1436464574920,23.9818053091863
103,1436464575620,38.3187697537187
104,1436464576360,18.8400651406428
105,1436464577092,44.7791074036306
106,1436464577816,51.5372643500977
107,1436464578539,34.5613377527544
108,1436464579302,46.0190464563991
109,1436464580030,38.750704876772
110,1436464580656,20.3325977651551
111,1436464581412,64.0325560902645
112,1436464582149,30.4868520640148
113,1436464582894,25.0055722267404
114,1436464583637,19.2796621791855
115,1436464584399,27.6854032164438
116,1436464585103,42.9709881376092
117,1436464585790,53.2194859992249
118,1436464586516,53.8691088563594
119,1436464587248,42.3439434222895
120,1436464587988,47.7090677068239
121,1436464588721,19.261647000581
122,1436464589455,31.7848288899534
123,1436464590179,45.9581045701303
124,1436464590839,52.1639232488705
125,1436464591568,38.3950156010236
126,1436464592335,38.2229934649028
127,1436464593080,26.3706142710816
128,1436464593823,42.3797126941812
129,1436464594549,20.7790303067652
130,1436464595283,34.0155326140382
131,1436464596009,34.0732458467606
132,1436464596752,49.1073494707751
133,1436464597481,36.6245692957987
134,1436464598232,47.3409873216256
135,1436464599043,55.0038775828908
136,1436464599778,23.4977980428332
137,1436464600461,26.2052667279398
138,1436464601081,50.2594317654238
139,1436464601767,22.3727525845746
140,1436464602498,36.5407719993355
141,1436464603257,33.8082041232966
142,1436464604080,21.7379607319738
143,1436464604799,35.1715207823027
144,1436464605454,21.9015521536205
145,1436464606204,32.8464366995606
146,1436464606932,17.1696338980963
147,1436464607658,16.2369525152329
148,1436464608381,17.5370890457712
149,1436464609189,58.0423152554623
150,1436464609908,45.3712200690034
151,1436464610638,53.521642094445
152,1436464611364,37.4213965183992
153,1436464612084,18.2595572746031
154,1436464612808,34.0739979300233
155,1436464613463,54.3746736835856
156,1436464614147,23.0283211703669
157,1436464614730,30.4978884853808
158,1436464615393,29.3905529520457
159,1436464616083,36.037042575759
160,1436464616819,29.3440810080338
161,1436464617552,44.729238506165
162,1436464618304,41.2627142109201
163,1436464619068,26.427469901594
164,1436464619805,27.4812188916373
165,1436464620578,50.6321819912668
166,1436464621191,34.8213993951416
167,1436464621885,46.4292281358287
168,1436464622625,31.1026771915077
169,1436464623393,28.5486916074237
170,1436464624217,32.7903623055154
171,1436464624953,45.8569710878689
172,1436464625689,43.2626375158284
173,1436464626380,40.8116575816321
174,1436464627035,43.2005084390986
175,1436464627770,45.2616033442282
176,1436464628508,55.9157302654917
177,1436464629325,38.3476341743533
178,1436464630085,31.0180163077002
179,1436464630810,31.019609458957
180,1436464631501,36.5978831403292
181,1436464632165,48.097745803097
182,1436464632899,33.0214463625402
183,1436464633638,41.3838849861968
184,1436464634395,37.8754333235021
185,1436464635185,45.69370847895
186,1436464635853,49.346538539203
187,1436464636573,37.5605921248082
188,1436464637311,40.1489839659436
189,1436464638048,33.4230988195498
190,1436464638785,36.8972959832526
191,1436464639541,36.6369971575924
192,1436464640266,39.6265172172805
193,1436464641004,55.114873848429
194,1436464641690,57.4650997949619
195,1436464642348,45.0496915157911
196,1436464643082,50.5429501057621
197,1436464643747,47.1650338255831
198,1436464644466,43.1192459972223
199,1436464645193,38.1281877699458
200,1436464645947,37.6724540741845
201,1436464646687,44.6626312876892
202,1436464647429,44.6761568835908
203,1436464648131,43.8798367671838
204,1436464648832,41.4303686626166
205,1436464649575,38.2239522011935
206,1436464650347,41.5163153577974
207,1436464651103,43.8924063103924
208,1436464651810,50.7920880670379
209,1436464652445,47.0760696465946
210,1436464653181,39.5801453044651
211,1436464653897,41.9823960790132
212,1436464654572,46.4770784146742
213,1436464655304,42.307206105112
214,1436464656029,47.9217016421179
215,1436464656757,50.3437002285154
216,1436464657490,51.7536659058466
217,1436464658210,45.0917983533639
218,1436464658942,57.8391663176174
219,1436464659686,40.0724282467871
220,1436464660419,37.4782362764864
221,1436464661148,44.2691462701001
222,1436464661872,43.0739430000142
223,1436464662539,57.9617839624388
224,1436464663317,62.0893975194068
225,1436464664044,47.7132756741085
226,1436464664785,39.7907896293473
227,1436464665527,34.6158634931065
228,1436464666193,36.174807269851
229,1436464668050,42.5534368976892
230,1436464668760,38.6154508001439
231,1436464669524,36.2749390399283
232,1436464670253,36.1547531893283
233,1436464670976,36.2672520676429
234,1436464671709,29.2617190033253
235,1436464672442,28.8601252893225
236,1436464673186,33.0563374388461
237,1436464673927,51.5895809565905
238,1436464674741,41.7473999411128
239,1436464675460,44.4492442165499
240,1436464676146,22.7433781222745
241,1436464677805,44.4898778085749
242,1436464678539,24.8046023865573
243,1436464679275,47.5031852988795
244,1436464680022,48.1668503798942
245,1436464680774,32.6341381469329
246,1436464681513,23.9626981939431
247,1436464682157,31.2282324204132
248,1436464682889,23.8819818463123
249,1436464683627,53.3126276723795
250,1436464684380,34.658549444425
251,1436464685130,31.3589422917425
252,1436464685951,47.2943278941895
253,1436464686558,51.5904141909946
254,1436464687254,25.6430335963137
255,1436464687944,36.1456090058201
256,1436464688683,49.5007752909596
257,1436464689423,59.3636481167887
258,1436464690165,34.4290281260228
259,1436464690899,20.8906246141576
260,1436464693087,44.6111394019892
261,1436464693818,36.7728790578888
262,1436464694640,50.5358569784854
263,1436464695403,30.4429596869845
264,1436464696141,44.8214547893223
265,1436464696876,35.7006236404349
266,1436464697565,44.5758954849385
267,1436464698259,23.2923081139956
268,1436464698998,20.8394075820109
269,1436464699740,34.6085858743768
270,1436464700393,31.5466668360689
271,1436464701599,31.0566621208097
272,1436464702259,44.1366185399209
273,1436464702976,38.5339982952754
274,1436464703713,33.6499915059006
275,1436464704436,17.0019000131718
276,1436464705190,15.7651937766483
277,1436464705904,33.007613958129
278,1436464706648,27.0356774545865
279,1436464707400,15.2189057892069
280,1436464708065,16.9563342881251
281,1436464708792,43.1039419713707
282,1436464709529,25.2653176966092
283,1436464710269,48.332650202786
284,1436464711013,33.7005265162053
285,1436464711767,40.4835915270318
286,1436464712504,12.3180905068636
287,1436464713204,35.6528466189838
288,1436464713865,44.1130366253081
289,1436464714634,27.0817419105774
290,1436464715366,50.0156376430288
291,1436464716108,33.6818053742866
292,1436464716840,34.6971648711678
293,1436464717594,25.7859730373881
294,1436464718380,31.7760872288038
295,1436464719060,32.6971641714176
296,1436464719789,20.7845649869822
297,1436464720523,16.4718721128512
298,1436464721266,42.108910343223
299,1436464721937,47.5861052285874
300,1436464722612,7.09682928608724
301,1436464723346,29.0461837264571
302,1436464724071,8.90163323225002
303,1436464724794,47.7657929244131
304,1436464725459,34.3273620798561
305,1436464726113,44.6998783094754
306,1436464726745,35.2554332988135
307,1436464727414,54.5493822516014
308,1436464728152,54.3721000092887
309,1436464728891,10.2697791576772
310,1436464729612,23.5364027205045
311,1436464730350,50.2750522852325
312,1436464731061,31.5894619112702
313,1436464731775,7.25664120626755
314,1436464732486,10.6862879983391
315,1436464733245,36.0016164243968
316,1436464733917,50.3487237315645
317,1436464734657,16.0286485719451
318,1436464735414,41.2756802612432
319,1436464736135,31.9803402114452
320,1436464736865,47.0106131930286
321,1436464737530,25.8994949149695
322,1436464738245,8.687593847176
323,1436464738981,24.375699434101
324,1436464739699,7.71478003125833
325,1436464740421,7.15237593291425
326,1436464741171,7.64014249669791
327,1436464742097,34.6902391564434
328,1436464742732,7.76416873326876
329,1436464743399,5.51873162553034
330,1436464744094,6.20797177246552
331,1436464744758,5.27296215654885
332,1436464745488,36.3969472306899
333,1436464746261,20.4435382605425
334,1436464746976,31.4125946181797
335,1436464747708,9.40054435152209
336,1436464748482,53.2045651376455
337,1436464749212,8.69942559978411
338,1436464749953,48.2587167167212
339,1436464750749,52.0369055666111
340,1436464751473,43.434890283444
341,1436464752228,15.431525130843
342,1436464752951,7.7025897957898
343,1436464753683,20.2713434528359
344,1436464754373,61.2323032245361
345,1436464755011,41.9659576619865
346,1436464755709,31.1736721528855
347,1436464756489,9.71581208361565
348,1436464757237,47.5797143901816
349,1436464757937,15.9863576420333
350,1436464758674,53.8624012868042
351,1436464759430,40.4108637171339
352,1436464760124,48.5075942698695
353,1436464760854,14.6484730467253
354,1436464761593,54.4705224264192
355,1436464762308,39.190866528443
356,1436464762958,54.211073038954
357,1436464763727,10.9885787266541
358,1436464764422,20.8563054122412
359,1436464765083,32.9818905840173
360,1436464765813,28.8841682854948
361,1436464766538,14.6973387299684
362,1436464767287,45.5345616385961
363,1436464768020,9.44846836891411
364,1436464768739,38.9896712302731
365,1436464769457,28.7766289921732
366,1436464770190,10.0200635262006
367,1436464770919,56.3911007084701
368,1436464771642,7.22089891707933
369,1436464772391,6.28732571280065
370,1436464773111,15.6661020383843
371,1436464773819,9.36654662761133
372,1436464774453,9.5822641517961
373,1436464775158,10.4931830982454
374,1436464775885,22.5817225199929
375,1436464776611,26.3598628364594
376,1436464777306,21.6232621850616
377,1436464778066,55.800855210395
378,1436464778815,21.9064861053858
379,1436464779526,53.9511812200062
380,1436464780249,15.1942912246788
381,1436464780915,22.1687966944447
382,1436464781646,7.47087418209865
383,1436464782412,13.2965131751968
384,1436464783134,17.1623012687855
385,1436464783903,10.7144750370686
386,1436464784621,12.1937243379536
387,1436464785330,14.6972619038012
388,1436464786054,56.8075172148821
389,1436464786733,54.2083053363216
390,1436464787492,32.2170952287403
391,1436464788175,17.7878304763355
392,1436464788911,41.7851522126498
393,1436464789653,38.5910371061579
394,1436464790399,34.4516575893567
395,1436464791128,19.328500789981
396,1436464791859,16.8755670861706
397,1436464792589,33.6844780584965
398,1436464793335,20.0611514533969
399,1436464794070,11.1275432818173
400,1436464794791,7.53839270154903
401,1436464795453,11.0589597570339
402,1436464796198,16.7382173072092
403,1436464796939,18.6319310080351
404,1436464797692,32.0401470210812
405,1436464798407,40.587997443946
406,1436464799104,34.6411159922841
407,1436464799775,45.2885878769705
408,1436464800498,48.8279241960547
409,1436464801223,32.5821934883863
410,1436464801990,37.5536082472592
411,1436464802739,30.4354300767958
412,1436464803386,47.5616210763939
413,1436464804071,21.3744489731786
414,1436464804794,18.0267178156943
415,1436464805488,23.6014756628439
416,1436464806231,13.4522360135705
417,1436464806958,17.5200454576951
418,1436464807703,37.0297321135829
419,1436464808412,43.5598631971485
420,1436464809129,41.7044690778378
421,1436464809805,32.3159342086631
422,1436464810431,41.0270363551985
423,1436464811108,27.6724295177837
424,1436464811845,42.7158090793125
425,1436464812559,39.3845718226445
426,1436464813291,41.2583617783372
427,1436464814023,26.0476952138773
428,1436464814794,37.4185949658851
429,1436464815520,33.6490432621535
430,1436464816198,17.404249090732
431,1436464816995,24.5263529291736
432,1436464817717,34.9478350560655
433,1436464818453,42.1981022886605
434,1436464819195,14.582188905156
435,1436464819919,18.7807643812376
436,1436464820667,48.4168394395384
437,1436464821425,29.2639749893124
438,1436464822173,25.3984072423175
439,1436464822899,44.5833717346275
440,1436464823576,22.3440776366542
441,1436464824324,43.8228636952795
442,1436464825049,43.5376895791442
443,1436464825731,39.1890876125087
444,1436464826395,50.6664582387947
445,1436464827138,40.7828482289203
446,1436464827857,35.41984842283
447,1436464828558,35.7452912967729
448,1436464829231,35.4737204357972
449,1436464829970,51.0277122719825
450,1436464830710,49.43904043674
451,1436464831458,27.3568260124083
452,1436464832188,21.3952065928471
453,1436464832949,45.7421843444872
454,1436464833695,41.5887240303246
455,1436464834464,43.5836997647195
456,1436464835196,35.483145878391
457,1436464835924,54.2392536724332
458,1436464836585,35.1469700051242
459,1436464837345,53.8461476518616
460,1436464838066,47.1242988816849
461,1436464838804,42.0072629110824
462,1436464839525,44.5699430256254
463,1436464840279,22.7769276379156
464,1436464840871,27.06642521004
465,1436464841563,21.2968756800944
466,1436464842278,25.4449138109609
467,1436464843017,16.4571897196533
468,1436464843701,17.149506436038
469,1436464844429,54.8364701894333
470,1436464845152,29.3107195173041
471,1436464845876,52.8729867408156
472,1436464846550,16.2795657052151
473,1436464847230,37.1328431890684
474,1436464847949,22.8780794527193
475,1436464848669,23.0151262416084
476,1436464849434,25.1919763462696
477,1436464850162,24.3965212139763
478,1436464850899,27.3809339031346
479,1436464851626,24.3414032290481
480,1436464852351,22.0109228097247
481,1436464853073,39.0038813144473
482,1436464853795,47.1344651896385
483,1436464854535,41.3760789980969
484,1436464855280,34.4921047731943
485,1436464856013,38.4768025968703
486,1436464856696,42.1293326963808
487,1436464857313,40.3607773133254
488,1436464857951,23.8003648380804
489,1436464858640,59.5069566960529
490,1436464859455,43.558665165196
491,1436464860190,21.3229629614699
492,1436464860928,37.4044385858669
493,1436464861638,44.3473539878819
494,1436464862361,42.9872862817944
495,1436464863119,40.2100476070544
496,1436464863717,27.1514914572636
497,1436464864433,38.0114084737272
498,1436464865251,13.4042913531349
499,1436464865976,17.8585660483853
500,1436464866689,52.807099926294
501,1436464867413,28.4352217021803
502,1436464868133,32.377239294691
503,1436464868857,27.4793387967115
504,1436464869611,43.9463742083017
505,1436464870385,50.9611893501884
506,1436464871977,38.7170704250567
507,1436464872655,43.7677748908315
508,1436464873388,39.3143196437323
509,1436464874138,34.8933245431189
510,1436464874914,43.4861425816986
511,1436464875655,45.5175648277296
512,1436464876384,40.5149260699189
513,1436464877077,22.3195011355904
514,1436464877771,46.4152157943184
515,1436464878507,22.4942789269957
516,1436464879289,48.4291065209025
517,1436464880005,44.1836561012352
518,1436464880736,18.4030148600438
519,1436464881461,52.6564969681877
520,1436464882200,41.1601873163333
521,1436464882922,56.2716714979457
522,1436464883641,49.3690746143684
523,1436464884322,55.1022872160908
524,1436464885779,17.1507502798472
525,1436464886524,19.686362959782
526,1436464887276,15.235718286266
527,1436464887923,13.2109898785914
528,1436464888647,10.4300542515441
529,1436464889403,53.9964650178153
530,1436464890220,38.1951573735814
531,1436464890948,9.62639759389034
532,1436464891669,13.0219748550212
533,1436464892405,54.0503261318892
534,1436464893103,35.3381147349499
535,1436464893796,38.8921312887623
536,1436464894524,45.7689342646489
537,1436464895255,26.0688225048163
538,1436464896001,43.8456781834944
539,1436464896721,42.5010657588107
540,1436464897434,51.3636219584107
541,1436464898094,39.1100271866453
542,1436464898828,23.8269461481062
543,1436464899544,29.8424643274689
544,1436464900386,42.0160947572583
545,1436464901042,41.9886250809335
546,1436464901657,22.7391923729074
547,1436464902380,15.3725298597526
548,1436464903104,38.2040852582266
549,1436464903840,58.8337161875855
550,1436464904560,35.8773822825369
551,1436464905295,38.8518860826023
552,1436464906051,47.1706171165441
553,1436464906804,29.7391733951637
554,1436464907533,54.6098277083912
555,1436464909000,50.7047890001809
556,1436464909665,53.8469719535225
557,1436464910412,30.303883846143
558,1436464911149,58.0257014367572
559,1436464911851,49.0145780098854
560,1436464912555,46.8065103864606
561,1436464913293,46.0805168805868
562,1436464913992,37.5957717601205
563,1436464914733,57.8868801644888
564,1436464915472,41.6909131712239
565,1436464916196,32.8257782865437
566,1436464916931,58.4586986810739
567,1436464917652,19.8588943360359
568,1436464918337,43.1060546411965
569,1436464919085,13.2486369857854
570,1436464919826,14.7959714179455
571,1436464920486,32.2502860463538
572,1436464921884,13.1705108422166
573,1436464922560,46.1340035657473
574,1436464923323,34.0913090160699
575,1436464924101,36.3252429055644
