id,attr_time,attr_db
1,1437154490747,27.83075149986
2,1437154491499,30.7412970564676
3,1437154492207,36.0598277605525
4,1437154492973,40.6297866009743
5,1437154493692,42.035206772753
6,1437154494417,42.5253925942086
7,1437154495096,45.6405987992932
8,1437154495769,44.6329758040623
9,1437154496472,48.1640011407344
10,1437154497227,49.6675233244812
11,1437154497954,54.7234649558014
12,1437154498691,49.064763011016
13,1437154499434,47.9633799594727
14,1437154500104,45.2383710267417
15,1437154500832,44.6082751400444
16,1437154501510,40.2165264703728
17,1437154502186,47.1778848607177
18,1437154502925,56.9082668258723
19,1437154503693,43.412922252736
20,1437154504434,38.7098814137492
21,1437154505066,38.0198973574562
22,1437154506633,42.4267409595927
23,1437154507375,44.9266646886868
24,1437154508116,43.9101941772193
25,1437154508856,25.4649445854581
26,1437154509538,26.8982053202067
27,1437154510196,30.1140715111432
28,1437154510917,48.3171414881448
29,1437154511661,51.4113368243178
30,1437154512403,39.421907790085
31,1437154513126,48.1958275696502
32,1437154513855,57.1650007398305
33,1437154514618,22.6179309931643
34,1437154515346,41.99081549525
35,1437154516055,21.0060033413766
36,1437154516752,27.5457428127336
37,1437154517471,51.5461809845213
38,1437154518124,47.9249592214424
39,1437154518879,25.6413533019545
40,1437154519556,26.5194923540132
41,1437154521332,26.7510159800456
42,1437154522114,50.4189594587606
43,1437154522824,50.374920321569
44,1437154523539,30.1260482553173
45,1437154524311,38.1367220373126
46,1437154525003,41.7913911047918
47,1437154525668,46.2154204161299
48,1437154526364,46.2800755775826
49,1437154527075,44.3084664466417
50,1437154527861,39.4747442828654
51,1437154528599,55.0153013968522
52,1437154529341,45.83641246166
53,1437154530064,43.2213680044122
54,1437154530745,28.0295552233816
55,1437154531385,42.362874096912
56,1437154532148,53.9462570246197
57,1437154532877,57.2901345281167
58,1437154533618,60.1318926276831
59,1437154534376,46.0102305983781
60,1437154535097,36.4256468657099
61,1437154535831,57.4454838250762
62,1437154536544,39.0377483806262
63,1437154537284,44.2780022000041
64,1437154537963,55.6390608119045
65,1437154538685,50.4747685053895
66,1437154539440,60.7487906295404
67,1437154540163,33.7208699733364
68,1437154540853,24.6972147858432
69,1437154541549,24.1980626948306
70,1437154542296,23.4318046038666
71,1437154543985,42.2743913864341
72,1437154544706,30.7831153858589
73,1437154545448,43.6491048911028
74,1437154546180,45.3361747045475
75,1437154546931,50.8230075261517
76,1437154547648,25.104853874338
77,1437154548443,33.2102020070649
78,1437154549175,27.0323744692474
79,1437154549891,40.5836423408066
80,1437154550603,41.0227242857611
81,1437154551278,33.7254626862922
82,1437154551996,26.1368542340687
83,1437154552720,26.250774209385
84,1437154553451,38.2375892843811
85,1437154554195,41.6088360689612
86,1437154554885,42.5736281606603
87,1437154556713,20.353188094825
88,1437154557373,20.8708654650348
89,1437154558106,26.0551119782607
90,1437154558825,22.6585779727337
91,1437154559526,22.5891206134579
92,1437154560262,39.9153903581308
93,1437154560943,47.8153034429704
94,1437154561597,38.0543840422163
95,1437154562367,49.8175767812839
96,1437154563111,48.181971048381
97,1437154563838,42.9255011838688
98,1437154564561,26.3703518462498
99,1437154565307,41.138301924897
100,1437154566003,49.5950225956437
101,1437154566723,27.7360045784728
102,1437154567497,21.9447808300482
103,1437154568265,22.035181405455
104,1437154569003,42.2235470977232
105,1437154569735,29.0788303332536
106,1437154570455,55.6805436525714
107,1437154571205,51.4653839042068
108,1437154571957,50.2090326070986
109,1437154572698,27.6472655552619
110,1437154573430,43.6646201873426
111,1437154574168,27.8637420869742
112,1437154574902,24.6261062044749
113,1437154575561,48.0860288070227
114,1437154576278,50.1569047967545
115,1437154577003,46.7830929505674
116,1437154577734,29.2700526365335
117,1437154578447,53.0283263348794
118,1437154579164,58.2387245326165
119,1437154579860,51.6733644102743
120,1437154580586,42.3535385535164
121,1437154581366,49.4296535502675
122,1437154582055,30.9081395972759
123,1437154582757,41.3461304874984
124,1437154583489,40.7194096968731
125,1437154584209,35.7771591792034
126,1437154584944,42.9488048613661
127,1437154585684,50.6881525898746
128,1437154586398,36.1035307260979
129,1437154587081,48.4203932949211
130,1437154587807,34.8693899816433
131,1437154588514,41.9621686758201
132,1437154589253,38.6900248391684
133,1437154589984,57.8977309743667
134,1437154590707,37.4794605760216
135,1437154591406,38.5156588266088
136,1437154592175,30.6962655261868
137,1437154592901,31.4119916621177
138,1437154593645,30.4085505046581
139,1437154594368,53.6066171368603
140,1437154595113,55.2772830818451
141,1437154595846,44.9013366581552
142,1437154596643,53.6622472727169
143,1437154597406,58.2331609913482
144,1437154598110,51.9317335428944
145,1437154598861,34.4384002274298
146,1437154599589,31.200303351097
147,1437154600326,29.2198721436824
148,1437154601033,28.9838720410647
149,1437154601760,29.8963347863356
150,1437154602506,52.1939029655032
151,1437154603267,58.3407573701234
152,1437154603922,56.7488928943694
153,1437154604690,42.6571546585235
154,1437154605427,52.5317621255677
155,1437154606143,31.7702484351919
156,1437154606835,32.8544437532144
157,1437154607498,38.4169081544886
158,1437154608281,59.6573915556959
159,1437154609003,44.1666856688166
160,1437154609724,53.2288547628403
161,1437154610460,50.1771354042966
162,1437154611203,49.254548824714
163,1437154611943,43.6272556883283
164,1437154612718,50.6352601427009
165,1437154613437,31.0028521783062
166,1437154614182,28.2362238717747
167,1437154614904,45.2178345587509
168,1437154615567,24.4196438123966
169,1437154616314,34.1706648019924
170,1437154617005,54.0356666452427
171,1437154617736,29.1118360010562
172,1437154618488,51.3869527302203
173,1437154619167,58.7364184915807
174,1437154619883,48.8703056239106
175,1437154620616,23.8845656701592
176,1437154621364,27.6692466138956
177,1437154622089,28.6590705489673
178,1437154622866,29.9167579743022
179,1437154623549,49.6345733837388
180,1437154624233,50.2240245156219
181,1437154625007,26.9462399223357
182,1437154625734,27.5125005405822
183,1437154626466,24.6849634486006
184,1437154627177,30.6659043397875
185,1437154627898,26.1603520883784
186,1437154628651,54.4176056312474
187,1437154629404,28.6492372810314
188,1437154630117,42.7844534423336
189,1437154630840,44.0421897575575
190,1437154631579,62.0648785491454
191,1437154632371,50.0225316257038
192,1437154633098,43.167129579881
193,1437154633787,33.1442395986945
194,1437154634541,28.5936565243802
195,1437154635293,41.0117008244003
196,1437154636001,22.8603890847863
197,1437154636719,25.2088703291866
198,1437154637471,44.7689751438
199,1437154638176,38.7019059281495
200,1437154638909,26.9252590593166
201,1437154639613,26.7016032197968
202,1437154640287,27.8146822768975
203,1437154641009,42.2386450470906
204,1437154641732,23.4651908140325
205,1437154642513,42.0767080482305
206,1437154643276,34.9267101449944
207,1437154643941,28.1686779574278
208,1437154644537,32.9050605233251
209,1437154645253,33.1522480381103
210,1437154645931,50.5370396104986
211,1437154646616,31.7096427592576
212,1437154647370,43.2492396214284
213,1437154648086,33.8501104545627
214,1437154648801,56.9543405665566
215,1437154649570,50.6203640234365
216,1437154650324,33.73108238534
217,1437154651045,45.3042021734958
218,1437154651760,47.8641788741444
219,1437154652535,52.6794717075538
220,1437154653302,46.2960394212401
221,1437154654030,44.2224606140445
222,1437154654751,46.4679852598304
223,1437154655496,44.7487097093613
224,1437154656217,44.5279158182408
225,1437154656905,42.2739824065783
226,1437154657669,31.0797411578016
227,1437154658457,50.1596888695064
228,1437154659217,39.5277182806564
229,1437154659948,42.7438060026025
230,1437154660684,43.7911417260577
231,1437154661424,57.7182959791293
232,1437154662151,41.4964074619745
233,1437154662887,38.2625358381089
234,1437154663620,39.7698051396357
235,1437154664331,55.4758916287713
236,1437154665043,58.3104368984898
237,1437154665755,54.551781558839
238,1437154666489,38.7842358914281
239,1437154667160,35.3069180746398
240,1437154667778,25.2494218351635
241,1437154668491,37.2994950066266
242,1437154669268,38.6094581501162
243,1437154670007,41.474532433895
244,1437154670720,46.3501452314326
245,1437154671440,36.4319257208695
246,1437154672205,32.9423052494462
247,1437154672908,43.3520929044485
248,1437154673647,48.4222792563392
249,1437154674366,28.5398451448165
250,1437154674973,22.2008778394114
251,1437154675662,35.4515678688805
252,1437154676400,48.5905877802697
253,1437154677168,43.7416776726124
254,1437154677950,32.3283834169182
255,1437154678626,44.1646213390961
256,1437154679387,32.9399770697842
257,1437154680107,35.440910932422
258,1437154680836,37.0461741122337
259,1437154681584,42.6715277382174
260,1437154682339,48.276560812809
261,1437154683068,49.1922433617587
262,1437154683825,37.5390833790203
263,1437154684645,35.4034805746615
264,1437154685309,34.3285163847731
265,1437154686021,37.4739638758167
266,1437154686741,56.1247175772415
267,1437154687475,53.5735655937125
268,1437154688124,58.5422655178426
269,1437154688881,63.2793595083863
270,1437154689620,29.7500469437781
271,1437154690376,53.292615346582
272,1437154691072,61.678904200968
273,1437154691733,31.5155847577429
274,1437154692452,30.4129974124489
275,1437154693172,47.3473369576438
276,1437154693929,56.736550408371
277,1437154694654,49.0269474368327
278,1437154695371,55.667501241474
279,1437154696098,44.0726809139932
280,1437154696833,56.3745278512648
281,1437154697541,42.5075603282067
282,1437154698205,64.7471257977715
283,1437154698930,59.7965189651638
284,1437154699684,38.6775631987897
285,1437154700415,57.9565420847902
286,1437154701137,24.806470204948
287,1437154701861,51.1557184683646
288,1437154702619,54.1474261228858
289,1437154703362,38.9505466824482
290,1437154704067,48.480064774224
291,1437154704809,25.111823985597
292,1437154705542,46.4162229045602
293,1437154706353,41.3124425860504
294,1437154707045,67.0282075498233
295,1437154707726,26.140177281168
296,1437154708451,49.2305592595774
297,1437154709173,47.7433123373027
298,1437154711079,40.2773067762943
299,1437154711735,33.9995225887881
300,1437154712455,42.2745753376253
301,1437154713158,39.3777520622613
302,1437154713890,26.4825369089715
303,1437154714627,26.470021354537
304,1437154715374,31.9810942668429
305,1437154716094,37.9978419491888
306,1437154716800,40.5249343149472
307,1437154717496,35.9276456668087
308,1437154718218,48.4401221961998
309,1437154718937,47.0419159766579
310,1437154719656,41.9298826200381
311,1437154720395,43.0732455550064
312,1437154721106,54.7481964616612
313,1437154721862,51.8348859493086
314,1437154722561,35.0841229356475
315,1437154723237,37.5890452974377
316,1437154723971,52.0353778711706
317,1437154724669,38.2228952350936
318,1437154725323,58.3199190269056
319,1437154726053,52.3175007065236
320,1437154726802,50.0843383700063
321,1437154727582,44.9927679246714
322,1437154729066,46.6304887087143
323,1437154729744,37.8014517314338
324,1437154730459,44.4838834908904
325,1437154731208,44.4266220635482
326,1437154731935,41.5779075530575
327,1437154732650,38.3002991585594
328,1437154733387,35.8481742002591
329,1437154734097,40.5885958145276
330,1437154734824,39.5863285325224
331,1437154735515,41.2644323347365
332,1437154736152,56.9710732867191
333,1437154736850,47.6428019210722
334,1437154737639,56.6864644750358
335,1437154738373,44.5037177364865
336,1437154739093,58.6448092094227
337,1437154739803,43.6478877681579
338,1437154740489,49.3681594629696
339,1437154741261,44.9994022970427
340,1437154741999,41.5597948501402
341,1437154742728,36.3985866726749
342,1437154743442,37.3092490819456
343,1437154744162,35.0097350233545
344,1437154744814,34.8382440896878
345,1437154745550,46.4248322037077
346,1437154746279,43.9390102075501
347,1437154747029,56.6056401603875
348,1437154747787,41.1149092183431
349,1437154748513,39.8638231127606
350,1437154749254,40.547609150711
351,1437154749970,44.8052692689066
352,1437154750699,46.8370455323106
353,1437154751429,45.9322955078048
354,1437154752210,49.953351551449
355,1437154752939,51.7449106040753
356,1437154753661,45.5463937178214
357,1437154754401,55.5679206369537
358,1437154755072,37.7905194208124
359,1437154755684,53.2683237914464
360,1437154756379,40.763869905231
361,1437154757109,45.417464406338
362,1437154757834,46.7686338030341
363,1437154758533,63.3006048039645
364,1437154760458,45.0760880735164
365,1437154761191,48.0074785100474
366,1437154761925,54.0384889204396
367,1437154762648,55.0568813796205
368,1437154763410,45.4063613003948
369,1437154764137,53.9355788858862
370,1437154764834,47.8163362064382
371,1437154765568,53.6137499127591
372,1437154766294,53.3513581263489
373,1437154767005,48.3969576212232
374,1437154767720,46.7672700564113
375,1437154768402,38.9669742816153
376,1437154769126,48.1698163181426
377,1437154769831,47.4588054561599
378,1437154770576,38.6665545498806
379,1437154771324,43.0854995438539
380,1437154772007,44.9545662656165
381,1437154772721,41.8660814636856
382,1437154773467,60.8618310476081
383,1437154774203,54.7936703322813
384,1437154774957,44.0945226550027
385,1437154776926,49.0289104872328
386,1437154777611,44.5238886176638
387,1437154778386,34.7985193703977
388,1437154779103,26.655611547479
389,1437154779833,39.9392392598136
390,1437154780561,29.7806669210117
391,1437154781348,31.763387747015
392,1437154782097,37.889925625891
393,1437154782816,40.928746712699
394,1437154783537,51.7214681157306
395,1437154784262,56.0049823161225
396,1437154785000,30.8555156125744
397,1437154785719,41.5768632490323
398,1437154786430,47.4593095679619
399,1437154787133,37.8517281826242
400,1437154787876,55.4577517349356
401,1437154788650,42.9502196313851
402,1437154789386,30.3853890487196
403,1437154790111,44.8899978629522
404,1437154790833,67.7755583061389
405,1437154791554,39.2668374161388
406,1437154792212,46.2244181280087
407,1437154792913,36.3195295012569
408,1437154793652,58.514183179391
409,1437154794400,31.4374039510213
410,1437154795132,49.5641192740322
411,1437154795868,34.2544720862091
412,1437154796575,34.0483497269602
413,1437154797267,29.5242674071993
414,1437154797999,42.8493711616848
415,1437154798710,37.8176088135582
416,1437154799456,37.9154098529626
417,1437154800256,30.7492012137806
418,1437154800975,30.1595667133622
419,1437154801697,38.6658394253989
420,1437154802486,43.7617092329017
421,1437154803243,52.7032937776602
422,1437154803969,64.1593786074229
423,1437154804691,48.9900231592172
424,1437154805420,46.3375067383805
425,1437154806026,51.3105849045834
426,1437154806754,37.2872122979748
427,1437154807504,43.2444525607018
428,1437154808246,40.2692601029466
429,1437154808956,42.130572617756
430,1437154809682,34.2616670329559
431,1437154810408,31.8127956996711
432,1437154811129,29.6549010045105
433,1437154811837,48.447975230005
434,1437154812575,56.6558879055282
435,1437154813165,44.1273868392463
436,1437154813853,27.3655023717704
437,1437154814613,49.948870183667
438,1437154815366,43.8300340407721
439,1437154816146,43.2072658649649
440,1437154816853,27.8071397943731
441,1437154817656,39.780496049199
442,1437154818376,43.0593381655985
443,1437154819086,31.3110964685374
444,1437154819797,38.9157004379884
445,1437154820561,24.7976543083707
446,1437154821296,44.1430383467721
447,1437154822009,54.1131629908542
448,1437154822700,48.8887574216452
449,1437154823445,42.8706440690138
450,1437154824131,52.3944847726076
451,1437154824866,47.3392115408422
452,1437154825616,27.2702663171362
453,1437154826371,52.3179769371476
454,1437154827151,38.0372565920443
455,1437154827873,34.2537717939304
456,1437154828569,43.1333269353367
457,1437154829295,40.5303463970251
458,1437154830018,30.5388269826497
459,1437154830747,44.1930432572476
460,1437154831484,56.3596419587578
461,1437154832224,33.9283831174974
462,1437154832959,23.5955019675944
463,1437154833704,24.983934272266
464,1437154834346,47.3067720869048
465,1437154835054,23.069174952906
466,1437154835720,42.446381088514
467,1437154836443,41.8992247982252
468,1437154837147,36.9254486971239
469,1437154837932,23.2864162365018
470,1437154838674,40.7726528038583
471,1437154839402,24.5941569269784
472,1437154840138,45.8011815492907
473,1437154840882,39.0876948237339
474,1437154841619,49.0428025814601
475,1437154842343,29.7393546764831
476,1437154843078,46.7224041324514
477,1437154843788,46.9402469442636
478,1437154844454,20.8731588700296
479,1437154845188,20.8996407194312
480,1437154845940,21.0454345405556
481,1437154846670,26.467171005339
482,1437154847414,38.3165659662782
483,1437154848092,44.6217038522656
484,1437154848769,37.3795096986385
485,1437154849506,44.8881298729536
486,1437154850239,46.3134744070868
487,1437154851007,54.844684494998
488,1437154851749,44.2116505486015
489,1437154852489,44.4428287901261
490,1437154853209,35.9604968638097
491,1437154853891,33.8000868105869
492,1437154854565,44.652937179077
493,1437154855314,36.7246867009495
494,1437154856039,45.9143930331912
495,1437154856765,36.05425650611
496,1437154857523,64.1267783455017
497,1437154858232,42.808162071541
498,1437154858909,44.7291679998282
499,1437154859624,32.8163429385978
500,1437154860366,44.8274934837622
501,1437154861084,49.449523759154
502,1437154861754,46.4268571738206
503,1437154862482,28.8627735096769
504,1437154863223,31.4364170395281
505,1437154863935,53.7749472914939
506,1437154864625,30.7698401570441
507,1437154865451,46.6282471833381
508,1437154866177,43.1614336422764
509,1437154866799,44.9571791805314
510,1437154867476,43.1716590650519
511,1437154868201,43.0595899004713
512,1437154868948,45.4213262940786
513,1437154869673,54.9013037395696
514,1437154870404,59.5611905431071
515,1437154871151,46.8309617551865
516,1437154871864,51.4374727826459
517,1437154872627,45.8800296873956
518,1437154873346,50.4722491710253
519,1437154874078,43.971662557281
520,1437154874791,43.6453506726398
521,1437154875509,33.4811869620037
522,1437154876260,31.8932895886067
523,1437154877030,34.6578531060323
524,1437154877781,40.9874018874051
525,1437154878398,52.8413496657018
526,1437154879099,45.1310746723588
527,1437154879824,32.5574518917603
528,1437154880595,31.1168979212378
529,1437154881341,32.8107885761737
530,1437154882070,40.878125123039
531,1437154882820,50.6396822131692
532,1437154883537,46.3416162116092
533,1437154884264,33.1897346942294
534,1437154884972,49.6485113648329
535,1437154885715,25.8294281429049
536,1437154886476,29.0183252063586
537,1437154887217,56.046441869637
538,1437154887942,35.7600835072474
539,1437154888670,52.0407566534785
540,1437154889395,35.8423815408814
541,1437154890057,32.5887893279024
542,1437154890764,24.964018016313
543,1437154891493,39.1186608536991
544,1437154892226,35.7697393628438
545,1437154892946,41.4039367311918
546,1437154893666,36.2495446854785
547,1437154894376,35.1803035507626
548,1437154895073,34.1854890135939
549,1437154895784,51.5752589977645
550,1437154896535,55.7012592158464
551,1437154897295,56.2653579667275
552,1437154898011,41.293666634181
553,1437154898732,41.5912157281989
554,1437154899485,31.6421617266314
555,1437154900169,33.1605968937517
556,1437154900870,31.5614024563743
557,1437154901616,46.9482334898774
558,1437154902357,33.1901464308439
559,1437154903076,37.1777710042024
560,1437154903784,34.511545428279
561,1437154904518,45.7118985656212
562,1437154905229,40.36480342412
563,1437154905916,28.9533162512984
564,1437154906628,25.4865859364813
565,1437154907324,29.2328857516082
566,1437154908039,38.7633891388399
567,1437154908729,59.7475038771756
568,1437154909397,47.757717565294
569,1437154910127,30.7809988511668
570,1437154910853,35.6065706155822
571,1437154911605,47.3093512977932
572,1437154912346,50.3565072613531
573,1437154913087,36.946791904511
574,1437154915205,39.3385034332642
575,1437154915864,38.2955834231064
