id,attr_time,attr_db
1,1437154490075,64.896102571373
2,1437154490817,31.3498599091045
3,1437154491546,34.4032955279621
4,1437154492349,33.0528717218045
5,1437154493056,36.8046886921841
6,1437154493783,40.7932624300952
7,1437154494519,42.0312582409063
8,1437154495262,42.271024923346
9,1437154496006,44.249367999347
10,1437154496720,46.6735457185716
11,1437154497452,52.0276193084133
12,1437154498238,53.7050467145727
13,1437154498974,47.7189267759057
14,1437154499683,43.7777303538274
15,1437154500424,43.6066797901877
16,1437154501188,40.7055585700829
17,1437154501913,47.3425447789933
18,1437154502594,55.5970509612324
19,1437154503324,49.0218559354221
20,1437154504062,44.9336076761359
21,1437154504775,41.5107740668447
22,1437154505517,37.4778085387583
23,1437154506270,47.8197182236574
24,1437154506999,35.9302210162834
25,1437154507734,29.7605348610315
26,1437154508440,29.3900702774834
27,1437154509095,26.1543636412673
28,1437154509779,25.7261874275689
29,1437154510505,70.3301907674124
30,1437154511342,25.6599722176761
31,1437154512070,40.5050286312022
32,1437154512821,56.7441796292234
33,1437154513549,45.0380070921429
34,1437154514265,39.5114763126032
35,1437154515005,51.5466976140691
36,1437154515729,35.3754320846336
37,1437154516466,23.333200458311
38,1437154517189,66.3656714577885
39,1437154517922,67.7360479430078
40,1437154518717,29.9342508037871
41,1437154519454,45.2866401465945
42,1437154520183,28.5413157670871
43,1437154520831,32.7840350123394
44,1437154521556,28.6078217975251
45,1437154522342,36.0222375697876
46,1437154523042,49.9053349318624
47,1437154523730,35.7554753590914
48,1437154524474,41.0246142192085
49,1437154525163,46.3427343503128
50,1437154525837,65.6047904989443
51,1437154526569,38.3336598664323
52,1437154527305,36.4139239620036
53,1437154528118,34.3916996847331
54,1437154528874,62.5677125916536
55,1437154529529,42.5368819662366
56,1437154530183,31.6463639396978
57,1437154530911,26.2144158206031
58,1437154531644,55.2444713545986
59,1437154532399,41.9534627679295
60,1437154533131,37.6157074678266
61,1437154533876,63.7856527815031
62,1437154534590,44.4284855971337
63,1437154535272,26.0538444939759
64,1437154536007,41.2400703425453
65,1437154536760,39.4798698538067
66,1437154537495,54.0405331917782
67,1437154538226,36.2842426518249
68,1437154538942,36.3091652106305
69,1437154539703,32.619593640748
70,1437154540389,30.5051026965652
71,1437154541045,27.0898603050607
72,1437154541781,30.1164055479203
73,1437154542504,52.2725953270118
74,1437154543255,51.4335583610696
75,1437154543961,63.9966297599544
76,1437154544753,30.7548188074453
77,1437154545484,42.2850622927868
78,1437154546211,40.2889877634888
79,1437154546936,46.0435920172603
80,1437154547669,30.8476176487348
81,1437154548397,46.1185111358259
82,1437154549122,25.6538309423796
83,1437154549856,34.2113317227199
84,1437154550571,33.4278534098417
85,1437154551270,28.9731598127719
86,1437154551951,29.0984878150241
87,1437154552685,27.2744722757843
88,1437154553432,42.8909646010752
89,1437154554182,31.110972833095
90,1437154554922,37.7395867690852
91,1437154555659,38.0370350259445
92,1437154556384,26.2002942182241
93,1437154557125,25.6500237610596
94,1437154559406,24.3066832679754
95,1437154560124,27.1924599440849
96,1437154560840,47.1461556146197
97,1437154561486,62.7142419100838
98,1437154562228,70.502249584512
99,1437154562955,59.155225742502
100,1437154563688,64.5440825690325
101,1437154564420,39.3644251839549
102,1437154565099,49.2419302339636
103,1437154565823,32.4253971516884
104,1437154566552,45.1583186199945
105,1437154567291,27.3932409155799
106,1437154568016,25.2586810979548
107,1437154568756,40.7044455182597
108,1437154569485,27.4779087690412
109,1437154570133,48.2589913672522
110,1437154570876,41.1306193581131
111,1437154571569,33.2440161147232
112,1437154572259,28.4988135719703
113,1437154573011,48.7428716787658
114,1437154573772,28.8278769919569
115,1437154574494,47.0336306444879
116,1437154575231,53.1724348731214
117,1437154575902,31.5464564833104
118,1437154577220,31.9413788592606
119,1437154577952,25.7344501956307
120,1437154578699,44.6944634629673
121,1437154579435,30.5330199471394
122,1437154580182,34.0047391007338
123,1437154580913,37.7244307708826
124,1437154581644,27.4702885369432
125,1437154582426,35.3347462035255
126,1437154583150,31.3366174746315
127,1437154583924,28.3007500280544
128,1437154584611,29.4196530987384
129,1437154585281,26.8447971348371
130,1437154586022,50.014901621551
131,1437154586754,27.0494079445834
132,1437154587481,29.6482273363233
133,1437154588236,39.3703448442734
134,1437154589005,24.7402485483648
135,1437154589691,26.0711829968689
136,1437154590335,28.7315590794728
137,1437154591022,43.8183851442986
138,1437154591731,55.7244821266076
139,1437154592379,35.8791489973202
140,1437154593114,34.5244032440854
141,1437154593851,36.5562266346577
142,1437154594612,59.9042847652931
143,1437154595340,46.5727564862917
144,1437154596019,48.8043341261277
145,1437154596749,54.204757237652
146,1437154597485,58.8286009171084
147,1437154598187,44.1921249165856
148,1437154598814,33.7164654263579
149,1437154599521,33.8549256688712
150,1437154600261,32.4678469455281
151,1437154600981,30.8109104425624
152,1437154601694,29.1997552022357
153,1437154602361,39.5591364602025
154,1437154603087,58.9651750855441
155,1437154603810,48.4436814631446
156,1437154604529,45.3519330771828
157,1437154605290,36.3164225025605
158,1437154606005,38.6849606907938
159,1437154608001,54.5090840688625
160,1437154608647,53.8916007671149
161,1437154609400,39.5335787342405
162,1437154610095,40.3275592787913
163,1437154610715,44.7419539120505
164,1437154611435,59.9748641843401
165,1437154612119,52.4445430783921
166,1437154612776,40.1357078232708
167,1437154613500,35.3353790899039
168,1437154614366,36.837414320188
169,1437154615060,45.5324537330249
170,1437154615710,31.2583263684499
171,1437154616436,55.8089800439563
172,1437154617174,34.7618834118688
173,1437154617910,24.9530046264119
174,1437154618660,51.7375882207437
175,1437154619451,49.0822028664693
176,1437154620202,44.8430872217748
177,1437154620945,28.1147136162768
178,1437154621690,26.734475479989
179,1437154622393,28.5380377823403
180,1437154623083,29.9569195871366
181,1437154623811,41.8096798668758
182,1437154624464,43.6168340593437
183,1437154625936,37.6500908749065
184,1437154626652,27.8262529041397
185,1437154627334,25.7003410308069
186,1437154628059,25.931760462069
187,1437154628856,50.438392145024
188,1437154629614,25.5007655340794
189,1437154630372,24.3927557866908
190,1437154631016,28.0997348456543
191,1437154631721,49.8124593534787
192,1437154632430,32.6307058360972
193,1437154633151,52.7093278858248
194,1437154633939,30.2799182310823
195,1437154634584,54.8738027408092
196,1437154635212,63.4170100162775
197,1437154635915,29.6901494363982
198,1437154636649,24.8664877058553
199,1437154637375,28.9010666587744
200,1437154638127,43.1730661800558
201,1437154638943,26.6094220364546
202,1437154639674,25.9439972911273
203,1437154640415,24.6144595735821
204,1437154641157,22.414410757126
205,1437154641888,41.5658650156352
206,1437154642615,37.8835158190155
207,1437154643278,44.526417348144
208,1437154644022,27.3579022358332
209,1437154644754,46.1183797951159
210,1437154645479,34.8799285738798
211,1437154646196,58.0119019022414
212,1437154646883,30.5678491209824
213,1437154647619,54.1010363675747
214,1437154648358,56.6892944024212
215,1437154649084,65.1209199102041
216,1437154649798,35.9858668435017
217,1437154650544,37.4225134102107
218,1437154651279,42.9360323761914
219,1437154652010,48.7444738839232
220,1437154652740,48.9444530021145
221,1437154653443,50.794355747453
222,1437154654208,43.8166001139264
223,1437154654926,47.0286624989597
224,1437154655654,44.4864007609581
225,1437154656446,43.5758761904013
226,1437154657174,56.2961614919588
227,1437154657913,30.6787806780517
228,1437154658642,44.3335634521705
229,1437154659425,29.6473613019264
230,1437154660214,28.1620569074707
231,1437154660949,64.8385570119582
232,1437154661702,44.5137272249087
233,1437154662420,36.3284122105674
234,1437154663115,44.4966482484895
235,1437154663753,45.2123319820584
236,1437154664498,33.9397090408768
237,1437154665310,39.2163887606484
238,1437154666001,25.5195176481973
239,1437154666668,44.5014735647072
240,1437154667402,28.0947893382771
241,1437154668136,26.4116056202976
242,1437154668899,25.7156008325146
243,1437154669714,27.7393329666796
244,1437154670447,24.2516667411985
245,1437154671180,66.7976956319313
246,1437154671936,29.6684800292349
247,1437154672661,49.7836849489851
248,1437154673359,51.9280582828098
249,1437154673982,26.2475934926969
250,1437154674694,25.491310918907
251,1437154675352,27.1462901955651
252,1437154676013,50.8513250907525
253,1437154676742,43.1621005962813
254,1437154677491,29.2263143560205
255,1437154678152,66.9949828741592
256,1437154678892,57.7122207343422
257,1437154679666,34.6375196063138
258,1437154680426,40.921319588726
259,1437154681155,42.4580085326262
260,1437154681888,46.6668871659522
261,1437154682624,48.0378458479333
262,1437154683353,46.3852594921175
263,1437154684051,42.0083102683897
264,1437154684681,41.3259780407692
265,1437154685407,38.5277898548174
266,1437154686122,37.5246494010573
267,1437154686836,29.6543811283934
268,1437154687540,40.2125275236365
269,1437154688234,54.9686209568727
270,1437154688964,64.6735666638663
271,1437154689772,29.6166953516109
272,1437154690538,60.8376563505005
273,1437154691257,29.5157747012604
274,1437154691865,28.3718674136262
275,1437154692585,54.0454952433851
276,1437154693333,57.6872633247152
277,1437154694086,61.9921517035364
278,1437154694732,44.276348390076
279,1437154695426,73.1587597842288
280,1437154696153,70.6702996254051
281,1437154696890,35.019859547859
282,1437154697588,31.2258937183724
283,1437154698284,57.3363673256033
284,1437154699013,40.2181339801771
285,1437154699746,56.5921091176396
286,1437154700464,52.2111036859664
287,1437154701197,30.4800027692005
288,1437154701892,73.1983698286432
289,1437154702628,71.6088232013361
290,1437154703383,52.1275380088275
291,1437154704058,40.432169764999
292,1437154704724,28.9306095641605
293,1437154705432,59.2221065114965
294,1437154706128,60.9482856465375
295,1437154706781,44.5330991114164
296,1437154707536,26.7599816837685
297,1437154708270,43.1245632757708
298,1437154709001,32.5480653560898
299,1437154709739,30.160589649935
300,1437154710458,32.3179107969431
301,1437154711192,29.0412314878443
302,1437154711876,28.2817294546397
303,1437154712545,56.7267848023201
304,1437154713316,60.6727997202727
305,1437154714073,29.3074108398258
306,1437154714737,27.4185914350665
307,1437154715439,29.4266802877029
308,1437154716154,30.0678635001044
309,1437154716885,34.367397211233
310,1437154717606,35.9497856906109
311,1437154718328,62.4941723290547
312,1437154719083,72.1077757663948
313,1437154719797,41.3811024065629
314,1437154720580,45.3448963453401
315,1437154721336,52.2147740480164
316,1437154722074,51.3577161526846
317,1437154722801,38.8903104472745
318,1437154723552,35.4647134296173
319,1437154724240,49.8799839665669
320,1437154724921,33.3101560439795
321,1437154725647,30.4866638422007
322,1437154726382,34.0750688077138
323,1437154727068,66.690053028683
324,1437154727741,34.935655770944
325,1437154728490,46.9114842817702
326,1437154729221,32.4232577962364
327,1437154729955,67.845963744145
328,1437154730693,34.9039720336323
329,1437154731419,33.3328500867882
330,1437154732100,37.1512581902848
331,1437154732836,38.8940900049277
332,1437154733574,36.972458042172
333,1437154734299,34.844162868018
334,1437154735018,35.6489359066643
335,1437154735643,64.5146141312257
336,1437154736329,35.6853936652202
337,1437154737062,49.2116732115573
338,1437154737784,49.4749122340753
339,1437154738541,58.9412214338724
340,1437154739272,58.0230148911895
341,1437154739981,62.3656288673785
342,1437154740746,41.4936671216377
343,1437154741500,60.3992690963912
344,1437154742244,37.5824052739703
345,1437154742962,30.9496405502645
346,1437154743689,30.9936216260283
347,1437154744430,39.7865902783616
348,1437154745129,31.4971453087407
349,1437154745788,30.3684367630281
350,1437154746489,39.3017249284479
351,1437154747196,37.7942177822136
352,1437154747946,35.0636945390422
353,1437154748650,36.6885615776541
354,1437154749389,36.4158660499142
355,1437154750126,37.9388914364219
356,1437154750846,42.0152439625525
357,1437154751582,43.7871087727142
358,1437154752204,44.3345358971318
359,1437154752865,43.169233548922
360,1437154753566,44.9842437939041
361,1437154754297,47.7879927401816
362,1437154755009,31.7376131071769
363,1437154755703,50.1088442887947
364,1437154756438,50.5776181237294
365,1437154757158,43.7724138969963
366,1437154757893,43.1933199177826
367,1437154758566,42.1910395467545
368,1437154759310,40.5492609375
369,1437154760026,43.1297231061292
370,1437154760778,62.3556426230091
371,1437154761503,65.2488709899391
372,1437154763547,43.6328591429011
373,1437154764341,52.971178131728
374,1437154765064,47.9020752853441
375,1437154765650,53.7276869187486
376,1437154766329,57.6007594228489
377,1437154767061,54.3591752672043
378,1437154767770,37.5143809595593
379,1437154768496,37.2775666210878
380,1437154769333,43.6294057223109
381,1437154770005,38.9703688296714
382,1437154770733,61.1149571912711
383,1437154771456,61.2253684736698
384,1437154772185,44.1648025431094
385,1437154772929,36.8474494052293
386,1437154773657,36.9261642643258
387,1437154774469,59.5112728104828
388,1437154775216,36.726745413179
389,1437154775918,54.6061520638989
390,1437154776578,34.5625064875508
391,1437154777298,42.1312283343474
392,1437154778025,27.362501756469
393,1437154778791,28.512279872743
394,1437154779515,60.2985905743305
395,1437154780195,65.4146145953146
396,1437154780932,29.2654934346186
397,1437154781696,31.4839947572233
398,1437154782430,31.3490342322732
399,1437154783148,42.6317398263838
400,1437154783846,31.6499182959971
401,1437154785338,58.1506955281144
402,1437154786068,27.6287512600891
403,1437154786749,27.6923930686265
404,1437154787469,28.9306095641605
405,1437154788231,48.4937441579314
406,1437154789001,45.4119708027777
407,1437154789668,31.6820890603898
408,1437154790415,60.134330268976
409,1437154791139,33.2489058654335
410,1437154791873,39.8586330702401
411,1437154792564,38.6303730348739
412,1437154793299,44.2427462544236
413,1437154794044,32.1539383710362
414,1437154794721,26.9959098787255
415,1437154795403,47.4878053506907
416,1437154796111,32.2221182444425
417,1437154796772,31.6435146975068
418,1437154797487,60.2307715103281
419,1437154798250,62.0795872461568
420,1437154798992,44.1226876837805
421,1437154799679,30.2987551520219
422,1437154800412,30.9931534535947
423,1437154801157,34.5980611523374
424,1437154801895,36.8938242204136
425,1437154802629,55.6455420068482
426,1437154803361,47.5255369529432
427,1437154804109,56.5213931598249
428,1437154804844,49.1081691699739
429,1437154805580,48.2940973137747
430,1437154806295,58.566566646273
431,1437154806961,55.9018052681384
432,1437154807588,56.1604533226971
433,1437154808262,68.2623635550304
434,1437154808990,57.8040272354566
435,1437154809723,61.7748270109196
436,1437154810522,27.7222853061659
437,1437154811110,31.6255185717494
438,1437154811871,47.2214859452457
439,1437154812578,58.2861296434583
440,1437154813155,44.5775275373563
441,1437154813841,24.5001302524024
442,1437154814556,25.9482271178576
443,1437154815294,40.7557675714979
444,1437154816030,43.0030467335868
445,1437154816755,27.5208285009825
446,1437154817424,42.9414592588629
447,1437154818153,24.0856767854774
448,1437154818920,28.4849482919486
449,1437154819656,28.7827140662061
450,1437154820431,25.1380228123713
451,1437154821172,39.9914220291844
452,1437154821905,37.9483415853986
453,1437154822582,32.6449575477288
454,1437154824155,45.7614702974809
455,1437154824800,48.2332839850403
456,1437154825525,28.6093222919706
457,1437154826259,29.6448319366276
458,1437154826991,29.7255004743766
459,1437154827702,56.8531797563931
460,1437154828410,47.3278747782909
461,1437154829162,30.8737888608399
462,1437154829833,29.6379348097469
463,1437154830582,40.9506658295424
464,1437154831343,60.9165993277062
465,1437154832079,63.7167119391244
466,1437154832786,32.8489547310771
467,1437154833476,27.4440685261494
468,1437154834208,40.559025215808
469,1437154834946,36.5777424207114
470,1437154835682,42.4876866550758
471,1437154836409,64.5315243341231
472,1437154837084,44.3510482391309
473,1437154837731,30.1420879216994
474,1437154838457,24.7685035072639
475,1437154839212,19.8514002065554
476,1437154839945,32.2893663050476
477,1437154840681,54.9402953735905
478,1437154841458,64.5877301535323
479,1437154842201,24.858695327279
480,1437154842942,23.2471044792458
481,1437154843672,37.7798917787177
482,1437154844413,22.0234586329504
483,1437154845915,24.2112276695891
484,1437154846596,56.9244018138087
485,1437154847349,29.4948852677843
486,1437154848042,56.8122900972912
487,1437154848751,33.0121736070477
488,1437154849413,55.1698511452078
489,1437154850018,46.9059720531964
490,1437154850724,54.7324659526146
491,1437154851492,46.3653142183017
492,1437154852150,46.0440858477657
493,1437154852894,42.2152057858167
494,1437154853635,40.7631137136364
495,1437154854355,47.0758111123204
496,1437154855076,46.9519720746692
497,1437154855819,47.3934900577991
498,1437154856561,36.6691139040717
499,1437154857291,27.7761577575128
500,1437154858047,27.6167279367454
501,1437154858839,26.2880406438371
502,1437154859591,24.6750769071625
503,1437154860346,40.2320955594719
504,1437154861073,53.2362554995267
505,1437154861760,48.394374315956
506,1437154862491,31.4683438828372
507,1437154863268,48.9004354043024
508,1437154864048,28.8771002423753
509,1437154864778,26.2576698769557
510,1437154865504,51.2376976246158
511,1437154866234,35.8244973705058
512,1437154866996,70.9518038346891
513,1437154867719,52.7532091049453
514,1437154868389,44.7808326967258
515,1437154869026,32.3812069220709
516,1437154869732,51.1044994647931
517,1437154870469,57.7117994741528
518,1437154871168,70.5887750489427
519,1437154871845,60.1933405611869
520,1437154872565,46.0501129726383
521,1437154873311,32.0930556760264
522,1437154873956,57.6666662109501
523,1437154874644,55.8965357508489
524,1437154875383,57.8033955214211
525,1437154876097,48.8016709622947
526,1437154876804,44.6926209927056
527,1437154877483,39.4032267291367
528,1437154878164,54.2541693085025
529,1437154878952,43.3584530067374
530,1437154879695,37.5116568602822
531,1437154880421,28.6385570914352
532,1437154881160,26.9350254490482
533,1437154881841,36.5205290034022
534,1437154882566,47.9650805665147
535,1437154883302,55.3753732170363
536,1437154884115,56.8478566922976
537,1437154884846,51.669621231467
538,1437154885575,25.9442899504939
539,1437154886313,26.6951920443919
540,1437154887046,47.1466101189075
541,1437154887783,42.5380021519742
542,1437154888455,25.1017607795444
543,1437154889070,40.6105547976308
544,1437154889762,28.6063895411074
545,1437154890488,42.892564098298
546,1437154891256,28.9329980713219
547,1437154891986,34.4621921515879
548,1437154892740,60.0088463763734
549,1437154893512,36.1496687664449
550,1437154894193,44.2693380450864
551,1437154894882,55.465470606447
552,1437154895612,40.7695368450937
553,1437154896348,45.1541816741015
554,1437154897077,35.543710046114
555,1437154897811,53.656975022081
556,1437154898542,39.4752030249107
557,1437154899210,35.5472960161986
558,1437154899868,63.2562665398351
559,1437154900614,31.1324440584386
560,1437154901355,35.2176703504214
561,1437154902070,30.2084607824043
562,1437154902759,31.7290547105386
563,1437154903461,31.9319373923025
564,1437154904115,31.3163134177831
565,1437154904805,46.6994528942141
566,1437154905478,29.0078462519607
567,1437154906119,29.1076276170382
568,1437154906795,25.5397038684641
569,1437154907495,29.2858343736493
570,1437154908181,28.1182254994786
571,1437154908968,42.6086770085366
572,1437154909609,49.6734428213867
573,1437154910280,29.4264951206899
574,1437154910952,35.2743145412204
575,1437154911649,45.050300875482
