id,attr_time,attr_db
1,1437154490190,49.3530184163111
2,1437154490927,27.6168799551666
3,1437154491671,33.7357693677323
4,1437154492450,30.9331059302364
5,1437154493238,35.9029037023775
6,1437154493971,41.4979904052104
7,1437154494691,43.1241136222998
8,1437154495427,41.9541592006406
9,1437154496147,44.0930387423869
10,1437154496860,47.4624527214762
11,1437154497557,53.317593228148
12,1437154498199,52.874285552352
13,1437154498843,48.7294390870748
14,1437154499497,46.9976178355417
15,1437154500226,44.1584129269547
16,1437154500980,45.7505737909146
17,1437154501713,43.5799991990257
18,1437154502421,52.1150356029289
19,1437154503070,55.1022022933987
20,1437154503815,43.9064700470572
21,1437154504540,42.0919704433012
22,1437154505279,36.5651701453058
23,1437154506008,42.8042810201458
24,1437154506762,49.7355411440423
25,1437154507493,40.6989347234614
26,1437154508138,42.3090918993878
27,1437154508820,26.3487346033485
28,1437154509569,21.6072345583856
29,1437154510306,47.7702301057113
30,1437154511035,48.7627529628375
31,1437154511756,50.5393264386747
32,1437154512490,34.6489767674061
33,1437154513224,50.5717698635939
34,1437154513945,50.5506452929476
35,1437154514693,20.1360160020173
36,1437154515463,33.9994674636379
37,1437154516148,25.0096642978158
38,1437154516868,23.3976591293464
39,1437154517613,56.984639321344
40,1437154518345,38.8646601128557
41,1437154519098,55.3040971775299
42,1437154519806,24.4459741110949
43,1437154520523,55.6875839436469
44,1437154521265,40.0181374830858
45,1437154521985,47.8113269137406
46,1437154522703,50.0369965826954
47,1437154523419,53.9136110923189
48,1437154524152,33.936669423598
49,1437154524881,40.7536468852518
50,1437154525587,44.5634199165577
51,1437154526324,43.140262262747
52,1437154527063,36.6291745081999
53,1437154527794,37.4831387611155
54,1437154528467,57.603994085104
55,1437154529081,43.3126567076604
56,1437154529773,54.9310026473177
57,1437154530501,42.894196620192
58,1437154531238,49.4749063239055
59,1437154531960,29.3373636486145
60,1437154532694,46.6063330087994
61,1437154533476,30.2777200846338
62,1437154534185,40.2578866881997
63,1437154534931,20.4631997078851
64,1437154535657,27.3895007891894
65,1437154536391,39.917966129787
66,1437154537135,30.1714268625135
67,1437154537922,43.3186468320287
68,1437154538619,34.1590566577805
69,1437154539263,33.6218516860009
70,1437154539940,61.0838293990059
71,1437154540682,22.8051764361674
72,1437154541438,22.8351405475029
73,1437154542120,22.2652552582628
74,1437154542722,41.9711134947844
75,1437154543406,51.1251334149993
76,1437154544141,64.3946458056308
77,1437154544880,29.4500182687394
78,1437154545599,47.8196474948716
79,1437154546321,37.5656798337975
80,1437154547050,46.1672214031851
81,1437154547803,24.4509682469578
82,1437154548506,44.2588978879785
83,1437154549122,24.3406949347764
84,1437154549822,36.9928470541674
85,1437154550554,38.3043729763821
86,1437154551331,42.0395232281573
87,1437154552086,24.9223353166852
88,1437154552795,22.3348625621993
89,1437154553518,37.761980405248
90,1437154554257,30.7129452610406
91,1437154554922,29.6185416670524
92,1437154555525,31.8509529279113
93,1437154556201,22.5828899194387
94,1437154556930,19.1297343944642
95,1437154557654,26.7641113756919
96,1437154558378,20.6311997812676
97,1437154559151,18.2859250473428
98,1437154559822,21.7954770226812
99,1437154560496,38.5834634808278
100,1437154561228,39.076385446377
101,1437154561944,57.6512835017932
102,1437154562686,48.0992331529819
103,1437154563433,47.8702647968226
104,1437154564199,54.5043402070193
105,1437154564920,27.5730635565747
106,1437154565662,34.4249584317095
107,1437154566376,36.803773317454
108,1437154567119,43.8561285741456
109,1437154567839,22.0829279007012
110,1437154568581,40.5483123193747
111,1437154569247,31.3773553272612
112,1437154569936,25.6095692870648
113,1437154570674,46.9699030171737
114,1437154571412,29.8034858070563
115,1437154572155,35.8707593545114
116,1437154572875,27.1454099660385
117,1437154573609,33.9673368376555
118,1437154574306,22.3961334212009
119,1437154574975,25.5159441728681
120,1437154575716,37.38688257605
121,1437154576449,28.6904288065379
122,1437154577172,40.3205739773572
123,1437154577896,20.6520057508228
124,1437154578648,46.1111685586538
125,1437154579372,41.72177870983
126,1437154580066,47.8525181976536
127,1437154580792,41.2484921336096
128,1437154581530,26.831996229257
129,1437154582251,26.0219292522814
130,1437154582984,23.5001716015682
131,1437154583732,23.0535118846106
132,1437154584476,52.0174177820597
133,1437154585183,34.3210910603632
134,1437154585863,50.882079675606
135,1437154586534,33.1617411160374
136,1437154587201,45.1446452470967
137,1437154587928,31.7632275733669
138,1437154588638,42.7053337485141
139,1437154589389,24.9215401626782
140,1437154590113,41.6302388230221
141,1437154590833,63.0285515958053
142,1437154591523,37.785620826194
143,1437154592281,32.752113001798
144,1437154592998,31.5381378482098
145,1437154593721,31.5886640263065
146,1437154594474,52.3475956734785
147,1437154595187,59.6088705703394
148,1437154597332,47.1446189982942
149,1437154598059,48.0038162149085
150,1437154598810,33.5031498104229
151,1437154599527,31.0571437575211
152,1437154600244,29.5989143563405
153,1437154600964,28.3811946761227
154,1437154601717,22.9859639778056
155,1437154602452,33.1219281151818
156,1437154603181,49.8394433271765
157,1437154603964,55.8486496040296
158,1437154604708,30.6446522415258
159,1437154605439,51.7646320268022
160,1437154606185,31.900518300655
161,1437154606890,27.4831408921145
162,1437154607629,30.9730274730296
163,1437154608352,48.2346481250365
164,1437154609063,42.7304244711028
165,1437154609781,52.1828652681755
166,1437154610477,45.1010678196585
167,1437154611134,43.8617264502307
168,1437154611871,38.9415519846406
169,1437154612555,42.593303517135
170,1437154613246,32.8890815544542
171,1437154614009,29.5781682812606
172,1437154616030,47.504294795708
173,1437154616760,40.4121330711568
174,1437154617491,41.9020130710368
175,1437154618258,21.8993223563296
176,1437154619015,33.6033996325307
177,1437154619752,26.9656379629395
178,1437154620480,29.9263929534907
179,1437154621183,33.5260175560604
180,1437154621915,33.0186703032073
181,1437154622651,18.591016023139
182,1437154623453,49.3049091080343
183,1437154624138,56.4785615335936
184,1437154624821,30.8105248312303
185,1437154625547,21.9614960673277
186,1437154626214,36.1216845287549
187,1437154626941,22.913163763916
188,1437154627675,25.495576040337
189,1437154628429,49.179364659669
190,1437154629211,21.8271724139076
191,1437154629827,21.71001317614
192,1437154630542,19.2732490793048
193,1437154631232,29.8314016447672
194,1437154631911,44.5066108407548
195,1437154632650,23.4213316245961
196,1437154633448,29.2512922832202
197,1437154634149,18.1847993841707
198,1437154634839,46.9718414320046
199,1437154635563,45.2282264229823
200,1437154636294,19.8808532807814
201,1437154637030,23.8779025122162
202,1437154637771,22.7659350538309
203,1437154638510,45.9569677916868
204,1437154639228,37.4574813999389
205,1437154639979,20.6363129427564
206,1437154640720,20.9540467895529
207,1437154641379,21.6727244905739
208,1437154642104,44.1182462963379
209,1437154642862,41.7048558682835
210,1437154643664,24.7712041663338
211,1437154644386,37.4900581947535
212,1437154646441,33.0350527240635
213,1437154647164,39.1736294763363
214,1437154647882,42.0725218547921
215,1437154648641,33.6576202554623
216,1437154649341,30.0495954504554
217,1437154650025,33.0212725188592
218,1437154650735,38.7988263073715
219,1437154651465,41.5213953052908
220,1437154652040,49.1675210710949
221,1437154652736,48.6655006908979
222,1437154653511,47.8442189902689
223,1437154654212,40.3722933946347
224,1437154654803,49.0355359483407
225,1437154655488,47.4145645640032
226,1437154656206,37.3944418752842
227,1437154656932,36.0069830237949
228,1437154657665,25.7206200935991
229,1437154658472,43.9357999405162
230,1437154659220,21.0689469337433
231,1437154659952,22.2357277084847
232,1437154660678,21.1628284251666
233,1437154662646,35.5540849968905
234,1437154663375,48.5078234134113
235,1437154664129,48.0002782846712
236,1437154664838,23.2048027635602
237,1437154665602,38.1557221960327
238,1437154666332,16.9957094584522
239,1437154667042,29.1460227595369
240,1437154667761,20.1061746524408
241,1437154668514,17.5544928567824
242,1437154669227,21.0113268332262
243,1437154669901,23.7710447544595
244,1437154670620,41.6632219331103
245,1437154671353,61.1821754077769
246,1437154672082,28.6605890543501
247,1437154672770,50.9864309284275
248,1437154673381,31.891267991112
249,1437154674041,20.4647520163743
250,1437154674766,21.0030998424743
251,1437154675506,20.5434070124808
252,1437154676242,46.8530159763829
253,1437154676947,44.6080423222152
254,1437154677692,29.5978344131973
255,1437154678449,48.9278901585644
256,1437154679146,36.5296724449384
257,1437154679872,32.1965534543728
258,1437154680611,38.4513128202403
259,1437154681339,38.3200452347024
260,1437154682068,42.0557297255927
261,1437154682801,46.6343766029347
262,1437154683519,43.6692564894669
263,1437154684156,39.9465008364862
264,1437154684841,42.6625716791816
265,1437154685580,41.9664027895345
266,1437154686325,40.3126353392369
267,1437154687043,32.2686946783805
268,1437154687769,33.3862963652239
269,1437154688489,38.0322836563887
270,1437154689273,25.6873211090544
271,1437154689901,27.4587539314593
272,1437154690662,52.6232723499279
273,1437154691776,22.8212862586615
274,1437154692362,50.1196214859313
275,1437154693031,43.326382897604
276,1437154693748,43.5455806532409
277,1437154694394,37.252707807843
278,1437154695094,35.6418624822809
279,1437154695815,60.5717173428634
280,1437154696551,63.3777602711348
281,1437154697282,35.8932505179317
282,1437154697999,54.0281392836222
283,1437154698732,52.3085213743058
284,1437154699496,67.0014256408164
285,1437154700251,51.6444440480145
286,1437154700970,34.0449587774444
287,1437154701707,43.4520845860606
288,1437154702456,56.3421143477077
289,1437154703179,46.1662919897004
290,1437154703892,23.9213853660713
291,1437154704613,25.8726988724164
292,1437154705322,42.7169663533371
293,1437154706010,52.4426246254549
294,1437154706687,45.1190301436189
295,1437154707407,44.7858848084153
296,1437154708136,43.0980687704152
297,1437154708865,28.1910339758329
298,1437154709600,19.766099190888
299,1437154710315,26.3668401555518
300,1437154711048,23.340300444875
301,1437154711791,26.7865165146324
302,1437154712520,48.0317309044757
303,1437154713170,36.3928467855055
304,1437154713844,25.4477679253787
305,1437154714569,22.8357701937149
306,1437154715227,27.2305258002668
307,1437154715952,30.7114306253189
308,1437154716692,30.2712541653799
309,1437154717436,30.8799496696716
310,1437154718162,56.607407176954
311,1437154718844,54.0693021541804
312,1437154719524,40.1845491105258
313,1437154720245,42.0558160477794
314,1437154720959,46.0662994678303
315,1437154721710,46.8200674204672
316,1437154722475,52.3851194520867
317,1437154723188,29.9946377304185
318,1437154723862,41.5933246846456
319,1437154724595,31.264245722692
320,1437154725335,32.8997634295864
321,1437154726072,25.4132012903124
322,1437154726806,40.8180286365301
323,1437154727543,40.6879496098292
324,1437154728270,53.2450006837828
325,1437154729013,53.0407278443117
326,1437154729741,29.1294009373901
327,1437154730389,39.0973346763327
328,1437154731138,33.230493480314
329,1437154731864,38.6091291167365
330,1437154732602,36.350783390508
331,1437154733359,51.6033376781127
332,1437154734083,33.2501240453125
333,1437154734800,37.2807313022354
334,1437154735535,37.663760186721
335,1437154736215,40.2001597510304
336,1437154736950,38.1995971621275
337,1437154737679,49.619943997664
338,1437154738413,39.8935657809012
339,1437154739140,48.4557715330922
340,1437154739820,44.4777673114013
341,1437154740489,49.2577529774817
342,1437154741209,39.3108226535003
343,1437154741928,36.6182682869612
344,1437154742670,32.3361397816661
345,1437154743427,26.1117305563761
346,1437154744187,28.5862678249588
347,1437154744861,31.9154051439575
348,1437154745601,32.841206235663
349,1437154746340,36.4795691777866
350,1437154747071,41.0193733873357
351,1437154747791,36.3601636458587
352,1437154748530,34.0740974514508
353,1437154749258,37.0320555024457
354,1437154750018,38.8817807489762
355,1437154750614,41.9665001681577
356,1437154751341,44.4924840971888
357,1437154752080,45.0399878603013
358,1437154752790,44.2329160121823
359,1437154753485,42.1722159562534
360,1437154754135,50.4426806189629
361,1437154754863,42.3453232757601
362,1437154755604,43.4874959641488
363,1437154756345,41.0128219047582
364,1437154757095,41.0483602732993
365,1437154757831,44.6417345905947
366,1437154758574,43.680187828419
367,1437154759310,44.3638202716719
368,1437154760020,48.3658465630443
369,1437154760780,47.9728160911214
370,1437154761449,55.7208066913895
371,1437154762159,38.16808557387
372,1437154762877,33.1323650473867
373,1437154763613,53.0996728434241
374,1437154764394,46.7312961251795
375,1437154765111,44.1656847525135
376,1437154765826,47.3848444168534
377,1437154766594,51.2657914914497
378,1437154767329,42.8006896118466
379,1437154768069,49.122985857456
380,1437154768785,41.4543326331678
381,1437154769504,44.9774490906809
382,1437154770170,39.7866269435968
383,1437154770775,40.1092595160133
384,1437154771461,42.5034789512886
385,1437154772198,42.4327456919041
386,1437154772913,36.42500955763
387,1437154773640,37.317736528922
388,1437154774382,47.7864551569285
389,1437154775185,33.9350514007564
390,1437154775789,45.7600535217906
391,1437154776480,51.3497777200626
392,1437154777225,40.1807683352548
393,1437154777956,27.0017478529089
394,1437154778680,25.6778881950887
395,1437154779455,23.5737600890774
396,1437154780198,29.8685261572257
397,1437154780925,25.4050117598945
398,1437154781565,30.4947438911702
399,1437154782315,28.6930488472849
400,1437154783026,51.7700827054744
401,1437154783773,38.3624722043984
402,1437154784480,43.6400273223781
403,1437154785148,27.689002520971
404,1437154785865,39.386209705952
405,1437154786618,45.9303251902406
406,1437154787346,24.8698380169737
407,1437154788075,44.2827447408811
408,1437154788812,31.2864535112232
409,1437154789530,23.2990348321605
410,1437154790268,29.4326178518722
411,1437154790893,36.4345004472618
412,1437154791517,33.1188903854794
413,1437154792262,48.6715926394566
414,1437154792995,29.9706577651757
415,1437154793743,46.7316733521201
416,1437154794597,23.0126819019707
417,1437154795270,39.4667599735801
418,1437154796019,29.6156896556386
419,1437154796761,22.1088618695852
420,1437154797486,27.9867796424553
421,1437154798216,43.6538163734702
422,1437154798944,43.5138172698544
423,1437154799674,23.6005344465202
424,1437154801258,28.3050827046541
425,1437154801982,36.618846328606
426,1437154802695,54.569215061294
427,1437154803368,44.672024962906
428,1437154804070,44.2657927605122
429,1437154804778,47.6347393704843
430,1437154805525,43.5287174393228
431,1437154806255,39.9176905765448
432,1437154806975,41.0956626978963
433,1437154807698,56.8784385270117
434,1437154808443,55.1692359431859
435,1437154809166,41.5231714631326
436,1437154809894,42.0218147839577
437,1437154810630,23.8893746795606
438,1437154811303,45.955103029748
439,1437154812029,43.6371603853637
440,1437154812752,48.6757202152701
441,1437154813489,35.2124502793291
442,1437154814185,37.1210877876827
443,1437154814906,36.8107796116449
444,1437154815622,51.4808684128557
445,1437154816374,45.8089452448037
446,1437154817100,39.8394414277092
447,1437154817846,30.9470582744687
448,1437154818586,51.4124564054958
449,1437154819328,16.2083019079248
450,1437154820056,17.7262620810086
451,1437154820790,41.8452820098295
452,1437154821529,26.2690497952996
453,1437154822269,43.9294336235162
454,1437154824496,39.8227674185264
455,1437154825141,38.8707764232375
456,1437154825858,24.2969632626667
457,1437154826590,21.9262390237458
458,1437154827360,22.8040076417201
459,1437154828082,26.9860886455355
460,1437154828766,43.3961772650693
461,1437154829488,29.6762450996683
462,1437154830224,23.5869484978909
463,1437154830949,47.8772039530994
464,1437154831691,45.140510138882
465,1437154832388,28.4052030734285
466,1437154833118,24.0728025602211
467,1437154833836,22.7453627531467
468,1437154834512,43.8916270960379
469,1437154835239,19.4027397101413
470,1437154835988,42.3236540174031
471,1437154836728,33.1262685244882
472,1437154837450,42.5667072570635
473,1437154838180,18.3150105916019
474,1437154838943,16.0277342874295
475,1437154839669,16.7767795203179
476,1437154840397,34.0832686248229
477,1437154841159,49.0458545756644
478,1437154841896,21.742880975815
479,1437154842623,17.6664262455969
480,1437154843327,38.5305119152961
481,1437154843960,43.3686105962895
482,1437154844648,18.2577254967938
483,1437154845356,17.8717789044696
484,1437154846093,18.0590633926805
485,1437154846829,19.1826450991303
486,1437154847595,43.7662896879145
487,1437154848321,25.4476396872977
488,1437154849083,49.8248317619391
489,1437154849806,38.7963811428249
490,1437154850534,46.5195368568521
491,1437154851226,42.4452842248483
492,1437154851904,47.1862024384588
493,1437154852653,41.5937510069803
494,1437154853421,36.5501499657288
495,1437154854145,37.1413475675861
496,1437154854876,44.3743386873411
497,1437154855598,36.1875078938302
498,1437154856353,38.882743346547
499,1437154857124,45.6151185288631
500,1437154857859,22.7078786891535
501,1437154858575,23.1955208491027
502,1437154859314,30.7112659695525
503,1437154860053,45.1577798357142
504,1437154860753,34.3290078318976
505,1437154862505,26.0672566842711
506,1437154863186,26.9427068326601
507,1437154863927,46.1403317537524
508,1437154864573,21.7680765111318
509,1437154865271,26.7011255248149
510,1437154866007,39.5850874520999
511,1437154866729,59.1601344854352
512,1437154867457,54.5929541450615
513,1437154868187,47.8119958352098
514,1437154868936,30.0429077088178
515,1437154869671,49.4938023876809
516,1437154870391,39.804581061461
517,1437154871132,42.2905913983082
518,1437154871798,51.2314460379756
519,1437154872494,31.5955209236095
520,1437154873225,47.4564858546157
521,1437154873960,36.8964055728924
522,1437154874681,41.6332858826441
523,1437154875396,49.5483640707075
524,1437154876120,45.1907141917799
525,1437154876842,43.955742655837
526,1437154877568,33.4076673788659
527,1437154878335,31.3986578254616
528,1437154879081,37.4703760478434
529,1437154879791,31.4869447998717
530,1437154880520,25.4848113705185
531,1437154881214,25.2484298111637
532,1437154882795,26.2330051931538
533,1437154883532,42.066333276209
534,1437154884335,36.5966731686922
535,1437154885078,42.0984040164571
536,1437154885819,22.2453037982779
537,1437154886490,32.4062330068486
538,1437154887224,47.6572622634295
539,1437154887941,35.5258813347135
540,1437154888756,25.2316252604171
541,1437154889490,33.6748541223865
542,1437154890166,24.8379921281124
543,1437154890809,25.7701272475501
544,1437154891505,29.1492436355272
545,1437154892252,36.993285784903
546,1437154892980,44.1743008593279
547,1437154893721,35.4467470435024
548,1437154894499,30.6392557224673
549,1437154895225,35.6396506873631
550,1437154895941,52.8408523111111
551,1437154896602,48.0957115740811
552,1437154897378,44.2070539418249
553,1437154898098,36.6914767310265
554,1437154898846,36.772844808008
555,1437154899584,24.8301579197096
556,1437154900349,25.7285005758853
557,1437154901068,37.3239318981584
558,1437154901707,45.6759695797664
559,1437154902459,29.363990793913
560,1437154903189,31.5102804841254
561,1437154903955,28.0467286281751
562,1437154904694,27.2615943942452
563,1437154905415,26.0903020185047
564,1437154906141,22.2648617864313
565,1437154906833,22.1003227958077
566,1437154907501,25.086976228797
567,1437154908249,24.0977158126842
568,1437154908959,52.0445918990032
569,1437154909704,49.7871822995894
570,1437154910467,27.2883982225211
571,1437154911147,43.6929975366759
572,1437154911878,36.1403647993773
573,1437154912609,39.2296747020963
574,1437154913346,33.4580893050086
575,1437154914087,35.676275431127
