id,attr_time,attr_x,attr_y,attr_z
1,1436371709199,-7.65,-45.104,-8.259
2,1436371709220,-7.65,-45.104,-8.259
3,1436371709243,-7.65,-45.104,-8.259
4,1436371709262,-7.65,-45.104,-8.259
5,1436371709281,-7.65,-45.104,-8.259
6,1436371709300,-7.65,-45.104,-8.259
7,1436371709319,-7.65,-45.104,-8.259
8,1436371709340,-7.65,-45.104,-8.259
9,1436371709360,-7.65,-45.104,-7.907
10,1436371709382,-7.65,-45.104,-7.907
11,1436371709403,-7.65,-45.104,-7.907
12,1436371709421,-7.65,-45.104,-7.907
13,1436371709440,-7.65,-45.104,-7.907
14,1436371709458,-7.65,-45.104,-7.907
15,1436371709479,-7.65,-45.104,-7.907
16,1436371709499,-7.65,-45.104,-7.907
17,1436371709520,-7.65,-45.104,-7.907
18,1436371709565,-7.65,-45.104,-7.907
19,1436371709566,-7.65,-45.104,-7.907
20,1436371709580,-7.65,-45.104,-7.907
21,1436371709600,-7.65,-45.104,-7.907
22,1436371709618,-7.65,-45.104,-7.907
23,1436371709638,-7.65,-45.104,-7.907
24,1436371709659,-7.65,-45.104,-7.907
25,1436371709722,-7.65,-45.104,-7.907
26,1436371709723,-7.65,-45.104,-7.907
27,1436371709725,-7.65,-45.104,-7.907
28,1436371709743,-7.65,-45.104,-7.907
29,1436371709758,-7.65,-45.104,-7.907
30,1436371709779,-7.65,-45.104,-7.907
31,1436371709799,-7.65,-45.104,-7.907
32,1436371709819,-7.65,-45.104,-7.907
33,1436371709839,-7.65,-45.104,-7.907
34,1436371709861,-7.65,-45.104,-7.907
35,1436371709882,-7.65,-45.104,-7.907
36,1436371709903,-7.65,-45.104,-7.907
37,1436371709920,-7.65,-45.104,-7.907
38,1436371709943,-7.65,-45.104,-7.907
39,1436371709961,-7.65,-45.104,-8.216
40,1436371709980,-7.65,-45.104,-8.216
41,1436371710001,-7.65,-45.104,-8.216
42,1436371710023,-7.65,-45.104,-8.216
43,1436371710045,-7.65,-45.104,-8.216
44,1436371710061,-7.65,-45.104,-8.216
45,1436371710082,-7.65,-45.104,-8.216
46,1436371710101,-7.65,-45.104,-8.216
47,1436371710119,-7.65,-45.104,-8.216
48,1436371710141,-7.65,-45.104,-8.216
49,1436371710163,-7.65,-45.104,-8.216
50,1436371710182,-7.65,-45.104,-8.216
51,1436371710203,-7.65,-45.104,-8.216
52,1436371710222,-7.65,-45.104,-8.216
53,1436371710241,-7.65,-45.104,-8.216
54,1436371710260,-7.65,-45.104,-8.216
55,1436371710281,-7.65,-45.104,-8.216
56,1436371710305,-7.327,-45.104,-8.216
57,1436371710345,-7.327,-45.104,-8.216
58,1436371710346,-7.327,-45.104,-8.216
59,1436371710365,-7.327,-45.104,-8.216
60,1436371710382,-7.327,-45.104,-8.535
61,1436371710403,-7.327,-45.104,-8.535
62,1436371710421,-7.327,-45.104,-8.535
63,1436371710440,-7.327,-45.104,-8.535
64,1436371710461,-7.327,-45.104,-8.535
65,1436371710480,-7.327,-45.104,-8.535
66,1436371710502,-7.327,-45.104,-8.535
67,1436371710520,-7.327,-45.104,-8.535
68,1436371710542,-7.327,-45.104,-8.535
69,1436371710561,-7.327,-45.104,-8.535
70,1436371710604,-7.327,-45.104,-8.535
71,1436371710605,-7.327,-45.104,-8.535
72,1436371710620,-7.327,-45.104,-8.535
73,1436371710642,-7.327,-45.104,-8.535
74,1436371710661,-7.327,-45.104,-8.535
75,1436371710681,-7.327,-45.104,-8.535
76,1436371710701,-7.327,-45.104,-8.535
77,1436371710724,-7.327,-45.104,-8.535
78,1436371710745,-7.327,-45.104,-8.535
79,1436371710762,-7.327,-45.104,-8.535
80,1436371710783,-7.327,-45.104,-8.535
81,1436371710801,-7.327,-45.104,-8.535
82,1436371710821,-7.327,-45.104,-8.535
83,1436371710840,-7.327,-45.104,-8.535
84,1436371710862,-7.327,-45.104,-8.535
85,1436371710882,-7.327,-45.104,-8.535
86,1436371710902,-7.327,-45.104,-8.535
87,1436371710924,-7.327,-45.104,-8.535
88,1436371710942,-7.327,-45.104,-8.535
89,1436371710963,-7.327,-45.104,-8.535
90,1436371710983,-7.327,-45.104,-8.535
91,1436371711001,-7.327,-45.104,-8.535
92,1436371711068,-7.327,-45.104,-8.535
93,1436371711069,-7.327,-45.104,-8.535
94,1436371711070,-7.327,-45.104,-8.535
95,1436371711094,-7.327,-45.104,-8.535
96,1436371711102,-7.327,-45.104,-8.535
97,1436371711121,-7.327,-45.104,-8.535
98,1436371711143,-7.327,-45.104,-8.535
99,1436371711160,-7.327,-45.104,-8.535
100,1436371711186,-7.327,-45.104,-8.535
101,1436371711202,-7.327,-45.104,-8.535
102,1436371711222,-7.327,-45.104,-8.535
103,1436371711241,-7.327,-45.104,-8.535
104,1436371711263,-7.327,-45.104,-8.535
105,1436371711284,-7.327,-45.104,-8.535
106,1436371711304,-7.327,-45.104,-8.535
107,1436371711323,-7.327,-45.104,-8.535
108,1436371711342,-7.327,-45.104,-8.535
109,1436371711361,-7.327,-45.104,-8.213
110,1436371711380,-7.327,-45.104,-8.213
111,1436371711401,-7.327,-45.104,-8.213
112,1436371711422,-7.327,-45.104,-8.213
113,1436371711443,-7.327,-45.104,-8.213
114,1436371711464,-7.327,-45.104,-8.213
115,1436371711486,-7.327,-45.104,-8.213
116,1436371711505,-7.327,-45.104,-8.213
117,1436371711524,-7.327,-45.104,-8.213
118,1436371711543,-7.327,-45.104,-8.213
119,1436371711562,-7.327,-45.104,-8.213
120,1436371711581,-7.327,-45.104,-8.213
121,1436371711602,-7.327,-45.104,-8.213
122,1436371711627,-7.327,-45.104,-8.213
123,1436371711644,-7.327,-45.104,-8.213
124,1436371711662,-7.327,-45.104,-8.213
125,1436371711691,-7.327,-45.104,-7.899
126,1436371711702,-7.652,-45.104,-7.899
127,1436371711723,-7.652,-45.104,-7.899
128,1436371711751,-7.652,-45.104,-7.899
129,1436371711798,-7.652,-45.104,-7.899
130,1436371711803,-7.652,-45.104,-7.899
131,1436371711814,-7.652,-45.104,-7.899
132,1436371711825,-7.652,-45.104,-7.899
133,1436371711843,-7.652,-45.104,-7.899
134,1436371711864,-7.652,-45.104,-7.899
135,1436371711881,-7.971,-45.104,-7.899
136,1436371711903,-7.971,-45.104,-7.899
137,1436371711923,-7.971,-45.104,-7.899
138,1436371711942,-7.971,-45.104,-7.899
139,1436371711963,-7.971,-45.104,-7.899
140,1436371711982,-7.971,-45.104,-7.899
141,1436371712003,-7.971,-45.104,-7.899
142,1436371712024,-7.971,-45.104,-7.899
143,1436371712046,-7.971,-45.104,-7.899
144,1436371712065,-7.971,-45.104,-7.899
145,1436371712084,-7.971,-45.104,-7.899
146,1436371712103,-7.971,-45.104,-7.899
147,1436371712122,-7.971,-45.104,-7.899
148,1436371712141,-7.971,-45.104,-7.899
149,1436371712161,-7.971,-45.104,-7.899
150,1436371712182,-7.971,-45.104,-7.899
151,1436371712235,-7.971,-45.104,-7.899
152,1436371712236,-7.971,-45.104,-7.899
153,1436371712242,-7.971,-45.104,-7.899
154,1436371712262,-7.971,-45.104,-7.899
155,1436371712285,-7.971,-45.104,-7.899
156,1436371712305,-7.971,-45.104,-7.899
157,1436371712324,-7.971,-45.104,-7.899
158,1436371712343,-7.971,-45.104,-7.899
159,1436371712362,-7.971,-45.104,-7.899
160,1436371712381,-7.971,-45.104,-7.899
161,1436371712403,-7.971,-45.104,-7.899
162,1436371712443,-7.971,-45.104,-7.899
163,1436371712444,-7.971,-45.104,-7.899
164,1436371712462,-7.971,-45.104,-7.899
165,1436371712482,-7.971,-45.104,-7.899
166,1436371712519,-7.971,-45.104,-7.899
167,1436371712530,-7.971,-45.104,-7.899
168,1436371712542,-7.971,-45.104,-8.209
169,1436371712562,-7.971,-45.104,-8.209
170,1436371712582,-7.971,-45.104,-8.209
171,1436371712602,-7.971,-45.104,-8.209
172,1436371712622,-7.971,-45.104,-8.209
173,1436371712643,-7.971,-45.104,-8.515
174,1436371712662,-7.971,-45.104,-8.515
175,1436371712692,-7.971,-45.104,-8.515
176,1436371712718,-7.971,-45.104,-8.515
177,1436371712723,-7.971,-45.104,-8.515
178,1436371712744,-7.971,-45.104,-8.515
179,1436371712762,-7.971,-45.104,-8.515
180,1436371712782,-7.971,-45.104,-8.515
181,1436371712804,-7.971,-45.104,-8.515
182,1436371712823,-7.971,-45.104,-8.818
183,1436371712842,-7.971,-45.104,-8.818
184,1436371712862,-7.971,-45.104,-8.818
185,1436371712882,-7.971,-45.104,-8.818
186,1436371712904,-7.971,-45.104,-8.818
187,1436371712924,-7.644,-45.104,-8.818
188,1436371712944,-7.644,-45.104,-8.818
189,1436371712962,-7.644,-45.104,-8.818
190,1436371712983,-7.644,-45.104,-8.818
191,1436371713002,-7.644,-45.104,-8.818
192,1436371713022,-7.644,-45.104,-8.818
193,1436371713044,-7.644,-45.104,-8.818
194,1436371713064,-7.644,-45.104,-8.818
195,1436371713082,-7.644,-45.104,-8.818
196,1436371713102,-7.644,-45.104,-8.818
197,1436371713123,-7.644,-45.104,-8.818
198,1436371713143,-7.644,-45.104,-8.818
199,1436371713162,-7.341,-45.104,-8.818
200,1436371713182,-7.341,-45.104,-8.818
201,1436371713203,-7.341,-45.104,-8.818
202,1436371713224,-7.341,-45.104,-8.818
203,1436371713251,-7.341,-45.104,-8.818
204,1436371713267,-7.341,-45.104,-8.818
205,1436371713282,-7.341,-45.104,-8.818
206,1436371713302,-7.341,-45.104,-8.818
207,1436371713322,-7.341,-45.104,-8.818
208,1436371713344,-7.341,-45.104,-8.818
209,1436371713363,-7.341,-45.104,-8.818
210,1436371713383,-7.341,-45.104,-8.818
211,1436371713403,-7.341,-45.104,-8.818
212,1436371713424,-7.341,-45.104,-8.818
213,1436371713444,-7.341,-45.104,-8.818
214,1436371713464,-7.341,-45.104,-8.818
215,1436371713482,-7.341,-45.104,-8.818
216,1436371713505,-7.341,-45.104,-8.818
217,1436371713524,-7.341,-45.104,-8.818
218,1436371713543,-7.341,-45.104,-8.818
219,1436371713563,-7.341,-45.104,-8.818
220,1436371713583,-7.341,-45.104,-8.818
221,1436371713604,-7.341,-45.104,-8.818
222,1436371713625,-7.341,-45.104,-8.818
223,1436371713644,-7.341,-45.104,-8.818
224,1436371713666,-7.341,-45.104,-8.818
225,1436371713684,-7.023,-45.104,-8.818
226,1436371713706,-7.023,-45.104,-8.818
227,1436371713725,-7.023,-45.104,-8.818
228,1436371713745,-7.023,-45.104,-8.818
229,1436371713765,-7.023,-45.104,-8.818
230,1436371713784,-7.023,-45.104,-8.818
231,1436371713803,-7.023,-45.104,-8.818
232,1436371713823,-7.023,-45.104,-8.818
233,1436371713843,-7.023,-45.104,-8.818
234,1436371713872,-7.023,-45.104,-8.818
235,1436371713923,-7.023,-45.104,-8.818
236,1436371713924,-7.023,-45.104,-8.818
237,1436371713925,-7.023,-45.104,-8.818
238,1436371713948,-7.023,-45.104,-8.818
239,1436371713964,-7.023,-45.104,-9.129
240,1436371713986,-7.023,-45.104,-9.129
241,1436371714003,-7.023,-45.104,-9.129
242,1436371714025,-7.023,-45.104,-9.129
243,1436371714044,-7.023,-45.104,-9.129
244,1436371714064,-7.023,-45.104,-9.129
245,1436371714083,-7.023,-45.104,-9.129
246,1436371714104,-7.023,-45.104,-9.129
247,1436371714124,-7.023,-45.104,-9.129
248,1436371714144,-7.023,-45.104,-9.129
249,1436371714164,-7.023,-45.104,-9.129
250,1436371714183,-7.023,-45.104,-9.129
251,1436371714206,-7.023,-45.104,-9.129
252,1436371714224,-7.023,-45.104,-9.129
253,1436371714244,-7.023,-45.104,-9.129
254,1436371714264,-7.023,-45.104,-9.129
255,1436371714283,-7.023,-45.104,-9.129
256,1436371714304,-7.023,-45.104,-9.129
257,1436371714326,-7.023,-45.104,-8.815
258,1436371714345,-7.023,-45.104,-8.815
259,1436371714364,-7.023,-45.104,-8.815
260,1436371714383,-7.023,-45.104,-8.815
261,1436371714404,-7.023,-45.104,-8.815
262,1436371714424,-7.023,-45.104,-8.815
263,1436371714445,-7.023,-45.104,-8.815
264,1436371714464,-7.023,-45.104,-8.815
265,1436371714484,-7.023,-45.104,-8.815
266,1436371714504,-7.023,-45.104,-8.815
267,1436371714524,-7.023,-45.104,-8.815
268,1436371714545,-7.023,-45.104,-8.815
269,1436371714565,-7.023,-45.104,-8.815
270,1436371714726,-7.023,-45.104,-8.815
271,1436371714739,-7.023,-45.104,-8.815
272,1436371714740,-7.023,-45.104,-8.815
273,1436371714741,-7.023,-45.104,-8.815
274,1436371714746,-7.023,-45.104,-8.815
275,1436371714747,-7.023,-45.104,-8.815
276,1436371714748,-7.023,-45.104,-8.815
277,1436371714749,-7.023,-45.104,-8.815
278,1436371714750,-7.023,-45.104,-8.815
279,1436371714768,-7.023,-45.104,-8.815
280,1436371714804,-7.023,-45.104,-8.815
281,1436371714805,-7.023,-45.104,-8.815
282,1436371714824,-7.023,-45.104,-8.815
283,1436371714844,-7.023,-45.104,-8.815
284,1436371714865,-7.023,-45.104,-8.815
285,1436371714885,-7.023,-45.104,-8.815
286,1436371714906,-7.023,-45.104,-8.815
287,1436371714927,-7.023,-45.104,-8.815
288,1436371714945,-7.023,-45.104,-8.815
289,1436371714964,-7.023,-45.104,-8.815
290,1436371714985,-7.023,-45.104,-8.815
291,1436371715006,-7.023,-45.104,-8.815
292,1436371715026,-7.023,-45.104,-8.815
293,1436371715046,-7.023,-45.104,-8.815
294,1436371715066,-7.023,-45.104,-8.815
295,1436371715085,-7.023,-45.104,-8.815
296,1436371715105,-7.023,-45.104,-8.815
297,1436371715127,-7.023,-45.104,-8.815
298,1436371715173,-7.023,-45.104,-8.815
299,1436371715174,-7.023,-45.104,-8.815
300,1436371715184,-7.023,-45.104,-8.815
301,1436371715252,-7.023,-45.104,-8.815
302,1436371715253,-7.023,-45.104,-8.815
303,1436371715254,-7.023,-45.104,-8.815
304,1436371715264,-7.023,-45.104,-8.815
305,1436371715290,-7.023,-45.104,-8.815
306,1436371715310,-7.023,-45.104,-8.815
307,1436371715329,-7.023,-45.104,-8.815
308,1436371715344,-7.023,-45.104,-8.815
309,1436371715367,-7.023,-45.104,-8.815
310,1436371715386,-7.023,-45.104,-8.815
311,1436371715407,-7.023,-45.104,-8.815
312,1436371715473,-7.023,-45.104,-8.815
313,1436371715474,-7.023,-45.104,-8.815
314,1436371715475,-7.023,-45.104,-8.815
315,1436371715496,-7.023,-45.104,-8.815
316,1436371715507,-7.023,-45.104,-8.815
317,1436371715527,-7.023,-45.104,-8.815
318,1436371715549,-7.023,-45.104,-8.815
319,1436371715565,-7.023,-45.104,-8.815
320,1436371715587,-7.023,-45.104,-8.815
321,1436371715607,-7.023,-45.104,-8.815
322,1436371715630,-7.023,-45.104,-8.815
323,1436371715649,-7.023,-45.104,-8.815
324,1436371715732,-7.023,-45.104,-8.815
325,1436371715733,-7.023,-45.104,-8.815
326,1436371715734,-7.023,-45.104,-8.815
327,1436371715735,-7.023,-45.104,-8.815
328,1436371715747,-7.023,-45.104,-8.815
329,1436371715765,-7.023,-45.104,-8.815
330,1436371715785,-7.023,-45.104,-8.815
331,1436371715807,-7.023,-45.104,-8.815
332,1436371715829,-7.023,-45.104,-8.815
333,1436371715847,-7.023,-45.104,-8.511
334,1436371715868,-7.023,-45.104,-8.511
335,1436371715887,-7.023,-45.104,-8.511
336,1436371715909,-7.023,-45.104,-8.511
337,1436371715927,-7.023,-45.104,-8.511
338,1436371715951,-7.023,-45.104,-8.511
339,1436371715968,-7.023,-45.104,-8.511
340,1436371715990,-7.023,-45.104,-8.511
341,1436371716010,-7.023,-45.104,-8.511
342,1436371716025,-7.023,-45.104,-8.511
343,1436371716046,-7.023,-45.104,-8.511
344,1436371716065,-7.023,-45.104,-8.511
345,1436371716086,-7.023,-45.104,-8.511
346,1436371716106,-7.023,-45.104,-8.511
347,1436371716125,-7.023,-45.104,-8.511
348,1436371716146,-7.023,-45.104,-8.184
349,1436371716171,-7.023,-45.104,-8.184
350,1436371716188,-7.023,-45.104,-8.184
351,1436371716209,-7.023,-45.104,-8.184
352,1436371716262,-7.023,-45.104,-7.847
353,1436371716263,-7.023,-45.104,-7.847
354,1436371716269,-7.333,-45.104,-7.847
355,1436371716285,-7.333,-45.104,-6.988
356,1436371716308,-7.333,-45.104,-6.231
357,1436371716330,-7.638,-45.104,-5.351
358,1436371716345,-7.638,-45.104,-4.804
359,1436371716366,-7.638,-45.104,-4.025
360,1436371716386,-7.98,-45.104,-3.504
361,1436371716407,-7.98,-45.104,-2.565
362,1436371716426,-7.98,-45.104,-2.565
363,1436371716447,-7.98,-45.104,-1.423
364,1436371716472,-8.319,-45.104,-1.423
365,1436371716488,-8.319,-45.104,-0.39
366,1436371716508,-8.319,-45.104,-0.007
367,1436371716527,-8.319,-45.104,-0.007
368,1436371716546,-8.319,-45.104,0.395
369,1436371716568,-8.66,-45.104,1.054
370,1436371716589,-8.66,-45.104,1.054
371,1436371716608,-8.66,-45.104,1.054
372,1436371716629,-8.66,-45.104,1.492
373,1436371716651,-8.66,-45.104,1.992
374,1436371716668,-8.66,-45.104,2.438
375,1436371716689,-8.66,-45.104,2.746
376,1436371716713,-8.66,-45.104,2.746
377,1436371716729,-8.66,-45.104,2.746
378,1436371716750,-8.66,-45.104,3.144
379,1436371716769,-8.66,-45.104,3.686
380,1436371716788,-8.66,-45.104,4.336
381,1436371716806,-8.66,-45.104,4.701
382,1436371716826,-8.66,-45.104,4.701
383,1436371716849,-8.66,-45.104,5.023
384,1436371716870,-8.66,-45.104,5.023
385,1436371716890,-8.66,-45.104,5.023
386,1436371716909,-8.66,-45.104,5.517
387,1436371716932,-8.972,-45.104,5.517
388,1436371717020,-8.972,-45.104,5.128
389,1436371717021,-8.972,-45.104,4.817
390,1436371717022,-8.972,-44.766,4.817
391,1436371717023,-9.367,-44.766,4.817
392,1436371717039,-9.367,-44.766,5.195
393,1436371717046,-10.125,-44.766,5.195
394,1436371717067,-11.164,-44.436,5.63
395,1436371717087,-11.947,-44.436,6.069
396,1436371717110,-12.597,-44.436,6.947
397,1436371717129,-12.94,-43.994,7.83
398,1436371717148,-13.249,-43.994,9.494
399,1436371717172,-13.711,-43.399,12.121
400,1436371717187,-13.711,-42.446,12.881
401,1436371717206,-13.711,-41.993,12.881
402,1436371717229,-13.711,-41.378,13.6
403,1436371717247,-13.711,-41.378,14.643
404,1436371717268,-13.711,-41.038,14.643
405,1436371717288,-13.711,-41.038,14.643
406,1436371717308,-13.711,-40.657,14.953
407,1436371717329,-14.076,-40.336,15.721
408,1436371717350,-14.076,-40.014,16.052
409,1436371717369,-14.076,-40.014,16.052
410,1436371717389,-14.076,-40.014,15.591
411,1436371717408,-14.463,-40.014,15.591
412,1436371717429,-14.463,-40.014,15.069
413,1436371717449,-14.817,-40.014,14.73
414,1436371717470,-14.817,-40.014,14.73
415,1436371717489,-14.817,-40.014,13.909
416,1436371717509,-14.817,-40.014,13.909
417,1436371717531,-14.817,-40.014,14.788
418,1436371717550,-14.817,-40.014,14.788
419,1436371717568,-14.817,-40.014,14.788
420,1436371717589,-14.817,-40.014,14.788
421,1436371717610,-14.505,-40.014,14.788
422,1436371717636,-13.716,-40.014,14.788
423,1436371717652,-13.07,-40.014,14.788
424,1436371717771,-13.07,-40.014,14.788
425,1436371717772,-12.194,-40.338,14.788
426,1436371717773,-11.793,-40.338,14.788
427,1436371717774,-11.273,-40.338,14.788
428,1436371717775,-11.273,-40.338,14.788
429,1436371717776,-10.763,-40.698,14.788
430,1436371717790,-10.426,-40.698,15.182
431,1436371717811,-10.061,-40.698,15.182
432,1436371717827,-10.061,-41.041,15.182
433,1436371717847,-10.061,-41.041,15.182
434,1436371717868,-10.061,-41.041,15.182
435,1436371717888,-10.061,-41.412,15.182
436,1436371717908,-10.499,-41.412,15.182
437,1436371717930,-10.499,-41.412,14.697
438,1436371717948,-10.499,-41.412,14.344
439,1436371717968,-10.499,-41.412,14.344
440,1436371717987,-10.499,-41.752,13.755
441,1436371718010,-10.159,-41.752,13.755
442,1436371718030,-10.159,-41.752,12.561
443,1436371718050,-10.159,-41.752,12.216
444,1436371718070,-10.159,-41.752,11.531
445,1436371718090,-10.159,-42.126,10.937
446,1436371718111,-10.159,-42.126,10.937
447,1436371718132,-10.159,-42.126,9.863
448,1436371718148,-10.159,-42.465,10.455
449,1436371718168,-10.159,-42.465,10.031
450,1436371718189,-10.54,-42.465,9.692
451,1436371718212,-10.54,-42.776,9.692
452,1436371718232,-10.928,-42.776,9.169
453,1436371718260,-10.928,-42.776,9.169
454,1436371718267,-11.523,-42.776,9.169
455,1436371718287,-11.523,-42.776,8.853
456,1436371718307,-11.962,-43.092,8.853
457,1436371718331,-11.962,-43.092,8.853
458,1436371718351,-11.962,-43.092,8.261
459,1436371718373,-11.962,-43.092,8.261
460,1436371718390,-12.294,-43.092,7.933
461,1436371718415,-12.294,-43.092,7.366
462,1436371718473,-12.294,-43.092,6.929
463,1436371718474,-12.294,-43.408,6.373
464,1436371718475,-12.294,-43.408,5.581
465,1436371718489,-12.294,-43.408,4.855
466,1436371718509,-12.294,-43.408,4.855
467,1436371718532,-12.294,-43.408,4.164
468,1436371718547,-12.294,-43.759,3.683
469,1436371718568,-11.444,-43.759,3.036
470,1436371718589,-10.978,-43.759,3.036
471,1436371718609,-10.571,-44.071,2.665
472,1436371718633,-10.24,-44.071,2.07
473,1436371718656,-9.811,-44.071,2.07
474,1436371718670,-9.811,-44.421,2.07
475,1436371718691,-9.811,-44.421,2.07
476,1436371718709,-9.811,-44.421,2.07
477,1436371718730,-9.811,-44.743,2.07
478,1436371718751,-9.811,-44.743,2.07
479,1436371718771,-9.811,-44.743,2.369
480,1436371718791,-9.811,-44.743,2.369
481,1436371718811,-9.457,-45.075,2.369
482,1436371718832,-9.457,-45.075,2.369
483,1436371718851,-9.109,-45.075,2.369
484,1436371718869,-9.109,-45.075,2.369
485,1436371718888,-9.109,-45.075,2.369
486,1436371718911,-8.714,-45.075,2.923
487,1436371718931,-8.714,-45.075,3.594
488,1436371718954,-8.714,-45.075,3.594
489,1436371718975,-8.714,-45.075,3.594
490,1436371718994,-8.714,-45.075,3.594
491,1436371719012,-8.395,-45.075,3.594
492,1436371719030,-8.395,-45.075,4.037
493,1436371719049,-8.395,-45.075,4.037
494,1436371719071,-8.395,-45.075,4.037
495,1436371719093,-8.395,-45.075,4.037
496,1436371719110,-8.395,-45.075,4.037
497,1436371719134,-8.395,-45.075,4.037
498,1436371719150,-8.395,-45.075,4.359
499,1436371719169,-8.395,-45.075,4.359
500,1436371719240,-8.395,-45.075,4.359
501,1436371719241,-8.395,-45.075,4.359
502,1436371719242,-8.395,-45.075,4.359
503,1436371719250,-8.395,-45.075,4.359
504,1436371719269,-8.395,-45.075,3.771
