id,attr_time,attr_x,attr_y,attr_z
1,1436371709207,1.937,-42.23,-13.397
2,1436371709236,1.937,-42.23,-13.397
3,1436371709246,1.937,-42.23,-13.397
4,1436371709263,1.937,-42.23,-13.397
5,1436371709283,1.937,-42.23,-13.397
6,1436371709305,1.937,-42.23,-13.397
7,1436371709325,1.937,-42.23,-13.397
8,1436371709344,1.937,-42.23,-13.397
9,1436371709364,1.937,-42.23,-13.397
10,1436371709383,1.937,-42.23,-13.397
11,1436371709404,1.937,-42.23,-13.397
12,1436371709425,1.937,-42.23,-13.397
13,1436371709445,1.937,-42.23,-13.397
14,1436371709465,1.937,-42.23,-13.397
15,1436371709486,1.937,-42.23,-13.397
16,1436371709508,1.937,-42.23,-13.397
17,1436371709527,1.937,-42.23,-13.397
18,1436371709546,1.937,-42.23,-13.397
19,1436371709566,1.937,-42.23,-13.397
20,1436371709587,1.937,-42.23,-13.397
21,1436371709605,1.937,-42.23,-13.397
22,1436371709631,1.937,-42.23,-13.397
23,1436371709687,1.937,-42.23,-13.397
24,1436371709688,1.937,-42.23,-13.397
25,1436371709689,1.937,-42.23,-13.397
26,1436371709703,1.937,-42.23,-13.397
27,1436371709723,1.937,-42.23,-13.397
28,1436371709749,1.937,-42.23,-13.397
29,1436371709765,1.937,-42.23,-13.397
30,1436371709785,1.937,-42.23,-13.397
31,1436371709805,1.937,-42.23,-13.397
32,1436371709824,1.937,-42.23,-13.397
33,1436371709845,1.937,-42.23,-13.397
34,1436371709864,1.937,-42.23,-13.397
35,1436371709886,1.937,-42.23,-13.397
36,1436371709904,1.937,-42.23,-13.397
37,1436371709927,1.937,-42.23,-13.397
38,1436371709947,1.937,-42.23,-13.397
39,1436371709967,1.937,-42.23,-13.397
40,1436371709986,1.937,-42.23,-13.397
41,1436371710007,1.937,-42.23,-13.397
42,1436371710027,1.937,-42.23,-13.397
43,1436371710047,1.937,-42.23,-13.397
44,1436371710067,1.937,-42.23,-13.397
45,1436371710087,1.937,-42.23,-13.397
46,1436371710104,1.937,-42.23,-13.397
47,1436371710127,1.937,-42.23,-13.397
48,1436371710147,1.937,-42.23,-13.397
49,1436371710167,1.937,-42.23,-13.397
50,1436371710187,1.937,-42.23,-13.397
51,1436371710206,1.937,-42.23,-13.397
52,1436371710226,1.937,-42.23,-13.397
53,1436371710247,1.937,-42.23,-13.397
54,1436371710265,1.937,-42.23,-13.397
55,1436371710287,1.937,-42.23,-13.397
56,1436371710307,1.937,-42.23,-13.397
57,1436371710328,1.937,-42.23,-13.397
58,1436371710347,1.937,-42.23,-13.397
59,1436371710371,1.937,-42.23,-13.397
60,1436371710439,1.937,-42.23,-13.397
61,1436371710440,1.937,-42.23,-13.397
62,1436371710441,1.937,-42.23,-13.397
63,1436371710445,1.937,-42.23,-13.397
64,1436371710465,1.937,-42.23,-13.397
65,1436371710485,1.937,-42.23,-13.397
66,1436371710504,1.937,-42.23,-13.397
67,1436371710537,1.937,-42.23,-13.397
68,1436371710544,1.937,-42.23,-13.397
69,1436371710565,1.937,-42.23,-13.397
70,1436371710585,1.937,-42.23,-13.397
71,1436371710605,1.937,-42.23,-13.397
72,1436371710626,1.937,-42.23,-13.397
73,1436371710647,1.937,-42.23,-13.397
74,1436371710667,1.937,-42.23,-13.397
75,1436371710687,1.937,-42.23,-13.397
76,1436371710707,1.937,-42.23,-13.397
77,1436371710727,1.937,-42.23,-13.397
78,1436371710747,1.937,-42.23,-13.397
79,1436371710767,1.937,-42.23,-13.397
80,1436371710787,1.937,-42.23,-13.397
81,1436371710807,1.937,-42.23,-13.397
82,1436371710826,1.937,-42.23,-13.397
83,1436371710848,1.937,-42.23,-13.397
84,1436371710868,1.937,-42.23,-13.397
85,1436371710888,1.937,-42.23,-13.397
86,1436371710907,1.937,-42.23,-13.397
87,1436371710927,1.937,-42.23,-13.397
88,1436371710947,1.937,-42.23,-13.397
89,1436371710967,1.937,-42.23,-13.397
90,1436371710987,1.937,-42.23,-13.397
91,1436371711008,1.937,-42.23,-13.397
92,1436371711028,1.937,-42.23,-13.397
93,1436371711047,1.937,-42.23,-13.397
94,1436371711066,1.937,-42.23,-13.397
95,1436371711093,1.937,-42.23,-13.397
96,1436371711150,1.937,-42.23,-13.397
97,1436371711151,1.937,-42.23,-13.397
98,1436371711152,1.937,-42.23,-13.397
99,1436371711165,1.937,-42.23,-13.397
100,1436371711185,1.937,-42.23,-13.397
101,1436371711208,1.937,-42.23,-13.397
102,1436371711225,1.937,-42.23,-13.397
103,1436371711245,1.937,-42.23,-13.397
104,1436371711266,1.937,-42.23,-13.397
105,1436371711286,1.937,-42.23,-13.397
106,1436371711307,1.937,-42.23,-13.397
107,1436371711326,1.937,-42.23,-13.397
108,1436371711347,1.937,-42.23,-13.397
109,1436371711366,1.937,-42.23,-13.397
110,1436371711388,1.937,-42.23,-13.397
111,1436371711408,1.937,-42.23,-13.397
112,1436371711428,1.937,-42.23,-13.397
113,1436371711448,1.937,-42.23,-13.397
114,1436371711468,1.937,-42.23,-13.397
115,1436371711488,1.937,-42.23,-13.397
116,1436371711508,1.937,-42.23,-13.397
117,1436371711528,1.937,-42.23,-13.397
118,1436371711546,1.937,-42.23,-13.397
119,1436371711566,1.937,-42.23,-13.397
120,1436371711588,1.937,-42.23,-13.397
121,1436371711608,1.937,-42.23,-13.397
122,1436371711628,1.937,-42.23,-13.397
123,1436371711645,1.937,-42.23,-13.397
124,1436371711668,1.937,-42.23,-13.397
125,1436371711689,2.239,-42.23,-13.397
126,1436371711709,2.239,-42.23,-13.397
127,1436371711728,2.239,-42.23,-13.397
128,1436371711747,2.239,-42.23,-13.397
129,1436371711766,2.239,-42.23,-13.397
130,1436371711786,2.239,-42.23,-13.397
131,1436371711806,2.239,-42.23,-13.397
132,1436371711826,2.239,-42.23,-13.397
133,1436371711872,2.239,-42.23,-13.397
134,1436371711873,2.239,-42.23,-13.397
135,1436371711886,2.239,-42.23,-13.397
136,1436371711905,2.239,-42.23,-13.397
137,1436371711929,2.239,-42.23,-13.397
138,1436371711946,2.239,-42.23,-13.397
139,1436371711965,2.239,-42.23,-13.397
140,1436371711985,2.239,-42.23,-13.397
141,1436371712007,2.239,-42.23,-13.397
142,1436371712029,2.239,-42.23,-13.397
143,1436371712047,2.239,-42.23,-13.397
144,1436371712069,2.239,-42.23,-13.397
145,1436371712086,2.239,-42.23,-13.397
146,1436371712107,2.239,-42.23,-13.397
147,1436371712129,2.239,-42.23,-13.397
148,1436371712149,2.239,-42.23,-13.397
149,1436371712169,2.239,-42.23,-13.397
150,1436371712189,2.239,-42.23,-13.397
151,1436371712208,2.239,-42.23,-13.397
152,1436371712226,2.239,-42.23,-13.397
153,1436371712249,2.239,-42.23,-13.397
154,1436371712266,2.239,-42.23,-13.397
155,1436371712287,2.239,-42.23,-13.397
156,1436371712309,2.239,-42.23,-13.397
157,1436371712326,2.239,-42.23,-13.397
158,1436371712346,2.239,-42.23,-13.397
159,1436371712367,2.239,-42.23,-13.397
160,1436371712391,2.239,-42.23,-13.397
161,1436371712409,2.239,-42.23,-13.397
162,1436371712431,2.239,-42.23,-13.397
163,1436371712449,2.239,-42.23,-13.397
164,1436371712466,2.239,-42.23,-13.397
165,1436371712486,2.239,-42.23,-13.397
166,1436371712506,2.239,-42.23,-13.397
167,1436371712528,2.239,-42.23,-13.397
168,1436371712546,2.239,-42.23,-13.397
169,1436371712599,2.239,-42.23,-13.397
170,1436371712600,2.239,-42.23,-13.397
171,1436371712614,2.239,-42.23,-13.397
172,1436371712626,2.239,-42.23,-13.397
173,1436371712649,2.239,-42.23,-13.397
174,1436371712666,2.239,-42.23,-13.397
175,1436371712696,2.239,-42.23,-13.397
176,1436371712706,2.239,-42.23,-13.397
177,1436371712727,2.239,-42.23,-13.397
178,1436371712748,2.239,-42.23,-13.397
179,1436371712767,2.239,-42.23,-13.397
180,1436371712789,2.239,-42.23,-13.397
181,1436371712806,2.239,-42.23,-13.397
182,1436371712827,2.239,-42.23,-13.397
183,1436371712846,2.239,-42.23,-13.397
184,1436371712866,2.239,-42.23,-13.397
185,1436371712887,2.239,-42.23,-13.397
186,1436371712907,2.239,-42.23,-13.397
187,1436371712937,2.239,-42.23,-13.397
188,1436371712962,2.239,-42.23,-13.397
189,1436371712976,2.239,-42.23,-13.397
190,1436371712987,2.239,-42.23,-13.397
191,1436371713006,2.239,-42.23,-13.397
192,1436371713029,1.916,-42.23,-13.397
193,1436371713049,1.916,-42.23,-13.397
194,1436371713069,1.916,-42.23,-13.397
195,1436371713086,1.916,-42.23,-13.397
196,1436371713106,1.544,-42.23,-13.397
197,1436371713126,1.544,-42.23,-13.397
198,1436371713146,1.544,-42.23,-13.397
199,1436371713169,1.126,-42.23,-13.79
200,1436371713189,1.126,-42.23,-13.79
201,1436371713210,0.784,-42.23,-13.79
202,1436371713227,0.784,-42.23,-14.173
203,1436371713247,0.447,-42.23,-14.173
204,1436371713285,0.447,-42.23,-14.173
205,1436371713301,0.1,-41.92,-14.562
206,1436371713313,0.1,-41.92,-14.562
207,1436371713327,0.1,-41.92,-14.562
208,1436371713347,-0.305,-41.92,-14.929
209,1436371713367,-0.305,-41.92,-14.929
210,1436371713387,-0.305,-41.92,-14.929
211,1436371713407,-0.305,-41.92,-14.929
212,1436371713427,-0.631,-41.92,-14.929
213,1436371713447,-0.631,-41.92,-15.232
214,1436371713467,-0.631,-41.92,-15.232
215,1436371713493,-0.631,-41.92,-15.232
216,1436371713507,-0.631,-41.92,-15.232
217,1436371713527,-0.631,-41.92,-15.232
218,1436371713547,-0.631,-41.92,-15.232
219,1436371713567,-0.631,-41.92,-15.232
220,1436371713587,-0.631,-41.92,-14.904
221,1436371713610,-0.631,-41.92,-14.904
222,1436371713629,-0.277,-41.92,-14.904
223,1436371713649,-0.277,-41.92,-14.904
224,1436371713669,-0.277,-41.92,-14.564
225,1436371713689,0.132,-41.92,-14.564
226,1436371713709,0.132,-41.92,-14.564
227,1436371713726,0.465,-41.92,-14.564
228,1436371713747,0.465,-41.92,-14.216
229,1436371713767,0.814,-41.92,-14.216
230,1436371713790,0.814,-41.92,-14.216
231,1436371713810,1.15,-41.92,-13.914
232,1436371713829,1.15,-41.92,-13.914
233,1436371713849,1.486,-41.92,-13.914
234,1436371713869,1.486,-41.92,-13.914
235,1436371713889,1.867,-41.92,-13.598
236,1436371713921,1.867,-41.92,-13.598
237,1436371713934,1.867,-41.92,-13.598
238,1436371713949,2.281,-41.92,-13.598
239,1436371713969,2.281,-41.92,-13.598
240,1436371713988,2.281,-41.92,-13.598
241,1436371714016,2.68,-41.92,-13.598
242,1436371714031,2.68,-41.92,-13.287
243,1436371714049,2.68,-41.92,-13.287
244,1436371714067,2.68,-41.92,-13.287
245,1436371714088,2.993,-41.92,-13.287
246,1436371714109,2.993,-41.92,-13.287
247,1436371714129,2.993,-41.92,-12.953
248,1436371714148,2.993,-41.92,-12.953
249,1436371714171,2.993,-41.92,-12.953
250,1436371714191,2.993,-41.92,-12.953
251,1436371714208,2.993,-41.92,-12.953
252,1436371714231,2.993,-41.92,-12.953
253,1436371714251,2.993,-41.92,-12.631
254,1436371714268,2.993,-41.92,-12.631
255,1436371714290,2.993,-42.231,-12.631
256,1436371714311,2.993,-42.231,-12.631
257,1436371714330,2.993,-42.231,-12.631
258,1436371714351,2.993,-42.231,-12.631
259,1436371714368,2.993,-42.231,-12.631
260,1436371714390,2.993,-42.231,-12.297
261,1436371714408,2.993,-42.231,-12.297
262,1436371714428,2.993,-42.231,-12.297
263,1436371714447,2.993,-42.231,-12.297
264,1436371714473,2.993,-42.231,-12.297
265,1436371714489,2.993,-42.231,-12.297
266,1436371714514,2.993,-42.231,-12.297
267,1436371714528,2.993,-42.231,-12.297
268,1436371714548,2.993,-42.231,-12.297
269,1436371714568,2.993,-42.231,-12.297
270,1436371714588,2.993,-42.231,-12.297
271,1436371714610,2.993,-42.231,-12.297
272,1436371714630,2.993,-42.231,-12.297
273,1436371714682,2.993,-42.231,-12.297
274,1436371714683,2.993,-42.231,-12.297
275,1436371714702,2.993,-42.231,-12.297
276,1436371714708,2.993,-42.231,-12.297
277,1436371714728,2.993,-42.231,-12.297
278,1436371714750,2.993,-42.231,-12.297
279,1436371714769,2.993,-42.231,-12.297
280,1436371714828,2.993,-42.231,-12.297
281,1436371714829,2.993,-42.231,-12.297
282,1436371714830,2.993,-42.231,-12.297
283,1436371714860,2.993,-42.231,-12.617
284,1436371714873,2.993,-42.231,-12.617
285,1436371714888,2.993,-42.231,-12.617
286,1436371714911,2.993,-42.231,-12.617
287,1436371714932,2.993,-42.231,-12.617
288,1436371714951,2.993,-42.231,-12.617
289,1436371714972,2.993,-42.231,-12.617
290,1436371714989,2.993,-42.231,-12.617
291,1436371715009,2.993,-42.231,-12.617
292,1436371715032,2.993,-42.231,-12.617
293,1436371715052,2.993,-42.231,-12.617
294,1436371715069,2.993,-42.231,-12.617
295,1436371715092,2.664,-42.231,-12.617
296,1436371715123,2.664,-42.231,-12.617
297,1436371715128,2.664,-42.231,-12.617
298,1436371715156,2.664,-42.231,-12.295
299,1436371715176,2.664,-42.231,-12.295
300,1436371715188,2.664,-42.231,-12.295
301,1436371715208,2.664,-42.231,-12.295
302,1436371715228,2.664,-42.231,-12.295
303,1436371715252,2.664,-42.231,-12.295
304,1436371715271,2.664,-42.231,-12.295
305,1436371715290,2.664,-42.231,-12.295
306,1436371715309,2.664,-42.231,-12.295
307,1436371715337,2.664,-42.231,-12.295
308,1436371715351,2.664,-42.231,-12.295
309,1436371715399,2.664,-42.231,-12.295
310,1436371715400,2.664,-42.231,-12.295
311,1436371715412,2.664,-42.231,-12.295
312,1436371715430,2.664,-42.231,-12.295
313,1436371715449,2.664,-42.231,-12.295
314,1436371715469,2.664,-42.231,-12.295
315,1436371715512,2.664,-42.231,-12.295
316,1436371715513,2.664,-42.231,-12.649
317,1436371715532,2.664,-42.231,-12.649
318,1436371715550,2.664,-42.231,-12.649
319,1436371715572,2.664,-42.231,-12.649
320,1436371715592,2.664,-42.231,-12.649
321,1436371715612,2.664,-42.231,-12.649
322,1436371715629,2.664,-42.231,-12.649
323,1436371715652,2.664,-42.231,-12.649
324,1436371715672,2.664,-42.231,-12.649
325,1436371715692,2.664,-42.231,-12.649
326,1436371715709,2.664,-42.231,-12.649
327,1436371715732,2.664,-42.231,-12.649
328,1436371715752,2.664,-42.231,-12.649
329,1436371715770,2.664,-42.231,-12.963
330,1436371715792,2.664,-42.231,-12.963
331,1436371715812,2.664,-42.231,-12.963
332,1436371715832,2.664,-42.231,-12.963
333,1436371715850,2.664,-42.231,-12.963
334,1436371715899,2.664,-42.231,-12.963
335,1436371715900,2.664,-42.231,-12.963
336,1436371715914,2.664,-42.231,-12.963
337,1436371715935,2.664,-42.231,-12.963
338,1436371715952,2.664,-42.231,-12.963
339,1436371715972,2.664,-42.231,-12.963
340,1436371715990,2.664,-42.231,-12.963
341,1436371716011,2.664,-42.231,-12.963
342,1436371716033,2.664,-42.231,-12.963
343,1436371716052,2.664,-42.231,-12.963
344,1436371716110,2.664,-42.231,-12.963
345,1436371716111,2.664,-42.231,-12.963
346,1436371716112,2.664,-42.231,-12.963
347,1436371716129,2.664,-42.231,-12.963
348,1436371716150,2.664,-42.231,-12.963
349,1436371716169,2.664,-42.231,-12.963
350,1436371716189,2.664,-42.231,-12.963
351,1436371716216,2.664,-42.231,-12.963
352,1436371716231,2.664,-42.231,-12.963
353,1436371716252,2.664,-42.231,-12.963
354,1436371716270,2.664,-42.231,-12.963
355,1436371716291,2.664,-42.231,-12.963
356,1436371716315,2.664,-42.231,-12.963
357,1436371716332,2.664,-42.231,-12.963
358,1436371716353,2.664,-42.231,-12.963
359,1436371716373,2.664,-42.231,-12.963
360,1436371716393,2.664,-42.231,-12.634
361,1436371716413,2.664,-42.231,-12.634
362,1436371716433,2.664,-42.231,-12.634
363,1436371716453,2.664,-42.231,-12.634
364,1436371716473,2.664,-42.231,-12.634
365,1436371716493,2.664,-42.231,-12.634
366,1436371716510,2.664,-42.231,-12.634
367,1436371716530,2.664,-42.231,-12.634
368,1436371716550,2.664,-42.231,-12.307
369,1436371716570,2.664,-42.231,-12.307
370,1436371716590,2.664,-42.231,-12.307
371,1436371716613,2.664,-42.231,-12.307
372,1436371716634,2.664,-42.231,-12.307
373,1436371716653,2.664,-42.231,-12.307
374,1436371716672,2.664,-42.231,-12.307
375,1436371716693,2.664,-42.231,-12.307
376,1436371716713,2.664,-42.231,-12.307
377,1436371716732,2.664,-42.231,-12.307
378,1436371716752,2.664,-42.231,-12.307
379,1436371716772,2.664,-42.231,-12.307
380,1436371716839,2.664,-42.231,-12.307
381,1436371716840,2.664,-42.231,-12.307
382,1436371716841,2.664,-42.231,-12.307
383,1436371716850,2.664,-42.231,-12.307
384,1436371716872,2.664,-42.231,-12.307
385,1436371716890,2.664,-42.231,-12.307
386,1436371716910,2.664,-42.231,-12.307
387,1436371716952,2.664,-42.231,-12.307
388,1436371716953,2.664,-42.231,-12.307
389,1436371716971,2.664,-42.231,-12.307
390,1436371716992,2.664,-42.231,-12.307
391,1436371717012,2.664,-42.231,-12.307
392,1436371717030,2.664,-42.231,-12.307
393,1436371717053,2.664,-42.231,-12.307
394,1436371717073,2.664,-42.231,-12.307
395,1436371717093,2.664,-42.231,-12.307
396,1436371717114,2.664,-42.231,-12.307
397,1436371717133,2.664,-42.231,-12.307
398,1436371717153,2.664,-42.231,-12.307
399,1436371717174,2.664,-42.231,-12.307
400,1436371717194,2.664,-42.231,-12.307
401,1436371717213,2.664,-42.231,-12.307
402,1436371717232,2.664,-42.231,-12.307
403,1436371717254,2.664,-42.231,-12.307
404,1436371717273,2.664,-42.231,-12.307
405,1436371717293,2.664,-42.231,-12.615
406,1436371717314,2.664,-42.231,-12.615
407,1436371717333,2.664,-42.231,-12.615
408,1436371717354,2.664,-42.231,-12.615
409,1436371717374,2.664,-42.231,-12.615
410,1436371717394,2.664,-42.231,-12.615
411,1436371717414,2.664,-42.231,-12.615
412,1436371717434,2.664,-42.231,-12.615
413,1436371717454,2.664,-42.231,-12.615
414,1436371717473,2.664,-42.231,-12.615
415,1436371717498,2.664,-42.231,-12.615
416,1436371717556,2.664,-42.231,-12.615
417,1436371717557,2.664,-42.231,-12.615
418,1436371717558,2.664,-42.231,-12.615
419,1436371717572,2.664,-42.231,-12.615
420,1436371717591,2.664,-42.231,-12.615
421,1436371717618,2.664,-42.231,-12.615
422,1436371717632,2.664,-42.231,-12.615
423,1436371717651,2.664,-42.231,-12.615
424,1436371717673,2.664,-42.231,-12.615
425,1436371717695,2.345,-42.231,-12.615
426,1436371717712,2.345,-42.231,-12.615
427,1436371717733,2.345,-42.231,-12.615
428,1436371717752,1.995,-42.231,-12.615
429,1436371717772,1.995,-42.231,-12.615
430,1436371717795,1.995,-42.231,-12.615
431,1436371717811,1.635,-42.231,-12.919
432,1436371717831,1.635,-42.231,-12.919
433,1436371717851,1.635,-42.231,-12.919
434,1436371717872,1.287,-42.231,-12.919
435,1436371717902,1.287,-42.231,-12.919
436,1436371717911,1.287,-42.231,-12.919
437,1436371717931,1.287,-42.231,-12.919
438,1436371717951,0.978,-42.231,-12.919
439,1436371717972,0.978,-42.231,-12.919
440,1436371717993,0.978,-42.231,-12.533
441,1436371718014,0.978,-42.231,-12.533
442,1436371718031,0.978,-42.231,-12.533
443,1436371718051,0.978,-42.231,-12.045
444,1436371718072,0.978,-42.231,-12.045
445,1436371718091,0.978,-42.57,-11.511
446,1436371718112,0.978,-42.57,-11.511
447,1436371718133,0.978,-42.57,-11.16
448,1436371718154,0.978,-42.57,-11.16
449,1436371718172,0.978,-42.57,-11.16
450,1436371718192,0.978,-42.57,-11.16
451,1436371718213,0.978,-42.57,-10.821
452,1436371718233,0.978,-42.57,-10.821
453,1436371718255,0.978,-42.57,-10.821
454,1436371718306,0.978,-42.895,-10.821
455,1436371718307,0.978,-42.895,-10.821
456,1436371718322,0.978,-42.895,-10.821
457,1436371718333,0.978,-42.895,-10.821
458,1436371718352,0.978,-42.895,-10.821
459,1436371718372,0.978,-42.895,-10.821
460,1436371718392,0.978,-42.895,-10.821
461,1436371718414,0.978,-42.895,-10.821
462,1436371718432,0.57,-42.895,-10.821
463,1436371718452,0.213,-42.895,-11.245
464,1436371718473,-0.718,-42.895,-11.245
465,1436371718495,-1.402,-42.895,-12.039
466,1436371718512,-2.165,-42.552,-12.548
467,1436371718533,-3.016,-42.552,-13.11
468,1436371718555,-3.833,-42.552,-13.11
469,1436371718576,-5.07,-42.552,-13.11
470,1436371718595,-6.355,-42.222,-13.11
471,1436371718615,-7.481,-42.222,-13.577
472,1436371718636,-7.948,-42.222,-14.372
473,1436371718670,-8.546,-41.831,-15.402
474,1436371718672,-8.546,-41.831,-16.426
475,1436371718725,-8.546,-41.207,-17.95
476,1436371718726,-9.245,-39.906,-19.821
477,1436371718736,-10.829,-38.027,-22.019
478,1436371718752,-14.578,-35.249,-23.175
479,1436371718772,-20.349,-32.04,-22.848
480,1436371718793,-23.028,-28.54,-24.656
481,1436371718812,-23.756,-24.247,-27.413
482,1436371718832,-25.288,-20.367,-28.585
483,1436371718853,-23.954,-18.252,-31.05
484,1436371718874,-23.498,-17.623,-31.976
485,1436371718894,-22.813,-19.68,-31.048
486,1436371718976,-22.297,-24.324,-28.633
487,1436371718977,-21.664,-29.083,-25.238
488,1436371718978,-19.833,-33.314,-21.151
489,1436371718979,-17.713,-37.234,-17.395
490,1436371718994,-15.269,-39.99,-13.609
491,1436371719012,-12.722,-41.659,-11.221
492,1436371719033,-17.98,-40.411,-7.641
493,1436371719088,-11.169,-41.49,-11.883
494,1436371719089,-10.064,-40.51,-15.802
495,1436371719103,-12.547,-40.037,-15.802
496,1436371719112,-15.852,-39.43,-15.129
497,1436371719132,-15.852,-38.941,-15.129
498,1436371719153,-15.852,-38.639,-16.397
499,1436371719173,-15.852,-38.182,-16.397
500,1436371719206,-16.572,-37.809,-17.486
501,1436371719212,-16.572,-37.809,-17.486
502,1436371719232,-16.572,-37.809,-17.486
503,1436371719252,-16.572,-37.809,-18.037
504,1436371719273,-15.943,-37.809,-18.037
505,1436371719293,-15.232,-37.809,-18.037
506,1436371719316,-14.799,-38.301,-18.037
507,1436371719336,-14.03,-38.644,-18.037
