id,attr_time,attr_db
1,1436167051706,17.7359372140866
2,1436167052447,15.6018100037503
3,1436167053182,15.1576104387743
4,1436167053894,15.6858228675862
5,1436167054625,13.5999685272027
6,1436167055325,13.7185795900838
7,1436167056078,16.2023180007227
8,1436167056913,17.8934929319525
9,1436167057675,47.9054289996374
10,1436167058376,60.0090186151538
11,1436167059108,68.417078913913
12,1436167059855,59.8267745524545
13,1436167060587,72.1076760118533
14,1436167061330,64.9857040721944
15,1436167062033,58.5053918909947
16,1436167063661,67.9372545647185
17,1436167064349,62.5801606331935
18,1436167065110,64.6783654128046
19,1436167065860,68.664784685646
20,1436167066600,66.8428401110019
21,1436167067343,65.6241232913486
22,1436167068088,68.2974453890818
23,1436167069609,61.08784004683
24,1436167070295,70.8789854493304
25,1436167071109,68.118680806852
26,1436167071825,60.31403551244
27,1436167072560,65.2327346219445
28,1436167073280,62.4905912081298
29,1436167074004,59.6697487725787
30,1436167074640,62.0963088206699
31,1436167076689,70.4751163305566
32,1436167077373,71.1115659535195
33,1436167078127,56.5030590288647
34,1436167078846,61.9102990299216
35,1436167079552,71.0041737430194
36,1436167080198,53.7307804694433
37,1436167081560,69.1437700112138
38,1436167082232,57.2392671733256
39,1436167082956,67.6807063461239
40,1436167083709,66.7176180993276
41,1436167084391,58.6826512472445
42,1436167085133,69.0849198530256
43,1436167085833,61.6570613686828
44,1436167086478,55.1702870457806
45,1436167087179,61.7407716998213
46,1436167087901,59.6771355891551
47,1436167088575,63.0442694110837
48,1436167089301,64.7595495022849
49,1436167090011,63.4570435197325
50,1436167090736,63.558991676026
51,1436167091463,64.1717393731157
52,1436167092197,62.2090423242254
53,1436167092978,63.4919702246746
54,1436167093700,67.3977368470862
55,1436167094424,74.2672579117283
56,1436167095133,59.0683540917643
57,1436167095857,71.7757277534234
58,1436167096575,71.2526529650658
59,1436167097316,61.6814111391875
60,1436167098046,70.6236771577944
61,1436167098764,62.6778240782057
62,1436167099494,63.2419796436207
63,1436167100219,63.0697091845752
64,1436167100971,67.176623106249
65,1436167101614,64.5138296367935
66,1436167102346,60.7752315522959
67,1436167103089,64.8560241611848
68,1436167103836,60.5223211952617
69,1436167104531,64.6788474797513
70,1436167105225,61.828719192942
71,1436167105971,59.0834830206121
72,1436167106689,67.338817521715
73,1436167107404,66.2765470284041
74,1436167108085,63.5632538102193
75,1436167108828,63.1164537234241
76,1436167109575,63.7017090926688
77,1436167110318,64.5602607795312
78,1436167111154,61.4135833371517
79,1436167111885,65.4167958894217
80,1436167112628,66.9952579969574
81,1436167113369,63.9575278817605
82,1436167114100,65.7834031204877
83,1436167114817,67.473271620785
84,1436167115461,62.0193222743939
85,1436167116145,58.9900202662438
86,1436167116970,59.552139732865
87,1436167117689,62.2905363073294
88,1436167118399,64.7332079855635
89,1436167119008,66.6603241617947
90,1436167119676,67.7264493554229
91,1436167120397,72.1526437118667
92,1436167121147,65.6093221338999
93,1436167121833,66.5600664216315
94,1436167122534,66.3609846247775
95,1436167123278,61.0633569113767
96,1436167123999,69.0998641468935
97,1436167124761,60.1526853852903
98,1436167125456,64.205722144295
99,1436167126125,61.5105848773927
100,1436167126838,64.8217217519004
101,1436167127582,65.0740446743453
102,1436167128294,63.6460232565234
103,1436167129072,61.9526899598968
104,1436167129750,71.2916026279271
105,1436167130484,68.4753796975124
106,1436167131207,66.7421009040577
107,1436167131940,70.2122892419011
108,1436167132687,64.9693733624997
109,1436167133406,66.8147095607914
110,1436167134146,58.6714098436141
111,1436167134876,63.7239156984786
112,1436167135566,65.0244426641062
113,1436167136232,67.6385054321609
114,1436167136947,65.6071936224721
115,1436167137698,63.0420490563332
116,1436167138444,67.5682471204283
117,1436167139160,63.0367743137812
118,1436167139887,59.0003528916481
119,1436167140589,70.3019327055279
120,1436167141455,66.7734678010907
121,1436167142076,63.0179730376256
122,1436167142755,63.032042539355
123,1436167143449,68.1116981848867
124,1436167144128,60.7849249899429
125,1436167144885,61.333389368467
126,1436167145593,71.8628653162082
127,1436167146289,60.3800088365862
128,1436167147059,68.7408376918907
129,1436167147756,65.6200389342111
130,1436167148370,59.9229733048341
131,1436167149016,68.5057120008042
132,1436167149688,62.0756955841161
133,1436167150364,64.4956946861156
134,1436167151010,70.7962028721086
135,1436167151778,52.1348072733138
136,1436167152503,63.3830441507863
137,1436167153247,62.6101574454368
138,1436167154000,62.6522481197698
139,1436167154731,64.1242647774677
140,1436167155462,67.7832995245779
141,1436167156174,62.397347380942
142,1436167156971,57.1143336752921
143,1436167157689,71.5175887401272
144,1436167158438,72.1501093189028
145,1436167159153,61.4402559107641
146,1436167159844,70.3379398137987
147,1436167160515,71.0231516253786
148,1436167161241,57.5322288549745
149,1436167161985,68.903583974378
150,1436167162718,67.9305070965788
151,1436167163441,61.7890725735978
152,1436167164166,64.3145279720814
153,1436167164896,63.8993170595855
154,1436167165649,58.448475358965
155,1436167166390,59.9868288495606
156,1436167167054,57.5322401723919
157,1436167167764,63.6728011012738
158,1436167168518,62.6285086664097
159,1436167169251,70.4578683423374
160,1436167169982,65.7857576042877
161,1436167170725,59.8593123676521
162,1436167171490,70.8929064288849
163,1436167172241,67.2975143334682
164,1436167172945,66.6071406349076
165,1436167173599,67.0991223351924
166,1436167174316,71.283676810373
167,1436167175036,57.2323146189121
168,1436167175732,72.0656137069457
169,1436167176451,75.107945681776
170,1436167177193,63.4464089024666
171,1436167177919,66.394710031134
172,1436167178654,65.4112468296912
173,1436167179361,56.0394514966471
174,1436167180023,65.2221695643144
175,1436167180701,66.6562312027858
176,1436167181512,59.2262005120647
177,1436167182263,62.1809178438565
178,1436167182977,70.0528509320299
179,1436167183705,65.2217442911547
180,1436167184436,58.0780175632149
181,1436167185167,71.2804697697915
182,1436167185885,70.7747272631042
183,1436167186557,58.2535529621376
184,1436167187177,63.2086741237558
185,1436167187850,64.7282498821613
186,1436167188582,64.7932599271218
187,1436167189334,67.7667512760915
188,1436167190072,60.7117169901495
189,1436167190804,62.0544716623535
190,1436167191598,69.9168495649464
191,1436167192315,67.230973277889
192,1436167192963,61.8093953399992
193,1436167193679,70.8281021639957
194,1436167194399,74.4329964267378
195,1436167195119,63.5752461199415
196,1436167195849,68.1651233017211
197,1436167196687,61.9144609765187
198,1436167197393,60.0955428756472
199,1436167198143,67.4554287486758
200,1436167198894,68.9733636877127
201,1436167199604,64.8547323850161
202,1436167200337,64.7160484260587
203,1436167201075,68.2940203545542
204,1436167201831,69.9725489685543
205,1436167202519,58.0024693344295
206,1436167203171,71.7763969775805
207,1436167203901,69.1440335813818
208,1436167204642,61.5572833552772
209,1436167205378,69.3277890700417
210,1436167206166,67.0940729539093
211,1436167206883,63.2803542099649
212,1436167207541,70.8374719157975
213,1436167208268,69.6083053391119
214,1436167209030,65.909216187535
215,1436167209771,63.4267123437201
216,1436167210489,68.2421021314982
217,1436167211213,64.3064005802656
218,1436167211945,62.8806462354224
219,1436167212694,71.1782598364413
220,1436167213381,66.7251439125117
221,1436167214033,59.2002303309247
222,1436167214772,71.4580533272289
223,1436167215505,65.4827804792504
224,1436167216241,61.7250821641658
225,1436167216958,71.2880297146752
226,1436167217656,67.8685760407529
227,1436167218381,62.9417535614897
228,1436167219160,69.5528006526589
229,1436167219897,72.2271035064017
230,1436167220620,66.3005621455008
231,1436167221353,72.8101343220376
232,1436167222123,73.4386394781849
233,1436167222767,68.0983708193263
234,1436167223491,71.5070802845864
235,1436167224229,63.2413448013248
236,1436167224979,62.895922487051
237,1436167225706,68.5426718972987
238,1436167226384,59.5192170417763
239,1436167226989,71.0874381483439
240,1436167227734,70.728727583257
241,1436167228452,63.8196205875453
242,1436167229173,67.564305273432
243,1436167229913,70.189009353612
244,1436167230635,60.3365446486297
245,1436167231384,70.1090718040374
246,1436167232202,72.5512069795104
247,1436167232810,65.9839590258266
248,1436167233541,66.9608600856572
249,1436167234287,68.4573180243345
250,1436167235012,66.4626836470633
251,1436167235740,62.9696359916205
252,1436167236591,67.8162504884498
253,1436167237324,67.7417930410477
254,1436167237962,59.2323951031258
255,1436167238690,66.1720692241449
256,1436167239444,71.9194699617158
257,1436167240183,60.9032011722223
258,1436167240924,70.2055094879178
259,1436167241633,69.9245482551057
260,1436167242392,62.7942291092982
261,1436167243070,68.1323386821867
262,1436167243808,64.5962427558333
263,1436167244529,60.3078288632824
264,1436167245256,64.1765626773851
265,1436167245993,64.5362469020355
266,1436167246741,61.8467641305883
267,1436167247551,54.9793458635891
268,1436167248201,71.8620680305188
269,1436167248900,63.7330004884874
270,1436167249609,62.1190801198602
271,1436167250335,69.7029639749262
272,1436167251091,67.7496599370513
273,1436167251812,65.4520501334204
274,1436167252625,70.3952391492432
275,1436167253384,69.0250678448378
276,1436167254143,64.1326478754297
277,1436167254888,61.0313966689895
278,1436167255600,68.9769974285716
279,1436167256323,65.1398602059993
280,1436167257144,62.6686573587308
281,1436167257887,70.13686267696
282,1436167258573,73.8679081944933
283,1436167259271,66.4442177001022
284,1436167260036,70.0009779449393
285,1436167260765,72.0970733582135
286,1436167261471,62.897820442661
287,1436167262217,69.0845974675147
288,1436167262826,71.0513862329756
289,1436167263516,63.1700766118501
290,1436167264257,69.1465684525215
291,1436167264991,71.2518322706615
292,1436167265723,60.2680635096183
293,1436167266445,67.678956713151
294,1436167267729,69.3562367964374
295,1436167268472,69.3992820180049
296,1436167269121,70.6602198929589
297,1436167269807,59.0332285593462
298,1436167270558,72.0473757063851
299,1436167271295,72.5510973563812
300,1436167272011,64.1629787419094
301,1436167272811,63.1655571100313
302,1436167273530,64.5571999788311
303,1436167274326,58.2040692352588
304,1436167275067,61.1089853475668
305,1436167275792,65.5218711944649
306,1436167276449,62.8922389804469
307,1436167277819,68.1132329192266
308,1436167278533,63.8718653420643
309,1436167279179,70.1928684405461
310,1436167279888,73.0816633617195
311,1436167280604,65.6220561557356
312,1436167281325,67.9978167452921
313,1436167282123,66.8234297575489
314,1436167282733,65.1281839388626
315,1436167283449,70.1924518297696
316,1436167284195,68.0210274587799
317,1436167284925,61.0052664490087
318,1436167285643,60.750358934946
319,1436167286326,69.0883447511291
320,1436167287078,57.9223513590483
321,1436167287895,61.878225699322
322,1436167288601,69.7235252396228
323,1436167289286,59.7427180167511
324,1436167289966,67.1627741742133
325,1436167290689,68.28228930006
326,1436167291385,64.753361310494
327,1436167292941,71.9057913697905
328,1436167293655,66.9303283972905
329,1436167294427,67.9956965575796
330,1436167295156,75.3933044657296
331,1436167295896,61.8071181385205
332,1436167296704,69.7216327517336
333,1436167297423,74.3656954691307
334,1436167298160,56.9421798771365
335,1436167298899,71.0498863331189
336,1436167299607,73.3861518065507
337,1436167300266,66.0510730242912
338,1436167301822,67.9919046830525
339,1436167302558,64.211616310387
340,1436167303260,70.3378432770291
341,1436167303960,64.7643970860675
342,1436167304643,60.7284861221657
343,1436167305380,71.5640886894755
344,1436167306121,65.3949374208238
345,1436167306861,66.2009990105786
346,1436167307596,69.6292109517499
347,1436167308347,71.5970746483253
348,1436167309081,60.6540949515596
349,1436167309811,71.4231535769335
350,1436167310533,72.6948932827605
351,1436167311274,59.7152998846515
352,1436167312110,65.5813507164843
353,1436167312853,66.9593247712827
354,1436167313576,60.9649698264737
355,1436167314301,62.2629036262823
356,1436167315036,69.5039783733548
357,1436167315761,63.3959615668667
358,1436167316487,63.7696020974296
359,1436167317276,68.8995253261747
360,1436167317956,66.283704538642
361,1436167318733,63.3382888626753
362,1436167319455,71.5761769001618
363,1436167320122,77.1390023785308
364,1436167320840,60.9382818322815
365,1436167321589,72.6073522379288
366,1436167322315,71.2333030044068
367,1436167323119,67.3659135920703
368,1436167323777,68.2240310932076
369,1436167324442,70.9611400732548
370,1436167325179,66.48297967479
371,1436167325902,70.1208607748326
372,1436167326713,65.6685933314686
373,1436167327434,60.7909836368997
374,1436167328173,58.625386886856
375,1436167328885,69.9098960962865
376,1436167329611,65.0565254542325
377,1436167330307,61.3966598266621
378,1436167330966,69.9857798087997
379,1436167331692,57.128274438431
380,1436167332418,61.4683469873511
381,1436167333169,73.0260580828914
382,1436167333910,76.1376400732069
383,1436167334642,65.27659755903
384,1436167335368,65.9599053514473
385,1436167336098,70.6146521281696
386,1436167336850,61.9826763109057
387,1436167337592,62.0012545535743
388,1436167338336,70.7733167609528
389,1436167339058,64.9144660079619
390,1436167339779,68.2798583183863
391,1436167340524,70.2967173798641
392,1436167341166,59.244174219506
393,1436167341920,70.8159847010591
394,1436167342656,67.2815116939907
395,1436167343391,62.6625576286389
396,1436167344176,60.9553993690927
397,1436167344783,65.3339059823415
398,1436167345449,62.6384056163598
399,1436167346194,66.3427863032293
400,1436167346940,68.2150817294636
401,1436167347687,67.2004605868889
402,1436167348450,64.826707118604
403,1436167349199,70.0464038632612
404,1436167349929,71.5324003275143
405,1436167350620,69.4408436354126
406,1436167351289,71.8485325578928
407,1436167352055,74.1193295859631
408,1436167352723,65.369434947634
409,1436167353520,72.1861204298815
410,1436167354341,69.7506090733984
411,1436167355089,61.8487187713038
412,1436167355859,66.9896972152178
413,1436167356590,71.3220199640041
414,1436167357345,64.3348925120819
415,1436167358086,43.9468757575817
416,1436167358813,63.4031598313941
417,1436167359550,64.4645796146013
418,1436167360254,67.6196899007495
419,1436167360930,66.6023471006126
420,1436167361652,71.6773318331013
421,1436167362447,64.2294421022631
422,1436167363173,66.3642276849463
423,1436167363898,62.6682115680953
424,1436167364662,71.3653339211659
425,1436167365363,64.6480547848792
426,1436167366103,60.0510328582582
427,1436167366835,72.8352757089818
428,1436167367666,70.1196417663577
429,1436167368440,62.271813899559
430,1436167369179,65.2828702787547
431,1436167369914,73.361378326245
432,1436167370589,66.1562485434529
433,1436167371188,64.7574570964861
434,1436167371924,68.6488859552165
435,1436167372671,71.1219057646215
436,1436167373401,68.4551218420788
437,1436167374156,66.3743053521783
438,1436167374868,70.8857626693778
439,1436167375612,64.9813302945208
440,1436167376336,71.7449679667346
441,1436167377126,66.0308294817723
442,1436167377817,59.5910069643215
443,1436167378564,72.2410430343719
444,1436167379317,71.7739261697242
445,1436167380006,64.0376575862408
446,1436167380746,60.9084761147343
447,1436167381430,70.433537821598
448,1436167382161,58.3193736573815
449,1436167382888,61.2410771580505
450,1436167383610,65.728634464405
451,1436167384368,43.5916552440043
452,1436167385119,63.1747427878249
453,1436167385797,63.4453702251989
454,1436167386523,70.5825769518262
455,1436167387289,71.58434149106
456,1436167388025,61.9155027213525
457,1436167388774,64.8085943147353
458,1436167389473,66.5352129383566
459,1436167390199,67.2641704741936
460,1436167390907,66.2399949856486
461,1436167391624,69.6084937189369
462,1436167392374,67.8306170217838
463,1436167393118,65.1520099282164
464,1436167393839,71.3086423739625
465,1436167394588,72.4312226923869
466,1436167395301,63.6154230678538
467,1436167396025,70.2593294555167
468,1436167396773,71.3802582481703
469,1436167397511,63.0567228698175
470,1436167398250,64.5076184727844
471,1436167398982,68.8375870528251
472,1436167399709,65.4169314159087
473,1436167400440,67.6326589069886
474,1436167401178,66.3369674987687
475,1436167401866,64.5159086297533
476,1436167402617,65.1398550414969
477,1436167403352,69.4083824874877
478,1436167404099,67.2803366324219
479,1436167404797,68.0130284144205
480,1436167405416,63.7069415927231
481,1436167406088,63.2701850756803
482,1436167406824,65.9747077060269
483,1436167407558,67.6551496810989
484,1436167408302,65.7539046189571
485,1436167409041,66.1149659594541
486,1436167409769,68.585711353836
487,1436167410503,60.5437798571771
488,1436167411225,70.6737412802501
489,1436167411969,71.4876668721142
490,1436167412641,69.7567828219934
491,1436167413340,70.4090312299872
492,1436167414140,75.1184429980474
493,1436167414947,68.0280161811531
494,1436167415705,65.0662786573603
495,1436167416445,69.7509777751959
496,1436167417163,66.6868179158165
497,1436167417894,64.4425079210204
498,1436167418625,56.8640904431911
499,1436167419367,66.770553294146
500,1436167420086,66.1882659986126
501,1436167420830,69.7917190032216
502,1436167421557,60.8006378332906
503,1436167422232,62.1395418798925
504,1436167422867,67.81012359343
505,1436167423565,64.1423820920049
506,1436167424275,64.1664335283244
507,1436167425073,67.297843581839
508,1436167425787,65.7697506343084
509,1436167426456,68.8189791384606
510,1436167427148,74.2717047262861
511,1436167427916,61.8038173248581
512,1436167428596,62.3926527526172
513,1436167429332,65.9811285030198
514,1436167430061,73.430753046774
515,1436167430782,69.0915678832513
516,1436167431520,68.1486941217771
517,1436167432211,72.3076189759592
518,1436167432866,73.8040846162694
519,1436167433572,52.4006711077577
520,1436167434306,69.9166752462801
521,1436167435070,74.561072344778
522,1436167435793,58.4748098136089
523,1436167436501,72.4543034891053
524,1436167437213,71.7743251686133
525,1436167437950,64.3814114484036
526,1436167438657,69.9438148878978
527,1436167439399,72.7460290391238
528,1436167440133,57.534886108725
529,1436167440870,69.8313780923508
530,1436167441613,71.111604012252
531,1436167442332,62.8339343247032
532,1436167442964,70.7265380337268
533,1436167443710,76.0528183903889
534,1436167444450,66.9796650735274
535,1436167445253,62.8628137999932
536,1436167445852,73.3457900588183
537,1436167446581,59.2291438368901
538,1436167447318,71.3837810871034
539,1436167448043,72.103318682663
540,1436167448781,66.5672443096782
541,1436167449502,68.2259770468514
542,1436167450234,70.001771688729
543,1436167450977,66.4939223240586
544,1436167451721,66.7570139630291
545,1436167452448,68.9036481432733
546,1436167453111,65.9441028321211
547,1436167453788,67.169896322286
548,1436167454558,73.0962907100213
549,1436167455286,66.8520599506911
550,1436167456046,64.2099847207911
551,1436167456735,73.5561610395637
552,1436167457312,62.7596126593426
553,1436167458060,70.7098216369163
554,1436167458779,70.241076842017
555,1436167459535,60.9533398031399
556,1436167460286,69.8449210586683
557,1436167461034,75.5897283277305
558,1436167461798,63.1092597605328
559,1436167462524,69.0296627120923
560,1436167463245,71.437331653195
561,1436167463921,68.4629704297206
562,1436167464660,70.3413250475269
563,1436167465415,75.0918294870825
564,1436167466158,59.9031118789611
565,1436167466924,71.28260997876
566,1436167467670,73.2521328054503
567,1436167468410,66.3517868722632
568,1436167469145,67.0225596993953
569,1436167469869,70.4973986523474
570,1436167470559,68.8603096793306
571,1436167471919,64.2725854887134
572,1436167472679,66.5716115643583
573,1436167473377,69.3484427016714
574,1436167474031,68.7164615316237
575,1436167474775,63.7802298814779
