id,attr_time,attr_db
1,1436167051640,36.6532733774059
2,1436167052360,29.2954649769218
3,1436167053079,41.8397495450494
4,1436167053798,33.3800356363024
5,1436167054531,35.6008512593225
6,1436167055274,43.0091570234117
7,1436167056012,34.2934379133356
8,1436167056776,51.1357023502098
9,1436167057516,46.6305741274587
10,1436167058229,37.7754065670863
11,1436167058873,26.4491848206128
12,1436167059591,42.0048830216382
13,1436167060347,41.4607417807652
14,1436167061080,34.0530100017723
15,1436167061805,51.844599512749
16,1436167062526,36.2603795209279
17,1436167063245,36.3396069592779
18,1436167063964,44.4741397979807
19,1436167064694,41.8574219353645
20,1436167065267,33.9741350612084
21,1436167065851,41.550394539087
22,1436167066583,38.0907548489543
23,1436167067367,27.9158796906669
24,1436167068104,42.4914810411622
25,1436167068853,38.0818298655912
26,1436167069490,26.5764941787886
27,1436167070195,42.9338233273428
28,1436167070846,36.5335233518698
29,1436167071536,32.3204725169674
30,1436167072303,40.8258880180945
31,1436167072981,36.6620843378926
32,1436167073696,32.8893630938217
33,1436167074463,45.8617074080881
34,1436167075209,35.8216001970161
35,1436167075937,24.8250611764849
36,1436167076782,43.9027096273536
37,1436167077511,52.886704174271
38,1436167078212,34.3230579904602
39,1436167078834,42.0340326602377
40,1436167079561,30.9244268764193
41,1436167080273,30.1682958530375
42,1436167081019,51.586812806908
43,1436167081805,36.6645316850019
44,1436167082522,37.89134946274
45,1436167083147,43.4162023139972
46,1436167083789,40.1869279301031
47,1436167084481,28.822482837915
48,1436167085206,40.8968712035481
49,1436167085899,34.8755696740381
50,1436167086592,27.3817475267631
51,1436167087341,41.6045209181399
52,1436167088073,30.2412762361869
53,1436167088790,36.2485540190258
54,1436167089474,45.6079835581294
55,1436167090187,30.6871430586563
56,1436167090941,39.0879551656613
57,1436167091669,38.9877628575837
58,1436167092464,42.8560914698484
59,1436167093199,41.1628234064647
60,1436167093957,30.3310744209847
61,1436167094663,44.5163423753613
62,1436167095353,36.0363021032948
63,1436167096050,27.9713958042021
64,1436167096764,44.0808034824081
65,1436167097506,36.9421041468223
66,1436167098238,27.513776364334
67,1436167098960,41.2581687237025
68,1436167099685,38.0214492255111
69,1436167100351,31.73672565384
70,1436167101055,39.7621896029935
71,1436167101771,43.9957283481516
72,1436167102584,30.0264657487415
73,1436167103292,44.4552707283802
74,1436167104031,40.5158572102351
75,1436167104784,28.1388688732244
76,1436167105494,45.9608093687995
77,1436167106140,39.2959738674006
78,1436167106874,39.5776080813282
79,1436167107596,39.6786481358553
80,1436167108320,41.2085866989694
81,1436167109028,43.6635560948074
82,1436167109736,40.4917338560434
83,1436167110382,36.7870667392658
84,1436167111128,45.1040174884989
85,1436167111883,35.5066249222337
86,1436167112613,34.8451760426291
87,1436167113366,41.5796686909313
88,1436167114130,40.9044058785759
89,1436167114852,36.6338851324384
90,1436167115561,44.948163442048
91,1436167116298,39.5232501831236
92,1436167117042,37.4745967989609
93,1436167117779,42.5024823046532
94,1436167118504,39.3979727923744
95,1436167119227,45.7880775803016
96,1436167119976,48.5556746880072
97,1436167120610,48.9747069174977
98,1436167121394,44.0997907188702
99,1436167122151,57.4180030960403
100,1436167122892,47.0546664784289
101,1436167123622,58.7141344785499
102,1436167124353,46.8219130669238
103,1436167125152,44.6415982451743
104,1436167125863,50.9392824472909
105,1436167126529,51.0687358310611
106,1436167127247,40.3816982800141
107,1436167127982,34.7326982903722
108,1436167128727,47.8202855141002
109,1436167129473,47.1813913419397
110,1436167130143,44.964917638001
111,1436167131172,56.0783571450911
112,1436167131771,44.3456424586726
113,1436167132451,44.8087299868348
114,1436167133180,41.5038042839697
115,1436167133915,37.9233429999482
116,1436167134646,65.9209207934685
117,1436167135377,60.3612489656626
118,1436167136203,55.2468049867254
119,1436167136961,54.0594286292935
120,1436167137692,41.8358172825825
121,1436167138412,44.8555422380639
122,1436167139140,50.6795449612731
123,1436167139867,40.2367669601557
124,1436167140546,42.9818940975295
125,1436167141256,39.2169426752858
126,1436167142011,39.9055886080086
127,1436167142734,40.6486555116757
128,1436167143470,53.8418884505227
129,1436167144190,39.1375254437178
130,1436167144913,51.5657220569682
131,1436167145579,63.1962993827356
132,1436167146246,61.6240111778949
133,1436167146965,50.9213182400689
134,1436167147709,51.348373745463
135,1436167148440,40.4892411737322
136,1436167149184,57.4661378112971
137,1436167149909,46.1519521645103
138,1436167150644,61.8433226827241
139,1436167151354,47.7777887119228
140,1436167152107,47.7168275307515
141,1436167152815,40.4947876342705
142,1436167153550,51.9802733821622
143,1436167154261,41.500625992654
144,1436167155033,42.1375684009225
145,1436167155760,37.2154283284813
146,1436167156519,40.9594716375883
147,1436167157242,47.055744232728
148,1436167157971,37.250114571301
149,1436167158657,44.3259324851772
150,1436167159398,55.2511051481767
151,1436167160106,35.288477487197
152,1436167160815,50.4260446245175
153,1436167161485,45.2157228214961
154,1436167162220,36.7558689759836
155,1436167162996,56.3690408473148
156,1436167163729,46.3324526647827
157,1436167164453,41.4886038325328
158,1436167165179,47.7086947176452
159,1436167165947,43.398719544151
160,1436167166636,43.8188890343702
161,1436167167270,51.2210030489399
162,1436167167932,61.1565759300205
163,1436167168675,53.5565257360076
164,1436167169405,41.748196417565
165,1436167170119,41.7076741050502
166,1436167170839,46.8895586282444
167,1436167171486,55.1070463597525
168,1436167172216,48.5995099619505
169,1436167172966,43.44548912711
170,1436167173679,41.4146640173882
171,1436167174410,39.9289100492085
172,1436167175168,42.7413280001305
173,1436167175898,41.1461535599487
174,1436167176646,44.5508093884317
175,1436167177435,44.0774641156461
176,1436167178162,38.4113966424146
177,1436167178903,54.7042294569406
178,1436167179635,48.3038955159351
179,1436167180342,38.409654584438
180,1436167181040,45.6544612390121
181,1436167181708,43.3280817428843
182,1436167182417,38.6920738754218
183,1436167183143,52.3426617783985
184,1436167183907,40.6652825209495
185,1436167184633,44.3165343223708
186,1436167185364,42.7375277314208
187,1436167186115,41.2636802300389
188,1436167186817,46.5799839142112
189,1436167187510,35.3202337618243
190,1436167188250,47.4227950312547
191,1436167189015,46.9050342066064
192,1436167189755,36.5795056649321
193,1436167190511,57.045887790877
194,1436167191243,43.1233626188603
195,1436167192011,45.5674803560231
196,1436167192738,47.3469258271196
197,1436167193436,37.4434470908237
198,1436167194095,37.6495618992971
199,1436167194825,52.9813721176659
200,1436167195561,48.3112460442006
201,1436167196271,48.4227756455631
202,1436167197123,39.0943219428622
203,1436167197820,40.007200229109
204,1436167198492,48.5444666953271
205,1436167199204,39.7524020214998
206,1436167199932,45.3502390323185
207,1436167200667,44.4116697360208
208,1436167201431,40.4305416618525
209,1436167202219,48.0594034762382
210,1436167202950,44.0100051474944
211,1436167203671,44.6657030244577
212,1436167204354,43.7190262974681
213,1436167204998,44.8342179875283
214,1436167205728,42.8470245987769
215,1436167206451,51.1760223821358
216,1436167207150,50.4384992378145
217,1436167207764,35.1937455861924
218,1436167208447,43.6534161993298
219,1436167210527,39.0571867562016
220,1436167211265,44.5442978768036
221,1436167211998,36.7168711192298
222,1436167212729,40.7904284177443
223,1436167213471,43.6896858457408
224,1436167214193,36.4557513932379
225,1436167214849,43.3581815622975
226,1436167215585,39.4755756877136
227,1436167216331,53.9310046846367
228,1436167217072,43.8192902850377
229,1436167217792,40.4120865191812
230,1436167218538,51.6770140106741
231,1436167219279,56.0331770687646
232,1436167219999,41.297312817685
233,1436167220658,44.0190266466782
234,1436167222058,38.3547447997275
235,1436167222777,49.5591730214178
236,1436167223498,44.2479737805086
237,1436167224254,39.2723786785093
238,1436167224990,41.8204168060285
239,1436167225667,37.112952160146
240,1436167226380,40.8409572609482
241,1436167227146,41.5229783031634
242,1436167227833,42.0922354866553
243,1436167228559,42.3301668009194
244,1436167229271,43.5149832329981
245,1436167230006,36.6435384078882
246,1436167230740,46.0569987518784
247,1436167231473,38.2688871360115
248,1436167232210,37.9404773252351
249,1436167232947,41.6620924068097
250,1436167233687,40.8532709887406
251,1436167234386,50.4286608270247
252,1436167236109,52.7183653790215
253,1436167236867,37.024457744504
254,1436167237641,54.7284712472128
255,1436167238374,43.3948186977747
256,1436167239121,38.0133542209178
257,1436167239838,48.4065653012894
258,1436167240571,43.8903178293982
259,1436167241335,45.9019382533761
260,1436167242086,40.5927851277161
261,1436167242792,38.3742987948371
262,1436167243491,45.4527024294814
263,1436167244161,43.5890384612376
264,1436167245551,38.9828822793359
265,1436167246291,44.2927911982632
266,1436167247061,41.5177095613036
267,1436167247774,46.3153441279783
268,1436167248446,44.3462228529461
269,1436167249178,46.7022072746558
270,1436167249879,47.959330317542
271,1436167250492,48.2457417929519
272,1436167251184,48.3322095857253
273,1436167251927,42.4340546184741
274,1436167252674,48.2596121402706
275,1436167253401,40.0393792061762
276,1436167254143,40.7320243054018
277,1436167254873,38.4383650126101
278,1436167255594,41.553944609225
279,1436167256267,42.1718830895765
280,1436167257055,38.4074975207782
281,1436167257812,44.1052440124832
282,1436167258532,45.7334683388392
283,1436167259266,56.1943625617892
284,1436167260035,53.5900735194273
285,1436167260717,45.869813564804
286,1436167261450,44.9872204588113
287,1436167262179,50.3569088741143
288,1436167262945,44.45101971744
289,1436167263690,44.4282041046524
290,1436167264441,35.9002241870588
291,1436167265182,40.946247377045
292,1436167265909,46.9588355885364
293,1436167266570,37.5928619289825
294,1436167267326,46.6365817599341
295,1436167268086,41.6329930117004
296,1436167268686,41.9461427355943
297,1436167269382,41.4279090730093
298,1436167270119,41.0012084294571
299,1436167270827,45.8505356021546
300,1436167271499,46.2369369799753
301,1436167272235,43.4495618295539
302,1436167272962,40.289434510527
303,1436167273692,38.5479586971756
304,1436167274431,48.2293426647228
305,1436167275171,36.7972024047592
306,1436167275885,37.5039038883619
307,1436167276554,49.9467179946494
308,1436167277285,40.4163743220445
309,1436167278037,39.3758216535127
310,1436167278799,45.0359182060922
311,1436167279494,41.4184607080629
312,1436167280227,47.3357084861128
313,1436167280918,42.684253237321
314,1436167281583,36.7927801170145
315,1436167282305,44.5183392871419
316,1436167283020,48.6176920688735
317,1436167283743,35.5227898530337
318,1436167284490,38.1234993745516
319,1436167285218,40.7727381126088
320,1436167285945,45.2192309455025
321,1436167286605,45.0809320073709
322,1436167287359,40.6400525877292
323,1436167288119,57.168470066225
324,1436167288796,45.9983105575662
325,1436167289455,42.304728570907
326,1436167290197,38.0086570643862
327,1436167290920,46.3944829607565
328,1436167291592,46.1725058191241
329,1436167292321,41.3274064199293
330,1436167293051,45.3486462242191
331,1436167293775,42.2496776889592
332,1436167294527,56.8983172510344
333,1436167295252,41.31236589963
334,1436167295978,43.5332757898147
335,1436167296667,39.9484049068193
336,1436167297331,39.3816473509848
337,1436167298114,52.2584254869437
338,1436167298850,42.8910061979326
339,1436167299592,45.4410869945293
340,1436167300340,46.1631025373794
341,1436167301107,52.8686996280479
342,1436167301786,42.8362208844481
343,1436167302518,43.8634498261144
344,1436167303254,48.3102862784676
345,1436167304000,50.3094207668643
346,1436167304733,38.8290004891332
347,1436167305467,34.6748100417256
348,1436167306194,44.8712985005715
349,1436167306958,37.1836606763437
350,1436167307591,40.7805671813996
351,1436167308285,50.1524554281062
352,1436167309039,40.7373473187248
353,1436167309767,38.7287940981218
354,1436167310508,41.6937348810311
355,1436167311251,37.9182110160914
356,1436167312077,44.4367409130272
357,1436167312674,47.6637192504435
358,1436167313335,33.1750397087716
359,1436167314054,39.8137105360507
360,1436167314795,46.6477803454285
361,1436167315531,41.6280523513406
362,1436167316270,55.2014806042587
363,1436167317053,33.1945360558798
364,1436167317687,41.5596638628468
365,1436167318382,47.3703657830045
366,1436167319109,39.0893674396582
367,1436167319846,44.1989180750143
368,1436167320593,43.0516061653781
369,1436167321362,45.4640124492042
370,1436167322178,41.5128742906851
371,1436167322850,42.9462561776564
372,1436167323628,46.6194922215695
373,1436167324367,43.2845001182233
374,1436167325089,40.9452257246437
375,1436167325818,59.4107374602034
376,1436167326602,46.4484545330731
377,1436167327283,39.2710435185161
378,1436167327941,51.0201986905318
379,1436167328625,43.440083547068
380,1436167329225,37.018999693743
381,1436167329917,51.0575562494945
382,1436167330634,53.2685364103548
383,1436167331382,41.2221350550536
384,1436167332242,52.5091725227049
385,1436167332912,39.3504610547795
386,1436167333613,39.1015036393312
387,1436167334317,41.0804314536083
388,1436167335058,40.4808753276286
389,1436167335778,40.3633759071199
390,1436167336527,43.6266113079718
391,1436167337281,44.6196531696384
392,1436167337932,37.6491857296182
393,1436167338642,45.1938066464434
394,1436167339375,48.4030913709499
395,1436167340130,48.3650452287616
396,1436167340866,42.8476125513558
397,1436167341616,41.9567178246689
398,1436167342368,45.2551306108543
399,1436167343196,42.4231811005772
400,1436167343922,44.059043750989
401,1436167344653,36.622925581125
402,1436167345396,41.7783780237645
403,1436167346129,50.7555816831282
404,1436167346862,48.1912165242651
405,1436167347592,53.2089106186156
406,1436167348321,43.9721323124578
407,1436167349104,41.7948163731553
408,1436167349767,60.3935188106255
409,1436167350484,54.05283591467
410,1436167351219,35.3821241803125
411,1436167351947,44.9239577249159
412,1436167352605,43.7056732424158
413,1436167353345,34.2136139502129
414,1436167354077,42.9807346904958
415,1436167354803,40.8850205873496
416,1436167355547,37.1404873301354
417,1436167356266,50.481434400409
418,1436167356996,60.0460900154611
419,1436167357732,60.8481887507001
420,1436167358405,61.4317773090285
421,1436167359145,64.2688600669235
422,1436167359871,54.5380407014773
423,1436167360599,71.5190232235345
424,1436167361343,65.7243865224516
425,1436167362086,65.8518975409766
426,1436167362820,59.9068430201339
427,1436167363544,55.9621616819072
428,1436167364270,47.464070095689
429,1436167364945,45.5598630255597
430,1436167365533,53.2197824575591
431,1436167366210,44.9034028191236
432,1436167366941,57.4761822598034
433,1436167367662,52.0907731055542
434,1436167368361,65.2486641199219
435,1436167368978,64.7082030232518
436,1436167369654,55.7447843856221
437,1436167370403,50.5912236781547
438,1436167371126,44.1363868948943
439,1436167371867,37.1179747565012
440,1436167372566,43.6523973260526
441,1436167373216,37.3957885318743
442,1436167373980,68.7312211850683
443,1436167374705,46.3610027145782
444,1436167375425,44.2596474918613
445,1436167376171,33.6744993210394
446,1436167376951,33.6595487934119
447,1436167377704,42.6160831345893
448,1436167378397,42.2924587038695
449,1436167379091,42.1219198617058
450,1436167379812,41.6804548892375
451,1436167380545,41.4150694079025
452,1436167381300,42.0958137601441
453,1436167382055,38.9851069194483
454,1436167382741,45.8856573267538
455,1436167383423,48.3726996622598
456,1436167384082,48.899080802078
457,1436167384747,37.4430006699588
458,1436167385508,49.8223173525596
459,1436167386255,40.3194232587366
460,1436167387009,44.1274327434163
461,1436167387738,36.1716315301652
462,1436167388460,41.7363179446107
463,1436167389072,40.9792525562931
464,1436167389745,41.2591244338093
465,1436167390485,46.8822663099859
466,1436167391197,49.361255484956
467,1436167391992,42.1339819003615
468,1436167392731,41.8412119650647
469,1436167393482,49.571798762595
470,1436167394206,36.5637435223905
471,1436167394869,43.5466882295002
472,1436167395597,49.6782360633242
473,1436167396335,44.2980459851951
474,1436167397122,41.069388391259
475,1436167397867,41.7796383246731
476,1436167398600,42.3545162864453
477,1436167399302,38.9314004113484
478,1436167399970,62.7316831822928
479,1436167400710,56.6916466253267
480,1436167401439,55.0431540629706
481,1436167402162,49.0928243357336
482,1436167402827,39.3276239718749
483,1436167403515,37.5260960662405
484,1436167404187,44.1906211309207
485,1436167404905,42.1366246605702
486,1436167405651,45.0695287256093
487,1436167406375,46.2110267064175
488,1436167407188,46.4922721053783
489,1436167407922,45.8698866864593
490,1436167408642,40.7614473048264
491,1436167409432,44.0724027919854
492,1436167410125,38.5224197253456
493,1436167410854,43.3264800461321
494,1436167411564,40.3801991600704
495,1436167412284,41.6171883028921
496,1436167412981,53.5495655902394
497,1436167414475,41.5484239496501
498,1436167415186,50.5870820776046
499,1436167415944,39.0086222559325
500,1436167416681,40.5624287063227
501,1436167417351,54.3090551703476
502,1436167418075,40.4615064646874
503,1436167418805,40.9983200534157
504,1436167419521,48.5617083864106
505,1436167420264,36.8337616589998
506,1436167421024,46.258160987254
507,1436167421772,39.3148002365297
508,1436167422493,45.0816368165686
509,1436167423215,47.0561588472407
510,1436167423962,39.3469966806625
511,1436167424709,44.9509323868625
512,1436167425450,42.8284707893198
513,1436167426175,42.7927177080893
514,1436167426905,48.9627066631036
515,1436167427640,47.8999598569914
516,1436167428362,38.5061210656646
517,1436167430559,39.0678839653593
518,1436167431325,58.3400338674742
519,1436167432469,38.5653322542246
520,1436167433119,54.7210359797516
521,1436167433805,39.9494106939412
522,1436167434492,46.5442463017158
523,1436167435219,49.2416820248983
524,1436167435954,39.5030578000781
525,1436167436655,44.441344024121
526,1436167437374,55.1354111565752
527,1436167438184,45.5046284490242
528,1436167438917,41.5960884014836
529,1436167439651,36.7861673482603
530,1436167440357,43.3744259358403
531,1436167440994,45.6166563647441
532,1436167441730,48.5825209893353
533,1436167442364,42.6638073029634
534,1436167442981,40.3087938417819
535,1436167443728,42.4004399164331
536,1436167444445,36.0963849746973
537,1436167445180,41.0632434598646
538,1436167445913,43.1675634148029
539,1436167446631,36.8467975354776
540,1436167447367,42.766497961126
541,1436167448104,49.9454353809437
542,1436167448848,38.1159428088658
543,1436167449519,49.8574405359664
544,1436167450127,47.1944377321147
545,1436167450745,47.6795172043075
546,1436167452242,45.296019765439
547,1436167452903,55.3096783346552
548,1436167453621,45.9079748797532
549,1436167454296,39.5841019403087
550,1436167454974,49.8863392009734
551,1436167455694,38.5941167908907
552,1436167456420,35.2165949899723
553,1436167457143,43.3165374304163
554,1436167457882,50.4394825588909
555,1436167458615,43.8965331080906
556,1436167459308,38.1021790370192
557,1436167459929,41.4154335083663
558,1436167460611,47.4962106573031
559,1436167461382,48.5073003346653
560,1436167462117,47.0017083889191
561,1436167462842,61.8109588975775
562,1436167463601,49.0145132492619
563,1436167464294,43.8027342980225
564,1436167465792,49.7011360459421
565,1436167466517,51.5692841977115
566,1436167467250,44.1168227046796
567,1436167467987,43.5309036359098
568,1436167468687,42.2612273894359
569,1436167469404,34.2542810136425
570,1436167470104,51.6758288587375
571,1436167470724,50.4573958141136
572,1436167471442,39.2064512321016
573,1436167472177,37.2690179490953
574,1436167473002,58.6300941589066
575,1436167473748,37.382035169495
