id,attr_time,attr_db
1,1438346754240,24.9261561815585
2,1438346755059,19.3010349058353
3,1438346755783,27.8796127518347
4,1438346756539,43.2022259156718
5,1438346757276,56.7649957109496
6,1438346758008,62.0420896083642
7,1438346758775,42.0047390295442
8,1438346759515,45.0739005618076
9,1438346760249,39.0519187979763
10,1438346760976,34.6463600556393
11,1438346761742,43.2636538649242
12,1438346762354,38.2551670951433
13,1438346763017,44.7042181305007
14,1438346763793,36.3939675125298
15,1438346764519,34.2495911860857
16,1438346765247,26.0242213484007
17,1438346765986,23.4833951195483
18,1438346766661,26.6134754428035
19,1438346767343,34.2036170997822
20,1438346768064,17.3902633133776
21,1438346768797,12.0572405993152
22,1438346769522,11.0796183059506
23,1438346770263,32.2438659155214
24,1438346770978,11.7450656943495
25,1438346771780,31.4772213393388
26,1438346772507,55.7541389341894
27,1438346773261,55.5979769582107
28,1438346773986,23.482787403637
29,1438346774808,18.4299559752584
30,1438346775529,25.552117533276
31,1438346776259,41.6069164914128
32,1438346776990,19.2657218768347
33,1438346777725,18.3648144954302
34,1438346778428,17.284533589637
35,1438346779099,14.667226514282
36,1438346779878,30.3494598313831
37,1438346780539,33.1105768893186
38,1438346781287,10.5602214760712
39,1438346782026,44.0965387174155
40,1438346782740,33.9861356468171
41,1438346783301,41.5200343955967
42,1438346783936,41.4639031156971
43,1438346784660,39.4378132561915
44,1438346785387,49.5814403399362
45,1438346786116,35.7545731581533
46,1438346786854,15.8151620104827
47,1438346787501,18.2024601088504
48,1438346788262,21.3153503918846
49,1438346788998,30.2106696249886
50,1438346789704,38.4646663414412
51,1438346790380,19.667716016534
52,1438346791095,54.7182004681098
53,1438346791836,52.6718524252885
54,1438346792544,22.4113923046156
55,1438346793226,39.6744231772976
56,1438346793957,46.6965247093268
57,1438346794708,18.155151305734
58,1438346795435,18.2117573992619
59,1438346796129,15.3415340918086
60,1438346796842,18.3375463698747
61,1438346797595,17.1087411380645
62,1438346798315,18.7396546033533
63,1438346799048,21.6492548916553
64,1438346799763,20.875102328037
65,1438346800493,51.5161029649966
66,1438346801201,36.552933275727
67,1438346801763,13.1772553074494
68,1438346802342,43.6956030161682
69,1438346802985,30.8659029402941
70,1438346803697,15.5441371036022
71,1438346804402,51.2947941991505
72,1438346805247,44.803268792477
73,1438346805974,40.6358269343282
74,1438346806704,43.4237506805138
75,1438346807328,40.0027288759671
76,1438346808013,17.2230960123289
77,1438346808750,39.9592682244405
78,1438346809477,30.4409330709335
79,1438346810308,20.6329958030239
80,1438346811038,25.3369503208179
81,1438346811743,21.7408821197679
82,1438346812499,22.4249233229236
83,1438346813278,23.3775918137324
84,1438346814003,22.3910379367317
85,1438346814735,23.9059398577547
86,1438346815453,23.7350948606379
87,1438346816147,20.5787517582155
88,1438346816872,24.7303877188811
89,1438346817619,47.1185829565293
90,1438346818374,25.6940217769768
91,1438346819089,21.562401481979
92,1438346819839,19.4242352188447
93,1438346820586,15.9411832002803
94,1438346821321,22.0209813998404
95,1438346822048,27.7284276616868
96,1438346822741,25.2662205195945
97,1438346823343,45.0480712854843
98,1438346824013,41.6136980263236
99,1438346824730,20.6135064612627
100,1438346825522,54.8435549776153
101,1438346826256,23.8999217692638
102,1438346826975,29.1074694088876
103,1438346827653,24.3941972897361
104,1438346828398,20.6275058834825
105,1438346829123,22.0733012944781
106,1438346829848,20.197730881371
107,1438346830585,30.1149438289563
108,1438346831323,36.734629228157
109,1438346832052,18.7022383056351
110,1438346832793,37.3605182032031
111,1438346833516,19.100884733404
112,1438346834328,22.8703530824035
113,1438346835058,16.3717470671782
114,1438346835787,12.0517101925362
115,1438346836494,8.83602541231268
116,1438346837266,8.19130705948
117,1438346837987,6.23119165548097
118,1438346838703,5.501131032602
119,1438346839418,8.38781586026097
120,1438346840147,13.557858042939
121,1438346840878,8.78151484540318
122,1438346841617,26.5954293911674
123,1438346842382,11.7234632836354
124,1438346843103,48.3983749118484
125,1438346843743,62.1587565445157
126,1438346844494,25.1927726932509
127,1438346845246,34.8101782738969
128,1438346845958,19.8026068668629
129,1438346847692,14.5297090185843
130,1438346848421,18.1976242838686
131,1438346849231,42.499588770522
132,1438346849949,30.1201586753385
133,1438346850663,26.5344882808702
134,1438346851403,25.9135654541369
135,1438346852135,43.7402851571875
136,1438346852864,29.7088715347788
137,1438346853555,27.1217596357026
138,1438346854365,28.3226054872254
139,1438346855105,28.5832882743507
140,1438346855838,34.6107503219226
141,1438346856569,37.2349859319663
142,1438346857346,29.5942365640761
143,1438346858016,32.8964720827224
144,1438346859502,26.1428782558736
145,1438346860253,20.5076670259302
146,1438346860949,21.5953882271749
147,1438346861686,21.6757089398816
148,1438346862398,54.261231957197
149,1438346863108,23.1988163943593
150,1438346863823,28.8153906963104
151,1438346864542,53.4530527314184
152,1438346865287,58.3805445276982
153,1438346866007,52.6820431732109
154,1438346866721,45.5013357667159
155,1438346867434,19.9236846655064
156,1438346868075,16.3599319610027
157,1438346868791,12.4852558681325
158,1438346869497,37.1593725557441
159,1438346870241,42.7671246075655
160,1438346870971,11.0257626407206
161,1438346871692,43.8938102580091
162,1438346872412,35.7150985783427
163,1438346874083,19.2342978146578
164,1438346874775,47.8310349483098
165,1438346875505,18.8302301369398
166,1438346876270,17.3013131817653
167,1438346877004,63.6432728504287
168,1438346877714,63.0259807496407
169,1438346878445,27.5062049167074
170,1438346879204,27.2765448674857
171,1438346880012,59.7567519362496
172,1438346880730,36.2805699646663
173,1438346881439,19.5817826463844
174,1438346882137,14.4084426258084
175,1438346883557,56.7327348717985
176,1438346884305,28.3045278716158
177,1438346885134,16.615414371338
178,1438346885855,15.716587134955
179,1438346886571,14.6244188816417
180,1438346887272,17.8647494386659
181,1438346887959,23.4659891800057
182,1438346888685,15.9609488837515
183,1438346889481,45.365482081698
184,1438346890222,40.5191568881753
185,1438346890948,49.4856350388633
186,1438346891684,20.0930337028904
187,1438346892404,56.8867779579069
188,1438346893143,21.5598284954566
189,1438346893865,39.1430574277199
190,1438346894611,49.2023295083703
191,1438346895355,37.5078746320901
192,1438346896108,26.8987250686621
193,1438346896838,27.8127808643715
194,1438346897573,25.7916155539725
195,1438346898323,28.93046580706
196,1438346899060,42.9809471042894
197,1438346899785,35.1938073027605
198,1438346900517,43.4002299226767
199,1438346901270,42.9582686056322
200,1438346902008,31.0972215504837
201,1438346902757,45.72827495214
202,1438346903500,29.6901303305857
203,1438346904104,28.3937328220666
204,1438346904782,21.6801468960835
205,1438346905430,26.3787607438404
206,1438346906115,49.9105575019155
207,1438346906848,45.4896777312489
208,1438346907511,48.5634509393839
209,1438346908144,48.0303770856566
210,1438346908873,20.2337117415797
211,1438346909648,36.0395143793202
212,1438346910375,35.8344325030771
213,1438346911110,47.7337004449882
214,1438346911817,29.9287914074245
215,1438346912528,39.6675599204304
216,1438346913270,13.8454361573267
217,1438346914004,33.9031422226422
218,1438346914713,47.5067668913841
219,1438346915455,11.5284567782214
220,1438346916201,52.9369456924569
221,1438346916939,14.4238777534932
222,1438346917636,26.6561518995671
223,1438346918394,39.9489325348077
224,1438346919128,45.4736253144774
225,1438346919865,20.7320501359409
226,1438346920585,34.2681641374837
227,1438346921337,41.9213155752191
228,1438346922075,41.0724582361034
229,1438346922821,38.6651956912444
230,1438346923552,40.6919947760568
231,1438346924288,38.3260621380949
232,1438346925070,29.403769933924
233,1438346925780,43.1437316319766
234,1438346926510,47.6557562819655
235,1438346927273,20.5609466036762
236,1438346928005,17.6970909997749
237,1438346928744,17.2004601342951
238,1438346929440,22.7851934157458
239,1438346930156,40.255017101702
240,1438346930862,39.6684213721107
241,1438346931589,32.9962760682118
242,1438346932248,43.7603550133022
243,1438346933045,22.5096001040872
244,1438346933842,22.3860051804864
245,1438346934574,38.5710238011307
246,1438346935364,33.3086718214551
247,1438346936094,57.7657072410445
248,1438346936849,58.013934293146
249,1438346937578,57.3129968254026
250,1438346938281,23.9086054866159
251,1438346939023,46.8234094094222
252,1438346939850,44.9444458270178
253,1438346940551,24.412549099272
254,1438346941215,31.8665217043055
255,1438346941932,25.1394102613154
256,1438346942690,57.0841592107329
257,1438346943426,63.9115077168969
258,1438346944169,51.8048985843904
259,1438346944959,32.8531816611117
260,1438346945723,36.8581486795289
261,1438346946450,20.5235537783451
262,1438346947169,31.4555320309026
263,1438346947910,37.4902381947019
264,1438346948584,50.4319905579874
265,1438346949318,51.1660794524824
266,1438346950048,38.7349087995935
267,1438346950783,55.3381598690989
268,1438346951456,21.7535439942122
269,1438346952092,21.0880407369163
270,1438346952808,41.8151818957912
271,1438346953543,36.810661397308
272,1438346954288,42.3029276713119
273,1438346955088,19.1436439748014
274,1438346955815,18.2384660389468
275,1438346956549,20.0644976550577
276,1438346957264,19.1914525055009
277,1438346957968,23.7873534608468
278,1438346958743,25.8565010503304
279,1438346959461,29.1830090103537
280,1438346960178,27.7170287558344
281,1438346960910,23.7150019009224
282,1438346961656,23.4295462221687
283,1438346962383,31.6482681035748
284,1438346963020,23.5057170385995
285,1438346963752,27.8491332574023
286,1438346964392,23.5693531660048
287,1438346965090,42.711950110921
288,1438346965800,22.2156946335787
289,1438346966392,22.7374395404335
290,1438346967072,20.6840598096479
291,1438346967810,21.4912022866698
292,1438346968464,55.3782496555186
293,1438346969157,45.6289349462471
294,1438346969876,54.8361568561684
295,1438346970727,16.0707834885687
296,1438346971458,16.4651353756686
297,1438346972189,19.9185211857119
298,1438346972939,21.1852255492824
299,1438346973667,53.3545139974423
300,1438346974395,19.9337373292793
301,1438346975121,38.2169149072111
302,1438346975871,56.4669575540347
303,1438346976634,46.3723597483506
304,1438346977374,46.7766132552689
305,1438346978159,21.3941539860929
306,1438346978920,18.8127790218568
307,1438346979764,26.5853742849016
308,1438346980500,22.2298983521523
309,1438346981226,46.1892834616462
310,1438346981962,38.0941602005071
311,1438346982740,39.3312391703228
312,1438346983477,22.3849711313585
313,1438346984175,20.6045498899662
314,1438346984871,17.3171967084536
315,1438346985638,45.1014427001121
316,1438346986347,14.1447398289057
317,1438346987078,30.3282367873612
318,1438346987783,20.0025703250651
319,1438346988499,50.4697392936165
320,1438346989234,46.6955375657259
321,1438346989945,24.3334748507094
322,1438346990699,37.1953109929055
323,1438346991405,39.9070479861836
324,1438346992146,41.0876530826666
325,1438346992872,18.3025161220806
326,1438346993633,13.5019458821404
327,1438346994348,14.5745203221976
328,1438346995089,25.3767646873126
329,1438346995832,41.5703949758696
330,1438346996576,20.3043614619412
331,1438346997309,20.5881820752589
332,1438346998051,39.9703882554234
333,1438346998803,44.1539268023719
334,1438346999544,18.446987654703
335,1438347000322,16.1365802014084
336,1438347001020,20.9225220893453
337,1438347001635,57.4506398243728
338,1438347002321,11.6070310353191
339,1438347003079,12.9048475417117
340,1438347003810,51.3553886476001
341,1438347004546,41.32946787668
342,1438347005138,24.9203977449783
343,1438347005831,18.8869354517622
344,1438347006575,14.2589527007379
345,1438347007316,46.9368984090157
346,1438347008041,20.320578367946
347,1438347008731,18.3763849786621
348,1438347009420,17.7035887933126
349,1438347010153,16.0886867305058
350,1438347010889,13.9085738916579
351,1438347011592,12.5872914285954
352,1438347012229,14.1033551478098
353,1438347012978,13.9838796448206
354,1438347013723,13.8524881148581
355,1438347014483,16.8507040407552
356,1438347015258,16.178850687622
357,1438347015997,12.5576306889128
358,1438347016748,19.5999620265304
359,1438347017488,19.6322392498182
360,1438347018216,43.058210129206
361,1438347018961,41.77711922578
362,1438347019729,30.2116774439664
363,1438347020315,9.91637607948398
364,1438347020961,14.9771424604061
365,1438347021648,54.7500991630081
366,1438347022385,41.3000264427491
367,1438347023111,7.43785949150113
368,1438347023861,5.0065388795197
369,1438347024638,27.846028620282
370,1438347025289,5.93002404277442
371,1438347025964,8.98896504325307
372,1438347026718,7.66933650975502
373,1438347027522,10.4802875231856
374,1438347028254,33.2118568556301
375,1438347028958,9.74739754650748
376,1438347029648,10.8882351541267
377,1438347030352,14.0069832731814
378,1438347031083,11.5491768000487
379,1438347031809,14.3270383170326
380,1438347032561,15.410277024725
381,1438347033305,19.4988141776138
382,1438347034051,21.886491106221
383,1438347034783,18.3646854506738
384,1438347035505,20.8971220027563
385,1438347036237,27.0326420064882
386,1438347036967,34.352643212654
387,1438347037726,43.9841410748247
388,1438347038445,34.6307735351236
389,1438347039185,27.2608228772614
390,1438347039952,20.4745334178893
391,1438347040683,40.3169469681747
392,1438347041327,40.1639415482784
393,1438347042041,35.5660182782475
394,1438347042772,27.0376568831726
395,1438347043501,17.1693657420433
396,1438347044226,22.0486832863382
397,1438347044930,26.041498706145
398,1438347045629,42.7532059954588
399,1438347046263,28.8912569092418
400,1438347046998,23.3689054890542
401,1438347047726,24.8622929823533
402,1438347048475,22.8557280019057
403,1438347049151,67.99807272795
404,1438347049802,53.1904548296563
405,1438347050467,29.7557618199116
406,1438347052190,41.7877719520384
407,1438347052914,39.6726438207672
408,1438347053658,41.6887195785312
409,1438347054527,39.8627348265349
410,1438347055272,28.2698508784913
411,1438347055951,32.5991609744823
412,1438347056705,41.2224312073764
413,1438347057442,42.9379794926025
414,1438347058165,54.6532756668367
415,1438347058872,26.3851839419482
416,1438347059528,38.0648631582747
417,1438347060271,40.660909815982
418,1438347060996,49.9230602975094
419,1438347061707,56.9236359487206
420,1438347062365,24.4495887397567
421,1438347063078,13.6757532561965
422,1438347063800,56.4666630718234
423,1438347064579,24.8219013176082
424,1438347065279,17.2837364048942
425,1438347065854,41.6040080041173
426,1438347067663,19.7893230451668
427,1438347068377,19.9216377693461
428,1438347069060,37.6525624723236
429,1438347069738,40.3493177723431
430,1438347070391,45.3389735111349
431,1438347071118,63.9062827639613
432,1438347071828,34.7140917576279
433,1438347072467,57.2676387650381
434,1438347073191,61.8714034482449
435,1438347073897,61.1877175144215
436,1438347074699,52.8166985351848
437,1438347075423,53.3884214571807
438,1438347076140,62.6259095326401
439,1438347076877,23.6106767929242
440,1438347077611,26.1962724804176
441,1438347078238,30.67361177784
442,1438347078900,22.2972085517527
443,1438347079614,22.3927175695719
444,1438347080364,21.2709698185551
445,1438347081096,47.0621998686145
446,1438347081793,45.6911350096412
447,1438347082440,41.8804419695113
448,1438347083142,17.9574771955155
449,1438347083864,33.1139138295849
450,1438347084679,41.0234167434068
451,1438347085410,7.50816936455653
452,1438347086062,8.45860154468458
453,1438347086755,10.620469654991
454,1438347087472,8.9176970952825
455,1438347088186,10.4364886134731
456,1438347088856,10.437518160453
457,1438347090243,46.8438452864947
458,1438347090917,23.2368153195626
459,1438347091651,19.9598734519934
460,1438347092374,16.4510440061173
461,1438347093028,18.3729802588164
462,1438347093749,16.080096689655
463,1438347094491,13.0262267333302
464,1438347095274,41.8266597386848
465,1438347096001,20.4030818975367
466,1438347096751,53.9818190747078
467,1438347097445,23.2411652821323
468,1438347098169,60.4422429324801
469,1438347098907,55.3143044948936
470,1438347099717,21.666437377659
471,1438347100446,39.1198079556463
472,1438347101152,55.9352353742362
473,1438347101855,43.1664951151369
474,1438347103302,22.6672872935957
475,1438347104065,19.5874960145003
476,1438347104851,21.3811249762414
477,1438347105561,25.2676633501354
478,1438347106214,24.208069142171
479,1438347106900,23.6020901400355
480,1438347107562,21.533043543848
481,1438347108275,26.6236244979712
482,1438347109043,57.5644367536557
483,1438347109755,43.0337405996698
484,1438347110418,52.0654278484926
485,1438347111163,42.5972190229799
486,1438347111898,26.6229454850279
487,1438347112631,25.1518119523578
488,1438347113350,30.4768428618067
489,1438347114086,18.7731978343263
490,1438347114828,18.4274322852834
491,1438347115567,21.9039997111997
492,1438347116278,29.01466055196
493,1438347117020,70.0061569686688
494,1438347117762,34.6982288358686
495,1438347118496,25.8758606656401
496,1438347119215,26.1585917324247
497,1438347119989,27.777243445594
498,1438347120754,47.9040163191458
499,1438347121475,63.35802333129
500,1438347122187,41.9259748246502
501,1438347122912,33.2865978427584
502,1438347123629,41.4102087643926
503,1438347124361,24.2175815561638
504,1438347125077,19.8002643706705
505,1438347125779,53.5280459363556
506,1438347126431,25.1839985657926
507,1438347127103,24.5237332165556
508,1438347127863,47.4525073539387
509,1438347128528,23.3251262603972
510,1438347129261,35.3808404139791
511,1438347129991,34.4300366067518
512,1438347130701,31.264091420183
513,1438347131425,28.1831716845288
514,1438347132138,23.4097610674687
515,1438347132882,23.1018342311306
516,1438347133571,44.1477249290777
517,1438347134240,20.2670378277081
518,1438347135014,18.9631442781131
519,1438347135747,19.0354824004733
520,1438347136487,16.0342823101748
521,1438347137238,21.0795422391826
522,1438347137960,17.2701613882121
523,1438347138735,18.0461873915032
524,1438347139402,21.0303223879413
525,1438347140072,22.276105358312
526,1438347140814,16.9318528713625
527,1438347141537,12.2120158296615
528,1438347142243,35.6239908306095
529,1438347142984,37.8839487648748
530,1438347143728,14.7431027588
531,1438347144461,11.2499964497719
532,1438347145208,12.9049110428903
533,1438347145938,7.47009090291809
534,1438347146670,7.33736510582093
535,1438347147335,11.8847677961197
536,1438347148074,22.9418125293863
537,1438347148822,12.5500573697921
538,1438347149501,12.3293482842202
539,1438347150192,14.4852666977925
540,1438347150847,13.6551023013203
541,1438347151562,25.9678881001322
542,1438347152272,18.2833267831779
543,1438347152952,35.7885580135426
544,1438347153646,41.1413148608151
545,1438347154368,16.2256765887736
546,1438347155101,16.6236564210401
547,1438347155845,15.8154765399911
548,1438347156578,22.1293949031817
549,1438347157317,44.6563638778898
550,1438347158067,55.0964507206523
551,1438347158793,45.9055710786348
552,1438347159518,53.9294665715682
553,1438347160182,31.6080504342125
554,1438347160892,55.8942891388549
555,1438347161655,40.5271522868226
556,1438347162383,39.3282918402422
557,1438347163107,29.3280646069199
558,1438347163846,28.2991537667405
559,1438347164588,52.0815440052683
560,1438347165314,24.8093077017107
561,1438347166092,19.6497350025092
562,1438347166807,19.7179119681923
563,1438347167542,43.0508585488193
564,1438347168299,42.3534457716076
565,1438347168981,22.0234454469687
566,1438347169695,17.722267267468
567,1438347170480,57.8255669578498
568,1438347171145,36.1995259740653
569,1438347171873,31.2574750608053
570,1438347172642,33.8082079053567
571,1438347173352,65.2079092507015
572,1438347174164,36.2573993699555
573,1438347174895,58.7483149234232
574,1438347175552,25.8756254363309
575,1438347176339,24.7745468465923
