id,attr_time,attr_db
1,1438346754483,19.6669407730102
2,1438346755214,23.5077645446327
3,1438346755960,38.488543787728
4,1438346756738,43.0167898946918
5,1438346757453,62.0884956052345
6,1438346758162,71.6959090940217
7,1438346758877,42.0906118054582
8,1438346759597,61.7881601516335
9,1438346760260,37.0386458357296
10,1438346760990,47.3056577169555
11,1438346761797,31.6926966417402
12,1438346762543,33.2925124329941
13,1438346763250,27.1038528237713
14,1438346764013,52.1161682277725
15,1438346764719,45.9057188406784
16,1438346765447,29.3925850000546
17,1438346766188,24.9882335205041
18,1438346766984,25.2661420655592
19,1438346767729,17.7112181194627
20,1438346768405,14.319677338358
21,1438346769140,10.7512337178332
22,1438346769889,16.8716930393087
23,1438346770608,14.5293358925592
24,1438346771366,11.5384173896678
25,1438346772093,19.8505593621326
26,1438346772821,13.4368080332218
27,1438346773551,33.0019885392968
28,1438346774265,15.2262718677849
29,1438346774998,11.0250304574918
30,1438346775774,13.029495290879
31,1438346776486,30.8474565590097
32,1438346777219,9.90277726444559
33,1438346777942,19.345957770869
34,1438346778679,44.393618430126
35,1438346779404,8.36498827908479
36,1438346780166,38.3315486922551
37,1438346780774,20.4167313676767
38,1438346781439,23.5376827164382
39,1438346782163,23.7742767134318
40,1438346782869,31.6864777926776
41,1438346783590,42.933776189961
42,1438346784281,40.6189582346734
43,1438346784960,40.9857904581217
44,1438346785700,46.2805890445412
45,1438346786430,36.1339480338565
46,1438346787154,34.7259707954554
47,1438346787862,16.661284337804
48,1438346788592,19.6229842328028
49,1438346789333,48.8435448988309
50,1438346790095,25.6646060583344
51,1438346790867,41.3158536100843
52,1438346791587,41.046185987868
53,1438346792300,29.3836217259246
54,1438346793053,22.3426924274399
55,1438346793805,43.8268698591413
56,1438346794530,39.424583518032
57,1438346795240,24.2346046479601
58,1438346795945,30.2935518012831
59,1438346796610,18.169239926878
60,1438346797326,18.1913603902005
61,1438346797953,17.0311701878453
62,1438346798620,17.2038294836675
63,1438346799300,18.6900090196564
64,1438346800020,34.8658995398903
65,1438346800747,43.0154170224207
66,1438346801437,19.5942033765071
67,1438346802108,29.0974799958389
68,1438346803634,14.8063482585129
69,1438346804313,45.9981108267063
70,1438346805038,42.9032752818904
71,1438346805794,36.9622933803682
72,1438346806505,34.3994074905341
73,1438346807215,37.9683962200039
74,1438346807964,18.8628181874682
75,1438346809536,28.0082050154722
76,1438346810198,20.2126980911913
77,1438346810910,37.8716104943436
78,1438346811631,19.2428587542941
79,1438346812372,27.8207284546474
80,1438346813123,25.4838594451311
81,1438346813809,27.1189605044296
82,1438346814462,37.6442711053353
83,1438346815099,28.628667397442
84,1438346816614,23.0245547917503
85,1438346817283,20.2390242669896
86,1438346818024,51.6571606923987
87,1438346818776,49.9940529106818
88,1438346819492,23.5645708102228
89,1438346820202,18.0638442349251
90,1438346821552,15.3254048060285
91,1438346822217,20.7655742395689
92,1438346822937,29.5627988988432
93,1438346823701,22.6925535018761
94,1438346824391,37.1754626098827
95,1438346825097,25.5402900762572
96,1438346825815,41.8468809419847
97,1438346826535,28.588184441064
98,1438346827250,31.2900331595871
99,1438346827976,27.5823498897273
100,1438346828710,19.485060393549
101,1438346829438,23.0700153388915
102,1438346830159,21.288191376712
103,1438346830909,36.6373579604765
104,1438346831638,37.6068483255024
105,1438346832355,25.0813166370601
106,1438346833092,24.7619467076025
107,1438346833835,18.9692964268854
108,1438346834558,22.0203576460485
109,1438346835281,18.4053654841197
110,1438346836005,17.1424788144414
111,1438346836761,20.8263096861445
112,1438346837491,14.3615223558494
113,1438346838235,20.0111505955591
114,1438346838972,12.4565543547202
115,1438346839733,8.76948591380301
116,1438346840449,25.3629579397399
117,1438346841063,19.785926234451
118,1438346841746,34.4570048695003
119,1438346842464,12.4537129932059
120,1438346843180,36.4633085639862
121,1438346843893,53.6477650390847
122,1438346844629,33.0383282056007
123,1438346845337,20.9831057758775
124,1438346846013,19.8705331059604
125,1438346846779,40.6315703670755
126,1438346847497,19.1063036671891
127,1438346848220,26.0970001934232
128,1438346848955,49.8426870810632
129,1438346849725,45.113894986021
130,1438346850458,29.2031255880952
131,1438346851208,29.6507694355204
132,1438346851912,35.3509094976656
133,1438346852665,34.2428791204796
134,1438346853382,36.2775374107359
135,1438346854063,28.4689968285689
136,1438346854732,32.5868195888138
137,1438346855480,34.5038498813928
138,1438346856204,30.1110653357919
139,1438346856948,32.4481932332581
140,1438346857684,35.5224633258678
141,1438346858443,32.8034686736149
142,1438346859157,29.2958441040272
143,1438346859876,27.0590775042598
144,1438346860648,22.660845130781
145,1438346861378,22.7784490492869
146,1438346862048,25.3319640338286
147,1438346862788,22.5474154266263
148,1438346863489,16.8207980082667
149,1438346864212,36.1659645582071
150,1438346864927,45.3325063573149
151,1438346865593,46.0694819416064
152,1438346866265,37.110645366092
153,1438346866977,19.8319629435806
154,1438346867745,18.8116509874247
155,1438346868480,25.0018219429101
156,1438346869217,38.2718655673635
157,1438346869945,43.1363382166378
158,1438346870710,24.5672503396912
159,1438346871427,19.5455960662101
160,1438346872148,41.2934942083922
161,1438346872875,20.7747950090114
162,1438346873582,20.039912015794
163,1438346874320,37.5262934594991
164,1438346875051,53.3198126610765
165,1438346875837,23.5155950091488
166,1438346876565,22.7821044305642
167,1438346877255,34.9030615127215
168,1438346877984,23.5081397245349
169,1438346878738,33.0761364986638
170,1438346879455,23.4711586167807
171,1438346880162,51.0508934771906
172,1438346880886,22.3931693143451
173,1438346881594,30.214643009039
174,1438346882179,25.3462125006454
175,1438346882851,53.686517786464
176,1438346883566,47.5695622431558
177,1438346884298,40.3949036570352
178,1438346885066,34.2987768015028
179,1438346885736,18.8535135596346
180,1438346886330,18.6172156109762
181,1438346887057,17.6787297271089
182,1438346887815,46.2637253632611
183,1438346888570,40.5671307166201
184,1438346889312,42.7484445988199
185,1438346890062,30.3183582752073
186,1438346890811,53.9087966403232
187,1438346891546,21.4555386724146
188,1438346892262,44.4081971854865
189,1438346892969,23.6195976096251
190,1438346893697,57.5197300820003
191,1438346894430,32.8913829327691
192,1438346895162,34.2041630726776
193,1438346895910,52.5983856701922
194,1438346896684,26.5817207448993
195,1438346897411,26.1586080336534
196,1438346898133,29.7401077383645
197,1438346898855,28.0693947541937
198,1438346899603,59.4664121428523
199,1438346900325,55.7317292738275
200,1438346901071,45.3156349565912
201,1438346901807,26.856879815894
202,1438346902453,40.5986998637341
203,1438346903122,26.8516842918146
204,1438346903775,28.6185239207379
205,1438346904499,24.6649160758157
206,1438346905239,46.2937730559797
207,1438346906013,50.13988990351
208,1438346906659,32.967870973276
209,1438346907372,22.3767661289639
210,1438346908109,56.1476875732934
211,1438346908849,23.2173347950428
212,1438346909537,46.8931641512433
213,1438346910123,46.3160945461088
214,1438346910791,55.985589770888
215,1438346911528,23.5182720573181
216,1438346912248,47.7518795410016
217,1438346912989,18.7307578925921
218,1438346913741,40.0041011503836
219,1438346914450,27.5466214060028
220,1438346915173,21.0246776666292
221,1438346915886,33.3875710375364
222,1438346916612,31.5609271854218
223,1438346917335,40.1120457147808
224,1438346918068,45.1302698627822
225,1438346918827,32.1184237323683
226,1438346919538,28.9130323455386
227,1438346920284,34.4060156934927
228,1438346921057,37.383942548126
229,1438346921811,29.5004234823389
230,1438346922526,43.1397733092708
231,1438346923239,39.9264345561643
232,1438346923974,42.9822753660512
233,1438346924721,32.3263227870356
234,1438346925430,50.6645798543455
235,1438346926230,28.3105758040275
236,1438346926888,42.2020082572963
237,1438346927639,40.7505029345077
238,1438346928404,21.9556513317784
239,1438346929120,33.5000547693542
240,1438346929872,32.2289531401952
241,1438346930509,51.1925260158154
242,1438346931246,43.9423714188424
243,1438346931968,31.2108286677628
244,1438346932704,22.0514277677307
245,1438346933438,25.0708306070896
246,1438346934160,43.6388684690765
247,1438346934873,47.3785751690522
248,1438346935606,23.8763338884308
249,1438346936381,48.3371551756304
250,1438346937121,48.9332025299566
251,1438346937850,51.1823112203118
252,1438346938586,48.2501230145636
253,1438346939324,44.7373209179291
254,1438346940054,25.2789063347887
255,1438346940804,41.8638666739559
256,1438346941542,27.7271985111723
257,1438346942232,36.3609430463466
258,1438346942850,49.841739674951
259,1438346943520,51.8333925925062
260,1438346944238,50.4339810949777
261,1438346944943,29.5387431698271
262,1438346945710,42.2573391899595
263,1438346946531,25.9284115454393
264,1438346947179,35.0302463854476
265,1438346947846,50.6825508630088
266,1438346948580,60.6005758032921
267,1438346949310,53.2907405517135
268,1438346950038,42.8615449205187
269,1438346950846,59.0251462422052
270,1438346951612,22.7031294912336
271,1438346952361,33.8918232873062
272,1438346953082,56.6956898158125
273,1438346953824,22.6274026702426
274,1438346954545,45.6613354292861
275,1438346955270,24.6084252293208
276,1438346956140,25.3636241928244
277,1438346956927,29.1296856121324
278,1438346957672,27.1412945419467
279,1438346958389,25.321202157929
280,1438346959129,29.7078924496108
281,1438346959869,31.6557298866368
282,1438346960599,28.1367279236357
283,1438346961310,25.2241711151654
284,1438346962032,47.6011761562458
285,1438346962794,26.788995055612
286,1438346963477,24.2401383421961
287,1438346964177,23.0011052844706
288,1438346964905,27.222754129325
289,1438346965657,25.3865160336331
290,1438346966388,25.2267872650598
291,1438346967065,27.6878927384538
292,1438346967756,25.2870737877299
293,1438346968477,44.1258630905109
294,1438346969192,42.2551820138644
295,1438346969911,45.6314671130986
296,1438346970671,21.3545432632757
297,1438346971406,20.9537539206569
298,1438346972122,23.4765636940882
299,1438346972854,24.8990431309292
300,1438346973576,43.9103742865285
301,1438346974331,31.1438195320184
302,1438346975059,27.6052839330575
303,1438346975824,50.332057317862
304,1438346976591,64.3311619838438
305,1438346977315,25.294611171661
306,1438346978026,25.7490189973833
307,1438346978786,30.7467127060251
308,1438346979508,21.096120601481
309,1438346980249,23.8983422140127
310,1438346980977,36.2238827758868
311,1438346981820,54.6023383172222
312,1438346982534,45.1758487103162
313,1438346983258,59.5451511312774
314,1438346983974,22.224611240756
315,1438346984718,24.2986093307321
316,1438346985423,23.7094613444815
317,1438346986136,43.4758269488439
318,1438346986919,22.4347789273777
319,1438346987650,21.1716706523755
320,1438346988478,45.1730092477088
321,1438346989219,33.1550844147907
322,1438346989962,26.7344097837338
323,1438346990722,34.3447899499843
324,1438346991534,55.0855921689709
325,1438346992254,36.8884183875707
326,1438346992984,23.497607138018
327,1438346993745,17.6257199215302
328,1438346994468,18.8585640541142
329,1438346995175,26.100247591022
330,1438346995905,27.5001720182178
331,1438346996675,27.7554334551538
332,1438346997385,28.724538503607
333,1438346998116,43.4863945491515
334,1438346998837,50.0256897050571
335,1438346999569,20.2328102005452
336,1438347000273,17.7772904702595
337,1438347001062,22.7082565463551
338,1438347001829,55.4569187583763
339,1438347002480,14.2254120613696
340,1438347003179,34.5675906606552
341,1438347003785,41.3301976506868
342,1438347004480,44.4990575482955
343,1438347005204,28.333742678453
344,1438347005883,33.3479730148116
345,1438347007706,24.3823579337151
346,1438347008416,21.4164230021084
347,1438347009142,24.8806339357283
348,1438347009872,28.6949898339306
349,1438347010616,19.8756090006274
350,1438347011362,17.1821698035599
351,1438347012112,16.9778071014226
352,1438347012859,25.398405252034
353,1438347013588,15.8112121312786
354,1438347014326,26.6634565508609
355,1438347015065,19.043648140676
356,1438347015796,21.0176347485953
357,1438347017764,30.6094432034221
358,1438347018464,51.082174500681
359,1438347019102,26.4589956696362
360,1438347019787,41.204835558111
361,1438347020584,15.6722730641317
362,1438347021342,49.2781607237253
363,1438347022091,22.5238731751949
364,1438347022821,37.8166783755139
365,1438347023515,42.2417748462348
366,1438347024176,17.2253320112789
367,1438347024899,21.1784519253776
368,1438347025728,14.0659367646288
369,1438347026558,11.3318810082932
370,1438347027268,16.1654791548835
371,1438347027969,13.526399207457
372,1438347028725,26.6984991091695
373,1438347029453,25.4322013088158
374,1438347030171,22.8440341275467
375,1438347030888,20.7894153233044
376,1438347032862,19.9048517490571
377,1438347033578,22.6617356172902
378,1438347034306,22.4772155739237
379,1438347035047,22.4970124277341
380,1438347035858,21.0759510258901
381,1438347036584,22.9360234975621
382,1438347037317,25.9308831745611
383,1438347038057,38.9027587364341
384,1438347038809,25.0018266558794
385,1438347039526,23.3159702557266
386,1438347040222,54.9896961197764
387,1438347041762,43.6134405937672
388,1438347042495,35.4367973605163
389,1438347043244,25.7536141032375
390,1438347043982,28.2662297752725
391,1438347044646,26.2774514786943
392,1438347045385,53.4554188819492
393,1438347046114,45.0467670636515
394,1438347046848,32.9347331416085
395,1438347047568,34.9994714395861
396,1438347048256,27.4594620385074
397,1438347048940,51.2033458306493
398,1438347049677,41.1746219011738
399,1438347050399,37.9841521367586
400,1438347051141,37.1281119528289
401,1438347051884,44.0925483320787
402,1438347052617,37.3408674904666
403,1438347053345,40.884179514374
404,1438347054085,38.1621868549297
405,1438347054812,55.8480813571608
406,1438347055536,37.6616514618542
407,1438347056318,31.8613399390121
408,1438347057054,35.5901864642411
409,1438347057832,47.8499675244649
410,1438347058555,34.2387391365635
411,1438347059275,43.856047282309
412,1438347060005,35.9034414201358
413,1438347060722,32.7088728557564
414,1438347061399,52.0803678338533
415,1438347062135,50.0153455159049
416,1438347062866,46.0138342776115
417,1438347063565,37.847367945201
418,1438347064288,51.1489855013496
419,1438347064939,41.4982453666025
420,1438347065673,45.3865463817763
421,1438347066515,24.3783947426634
422,1438347067246,20.4952929549674
423,1438347067955,19.8128608951111
424,1438347068726,36.3224655287272
425,1438347069403,41.1494897083166
426,1438347070131,47.3804705938234
427,1438347070912,50.4955277749248
428,1438347071736,40.3751349664729
429,1438347072390,53.9687625306742
430,1438347073016,56.0576641129559
431,1438347073691,45.694395766568
432,1438347074382,39.7325209477279
433,1438347075116,32.3298847434524
434,1438347075826,52.4923179030153
435,1438347076555,31.0648533465135
436,1438347077185,27.4739803593795
437,1438347077856,30.5379357353508
438,1438347078608,29.0086819465128
439,1438347079326,29.0141241135122
440,1438347080060,29.5836001008125
441,1438347080826,43.3142982830461
442,1438347081541,49.6520481146572
443,1438347082254,38.6911879556377
444,1438347082987,24.926068596969
445,1438347083768,30.9411132796911
446,1438347084465,30.9800864498782
447,1438347085125,20.3518822623719
448,1438347085828,11.5256048772044
449,1438347086612,19.6964812955858
450,1438347087333,14.0387818389193
451,1438347088055,16.418393456876
452,1438347088809,11.3887262570708
453,1438347089469,15.2801444270423
454,1438347090189,13.1948956336341
455,1438347090916,19.1482315250382
456,1438347091672,19.42253154994
457,1438347092345,21.9780660273396
458,1438347093037,22.6213176868224
459,1438347093765,21.5004709512484
460,1438347094491,21.6378688539586
461,1438347095215,58.0492316564611
462,1438347095954,24.4084585350763
463,1438347096660,36.9222633478777
464,1438347097372,29.7713773478995
465,1438347098064,46.0661020096442
466,1438347098792,38.0960585220873
467,1438347099524,30.1149964467299
468,1438347100242,47.7639764657831
469,1438347100969,37.1391950848005
470,1438347101814,27.0322102868434
471,1438347102537,22.9416472875802
472,1438347103254,26.8173556322191
473,1438347103990,28.6474878548238
474,1438347104734,26.9853435820199
475,1438347105400,25.2488716026968
476,1438347106198,24.43954456921
477,1438347106915,24.4676478301167
478,1438347107679,26.7427277645607
479,1438347108398,27.7870684947144
480,1438347109061,46.2743620612637
481,1438347109742,45.3735766296066
482,1438347110480,41.7497276427295
483,1438347111211,41.5395456416531
484,1438347111940,31.999976299083
485,1438347112660,25.4927719377192
486,1438347113336,43.8889274483661
487,1438347114079,24.7780380368904
488,1438347114824,22.4860673530319
489,1438347115546,25.3037483746626
490,1438347116271,27.8815335857645
491,1438347116905,67.6817197283237
492,1438347117645,38.5976885343316
493,1438347118350,28.3655336363825
494,1438347119074,27.0073404630334
495,1438347119816,30.9099919940788
496,1438347120542,67.058333634896
497,1438347121365,54.9040021781548
498,1438347122136,35.9400161129287
499,1438347122855,49.1065049737254
500,1438347123561,50.5006224429886
501,1438347124289,33.2581075948576
502,1438347125024,24.4857803109611
503,1438347125654,46.5759705454784
504,1438347126346,27.2121045431362
505,1438347127078,27.8074439329058
506,1438347127832,54.9117688915903
507,1438347128559,27.9297247616845
508,1438347129272,40.4820187801673
509,1438347129942,26.6507307470189
510,1438347130697,34.4419357838428
511,1438347131415,31.286927839888
512,1438347132138,29.9691022499648
513,1438347132868,25.9807217005283
514,1438347133625,41.4494437925362
515,1438347134358,24.2715659219006
516,1438347135117,19.6016584161557
517,1438347135878,19.9098206603598
518,1438347136624,23.0511395786799
519,1438347137369,25.3588015221372
520,1438347138102,21.8090836557573
521,1438347138828,21.9634786190854
522,1438347139545,26.2410523745715
523,1438347140247,25.3645033597444
524,1438347140953,17.652323378992
525,1438347141689,14.3381375540422
526,1438347142414,45.91495179689
527,1438347143153,42.8548911678817
528,1438347143878,8.46945002690373
529,1438347144628,12.2596556613196
530,1438347145355,18.1345429183688
531,1438347146025,11.0239039012233
532,1438347146762,17.4423034664163
533,1438347147483,16.2603417281445
534,1438347148194,29.436198980219
535,1438347148901,23.9565616871181
536,1438347149641,16.2790165078261
537,1438347150357,23.6429847354035
538,1438347151101,17.7943653491554
539,1438347151840,17.3493064288755
540,1438347152565,28.6637283515286
541,1438347153300,37.7653421197762
542,1438347154037,20.1991304071548
543,1438347154817,16.5349955810451
544,1438347155536,24.7520267069376
545,1438347156322,25.7912625945115
546,1438347157059,46.9172078294565
547,1438347157818,45.5618148905506
548,1438347158536,29.2555126161223
549,1438347159255,55.9621435896712
550,1438347159987,53.9608162416354
551,1438347160836,37.4874985742184
552,1438347161566,47.0990807035165
553,1438347162304,42.4951159565758
554,1438347163038,34.7151064231586
555,1438347163794,30.4606375066417
556,1438347164534,61.3820432184748
557,1438347165273,34.5573279834135
558,1438347165930,23.3407616569346
559,1438347166698,26.1219220639366
560,1438347167414,45.8426459257538
561,1438347168134,29.6476105840049
562,1438347168919,22.0254237422907
563,1438347169647,23.3179832424692
564,1438347170321,61.7800439048237
565,1438347171040,47.1739445608819
566,1438347171881,22.8848144558293
567,1438347172617,41.6269894496547
568,1438347173359,62.8536074731406
569,1438347174112,36.9329290982209
570,1438347174854,39.5568231781254
571,1438347175548,32.4713096667937
572,1438347176201,34.5877925969416
573,1438347176897,43.6250806792932
574,1438347177664,54.0955239061116
575,1438347178378,45.098022993575
