id,attr_time,attr_db
1,1438346754201,16.2180134451016
2,1438346754921,16.4987517034913
3,1438346755656,32.0029588917534
4,1438346756384,33.2343201045141
5,1438346757127,51.0408396265918
6,1438346757894,57.6007008893003
7,1438346758629,56.8559888328588
8,1438346759344,67.3337691799758
9,1438346760081,56.2491567137725
10,1438346760830,58.6722674738702
11,1438346761541,56.6909408109042
12,1438346762182,44.1923616903692
13,1438346762861,42.3654430669016
14,1438346763603,37.275811682114
15,1438346764322,46.8230489629677
16,1438346765042,31.4730250444323
17,1438346765809,34.3130071340377
18,1438346766519,25.4462574329006
19,1438346767191,26.1483169999563
20,1438346767918,13.8406328487847
21,1438346768665,12.2740768660902
22,1438346769384,9.44733281157811
23,1438346770110,7.50724922719666
24,1438346770852,6.38727139218696
25,1438346771646,12.7496039486281
26,1438346772452,33.0355420265265
27,1438346773163,35.4573774940311
28,1438346773906,18.9046066615378
29,1438346774531,17.5486332332978
30,1438346775273,16.9987096452797
31,1438346776008,52.0771069478904
32,1438346776752,39.1083178321899
33,1438346777448,11.5163054672208
34,1438346778107,7.46841554566764
35,1438346778816,35.8247007866072
36,1438346779530,13.4601260957696
37,1438346780239,32.9144250046553
38,1438346781008,24.5927991108057
39,1438346781740,48.826211322087
40,1438346782466,25.3832235785969
41,1438346783139,22.8616548621333
42,1438346783867,37.6330398700374
43,1438346784631,39.4510224133537
44,1438346785336,28.8696530135025
45,1438346786044,43.1866085594136
46,1438346786809,19.4627014157292
47,1438346787535,16.4492550532702
48,1438346788253,16.4962425682368
49,1438346788987,30.9745719170121
50,1438346789844,36.9128397708066
51,1438346790567,26.7175434630785
52,1438346791284,32.6360010290399
53,1438346792000,37.7429872785844
54,1438346792759,33.7027827492999
55,1438346793490,58.8540513809839
56,1438346794240,45.0977176640244
57,1438346794995,19.5118326604583
58,1438346795753,16.2813524816064
59,1438346796473,25.5061274785183
60,1438346797217,20.9545283389792
61,1438346797954,16.4892213886793
62,1438346798716,19.2828445543952
63,1438346799432,17.4551342345875
64,1438346800172,45.9893320880599
65,1438346800909,58.5461849564487
66,1438346801652,16.0150325780304
67,1438346802354,36.7720916869484
68,1438346803008,40.3065106309831
69,1438346803780,10.9499053635922
70,1438346804524,46.1862253405055
71,1438346805231,49.4948823419876
72,1438346805965,36.5276111460215
73,1438346806731,40.0469193132325
74,1438346807419,31.4243155047622
75,1438346808146,19.4143489906336
76,1438346808969,35.470937679922
77,1438346809750,22.4498972111611
78,1438346810470,21.9403759556705
79,1438346811207,25.8255226061409
80,1438346811948,17.8614670013394
81,1438346812700,22.4550591804526
82,1438346813450,23.7378562281584
83,1438346814181,20.5308745573414
84,1438346814932,34.0319831931983
85,1438346815636,23.7192248177197
86,1438346816382,22.8620780646137
87,1438346817135,22.6124522007438
88,1438346817880,43.8247080020731
89,1438346818674,43.964685788991
90,1438346819345,32.4371844612067
91,1438346820039,13.8294605481106
92,1438346820792,16.3193894199483
93,1438346821504,27.9573483221718
94,1438346822260,18.6516004656278
95,1438346822995,44.5936302792661
96,1438346823576,38.4853513214721
97,1438346824254,36.980592899255
98,1438346824974,17.6163209195575
99,1438346825726,42.1271991424984
100,1438346826441,29.7195313186663
101,1438346827149,20.9534099921279
102,1438346827799,21.7284878197756
103,1438346828566,18.0022631998883
104,1438346829278,19.4896896585086
105,1438346830027,18.7870430337305
106,1438346830808,26.4973949015493
107,1438346831538,35.081912266932
108,1438346832332,17.5704281593625
109,1438346833098,28.1706279298144
110,1438346833828,13.5163983397547
111,1438346834443,22.3382788813443
112,1438346835133,14.3018225474245
113,1438346835897,9.6416187598609
114,1438346836652,12.6975434502353
115,1438346837385,6.98520271039667
116,1438346838139,6.0336725146707
117,1438346838887,3.43932244962075
118,1438346839603,5.64370472486369
119,1438346840291,5.27197127646738
120,1438346841013,7.80718398399323
121,1438346841749,29.6346444251443
122,1438346842494,9.32293445068809
123,1438346843250,39.3871215548538
124,1438346843948,42.8684531772329
125,1438346844615,26.1235119431264
126,1438346845326,30.0331115052629
127,1438346846057,17.7135164269252
128,1438346846828,42.7697644585446
129,1438346847542,12.1556036787014
130,1438346848203,15.3084775016101
131,1438346848920,51.4305362479137
132,1438346849687,45.33169538209
133,1438346850426,24.9738467409749
134,1438346851158,23.3004567029679
135,1438346851908,24.8675810645108
136,1438346852643,25.9810512020481
137,1438346853360,45.3279401593659
138,1438346854105,26.7128492885132
139,1438346854768,25.8000665189028
140,1438346855526,27.951808278931
141,1438346856248,20.4971596526648
142,1438346856988,35.5603588427566
143,1438346857695,26.891486218981
144,1438346858300,27.0319656998802
145,1438346859016,24.9034782631376
146,1438346859764,21.8586665560901
147,1438346860497,16.4534659387186
148,1438346861235,18.6321219219936
149,1438346861962,18.374291494895
150,1438346862716,37.4946842543693
151,1438346863439,13.8187073847379
152,1438346864150,11.1140113545214
153,1438346864876,60.457348003853
154,1438346865598,41.3852964772874
155,1438346866345,30.3747077235461
156,1438346867102,11.746307490555
157,1438346867865,15.5938347396304
158,1438346868527,13.5772294726611
159,1438346869343,26.5220439656136
160,1438346870087,42.0431595455093
161,1438346870856,10.5405800959446
162,1438346871580,9.33300650821684
163,1438346872317,49.4103187399102
164,1438346873037,15.2514871319729
165,1438346873834,20.1343713628498
166,1438346874567,33.8135308290924
167,1438346875294,40.7878689085503
168,1438346876043,18.1297022083183
169,1438346876817,20.7449169654264
170,1438346877516,58.2043648218376
171,1438346878208,20.4647119509843
172,1438346878878,26.0737180248826
173,1438346879480,23.6638332956448
174,1438346880127,54.6692699877393
175,1438346880843,30.1328059366052
176,1438346881570,18.2040204340137
177,1438346882292,12.8046759165427
178,1438346882989,56.4334148544579
179,1438346883715,44.2848702542869
180,1438346884293,34.055591711482
181,1438346884930,12.1808847032776
182,1438346885571,12.2695573361101
183,1438346886283,14.2886980273094
184,1438346886995,17.4805024092652
185,1438346887734,47.4599016693307
186,1438346888444,53.7184011855016
187,1438346889096,14.4031983010622
188,1438346889863,16.317779997058
189,1438346890549,45.0985411205849
190,1438346891278,26.6910515175219
191,1438346891999,47.7087265396356
192,1438346892746,18.6527565056937
193,1438346893459,39.4357660948566
194,1438346894216,40.4760503970837
195,1438346894943,34.8697562704351
196,1438346895667,28.7627753901862
197,1438346896334,22.87978852154
198,1438346897063,22.0562817592571
199,1438346897812,22.5609763942676
200,1438346898526,26.0187024420986
201,1438346899245,34.976986316881
202,1438346899974,33.6682795816703
203,1438346900727,45.8888036497382
204,1438346901446,55.3653008978964
205,1438346902160,32.0082168393824
206,1438346902886,45.6236256993518
207,1438346903617,30.5676703840625
208,1438346904370,21.7160173392501
209,1438346905040,40.9009839738611
210,1438346906400,36.2947714122133
211,1438346907113,19.0884669638544
212,1438346907856,19.6201682428396
213,1438346908572,20.7138369336254
214,1438346909238,41.3982043875159
215,1438346909965,32.3436262873293
216,1438346910718,40.6925784928623
217,1438346911436,18.3117122105139
218,1438346912174,42.6897622336149
219,1438346912910,32.227408552616
220,1438346913645,33.0267093838378
221,1438346914366,38.8997128108566
222,1438346916292,47.6816340982083
223,1438346917042,10.346867046446
224,1438346917789,33.0348047985953
225,1438346918515,35.4257700185981
226,1438346919235,39.956309220291
227,1438346919977,17.1367382989863
228,1438346920748,40.0243241643846
229,1438346921479,37.6277689760374
230,1438346922217,43.9452216281744
231,1438346922929,37.1400020180546
232,1438346923670,37.8738950896903
233,1438346924491,36.0145149592778
234,1438346925158,27.0599140515233
235,1438346925890,38.7330212312337
236,1438346926630,50.2806102214711
237,1438346927336,17.8922508575522
238,1438346928051,16.1055626041481
239,1438346928808,16.9095334130527
240,1438346929527,17.0938267107445
241,1438346931725,32.2473113617976
242,1438346932471,19.9157565141147
243,1438346933214,20.2504104349905
244,1438346934005,18.9406689577541
245,1438346934749,32.4208607153124
246,1438346935472,23.1105669430024
247,1438346936094,58.6033827829
248,1438346936791,32.3723309888442
249,1438346937510,60.3116836377205
250,1438346938239,32.6198034773722
251,1438346940088,18.9208871299357
252,1438346940756,23.636175063909
253,1438346941487,21.5036601379083
254,1438346942214,28.8528331178453
255,1438346942924,54.3083945657973
256,1438346943669,58.4871820628288
257,1438346944369,53.9339540642334
258,1438346945004,34.9631285460322
259,1438346945694,37.4938489020097
260,1438346946430,21.4868338334853
261,1438346947159,22.1913780070726
262,1438346947932,44.6483354912721
263,1438346948704,38.6344459124068
264,1438346949370,41.5526501891176
265,1438346950127,36.9405210725435
266,1438346950859,52.5289082881264
267,1438346951602,16.980962881334
268,1438346952331,19.2472543705764
269,1438346953074,36.3425428338521
270,1438346953852,17.7668614990877
271,1438346954745,27.9708766706712
272,1438346955451,17.5315637339821
273,1438346956192,18.0137858853188
274,1438346956921,17.1736013941434
275,1438346957664,17.8891320152959
276,1438346958437,21.9292604850535
277,1438346959174,23.3185332164404
278,1438346959908,25.2818781780198
279,1438346960652,21.4288242325058
280,1438346961386,22.0669073989312
281,1438346962135,42.1378677619549
282,1438346962897,22.8418758744264
283,1438346963633,25.3810006114467
284,1438346964362,21.4359926532587
285,1438346965055,39.9584490350404
286,1438346965645,24.4053889961251
287,1438346966257,20.8154491845977
288,1438346966989,21.1072121127654
289,1438346967735,19.2431833423346
290,1438346968544,18.9071183412628
291,1438346969279,51.488230501964
292,1438346970022,40.3651103766464
293,1438346970769,15.4724491371677
294,1438346971497,15.6574854029009
295,1438346972223,17.2647156229964
296,1438346972958,21.2913554872879
297,1438346973704,48.1765458428642
298,1438346974435,23.9940158052465
299,1438346975170,32.9905409244205
300,1438346975929,55.5881519376335
301,1438346976678,51.7079370214739
302,1438346977392,17.5531346010953
303,1438346978129,19.01007107298
304,1438346978869,17.7512743966967
305,1438346979584,15.3302111907156
306,1438346980324,18.0288684797188
307,1438346981050,43.7591424042215
308,1438346981825,36.1234966667178
309,1438346982464,20.1504762732381
310,1438346983155,26.1273703106132
311,1438346983971,17.6732323842137
312,1438346984709,13.8305433374073
313,1438346985436,16.513051261703
314,1438346986163,36.1802645666056
315,1438346986967,11.9209549320707
316,1438346987697,15.6694917651611
317,1438346988414,60.3773641944541
318,1438346989105,49.5552751981968
319,1438346989733,34.3328994835273
320,1438346990415,22.7334061533485
321,1438346991151,30.5996188017306
322,1438346991886,32.0841626322864
323,1438346992603,37.0154768531685
324,1438346993278,12.1295487274039
325,1438346993945,11.9854012682622
326,1438346994685,14.2686136743799
327,1438346995413,17.259579033026
328,1438346996150,21.2618587096475
329,1438346996907,23.3390168498129
330,1438346997651,22.3307482824345
331,1438346998381,41.5116705613977
332,1438346999131,36.8474558931803
333,1438346999894,50.2256219045262
334,1438347000607,16.2535665529109
335,1438347001340,43.1278923205272
336,1438347002065,37.2330516521689
337,1438347002833,11.0164534069616
338,1438347003535,10.0615922233595
339,1438347004262,47.5447330210785
340,1438347004984,52.9160249688079
341,1438347005705,12.49030027888
342,1438347006284,7.9274768964027
343,1438347006931,13.224489789365
344,1438347007646,22.7097346874826
345,1438347008351,18.0257019869739
346,1438347009071,16.1090980175596
347,1438347009830,20.5371025485446
348,1438347010548,11.5747442191077
349,1438347011288,13.5872194945152
350,1438347012029,13.3421377544396
351,1438347012834,17.5799062483047
352,1438347013560,12.1935247211593
353,1438347014308,13.8835241583778
354,1438347015040,15.7678929344196
355,1438347015761,17.3814737702644
356,1438347016479,16.2592427861501
357,1438347017190,19.1578072205999
358,1438347017940,13.7837454168845
359,1438347018661,32.7770398783441
360,1438347019421,9.62797383736405
361,1438347020163,7.91306611336112
362,1438347020887,8.3806927696756
363,1438347021644,54.3436535340149
364,1438347022387,30.7340271462682
365,1438347023133,8.26102771383286
366,1438347023893,5.49256928756371
367,1438347024694,29.9390270317295
368,1438347025393,4.59532062429295
369,1438347026142,6.30292998754511
370,1438347026888,3.71694390039978
371,1438347027619,6.92402805024183
372,1438347028360,27.7334223072181
373,1438347029090,7.8456653070093
374,1438347029823,11.9973068325391
375,1438347030525,9.79908388745639
376,1438347031191,10.1350235744992
377,1438347031919,12.3076941597537
378,1438347032670,13.1415122542024
379,1438347033397,16.5114544769118
380,1438347034145,20.1475453068686
381,1438347034901,16.5712705826777
382,1438347035650,17.2228740441434
383,1438347036386,28.9775834730154
384,1438347037109,39.278609779891
385,1438347037862,43.9280132867577
386,1438347038579,29.4593176854218
387,1438347039304,23.0415740976173
388,1438347040040,20.2049901828644
389,1438347040800,40.2191220979501
390,1438347041528,38.0325731687721
391,1438347042245,46.3365105719394
392,1438347042960,14.9290586553585
393,1438347043694,17.754911907106
394,1438347044420,23.3484189583807
395,1438347045090,33.325205897317
396,1438347045844,50.0099847868287
397,1438347046545,33.7997612414144
398,1438347047189,22.4888014138098
399,1438347047907,25.8924138952858
400,1438347048634,21.7601184661253
401,1438347049356,46.0867476780309
402,1438347050110,34.9490933616797
403,1438347050878,40.3945678115018
404,1438347051599,44.6160397760847
405,1438347052297,38.9398565140343
406,1438347053029,39.2372131800263
407,1438347053761,38.8951122774903
408,1438347054483,37.7235697002059
409,1438347055195,44.8496621384086
410,1438347055866,26.9600442302689
411,1438347056618,30.4539527605
412,1438347057347,60.7056008793108
413,1438347058053,54.0465764778775
414,1438347058812,23.2898771598989
415,1438347059547,38.5370943097114
416,1438347060281,40.9293882984868
417,1438347061008,41.9824998596675
418,1438347061764,56.9821503848979
419,1438347062518,57.0487302865753
420,1438347063268,50.4341943614805
421,1438347064024,59.0635065631215
422,1438347064780,14.6269294720682
423,1438347065538,14.3376607832162
424,1438347066242,19.2358242484307
425,1438347066929,18.5492891485516
426,1438347067563,17.2397786294556
427,1438347068209,18.2537876324177
428,1438347068871,32.5165392346157
429,1438347069596,45.1036449294432
430,1438347070297,42.2441278563603
431,1438347070986,34.3299812827016
432,1438347071656,42.5353028087292
433,1438347072386,66.0376598467594
434,1438347073079,58.1782330882666
435,1438347073737,44.5909085212788
436,1438347074450,33.2722349234109
437,1438347075196,29.4663790620765
438,1438347075939,63.5324816424678
439,1438347076677,20.8145652214745
440,1438347077404,21.6297816255813
441,1438347078134,26.2514135248913
442,1438347078837,24.0714557663305
443,1438347079528,20.7863263085701
444,1438347080239,31.4973042621401
445,1438347080971,28.621177959248
446,1438347081734,29.0474161112282
447,1438347082446,43.5325008579243
448,1438347083185,17.29228777444
449,1438347084014,37.3442971954778
450,1438347084776,37.2191057153326
451,1438347085497,8.65274592904683
452,1438347086226,6.31174144114183
453,1438347086954,7.30520183213849
454,1438347087625,7.33023117082581
455,1438347088418,11.0581470041899
456,1438347089097,8.7155874728186
457,1438347089748,11.8495599271441
458,1438347090430,47.4710165976538
459,1438347091169,19.8748506773898
460,1438347091890,14.8811625492897
461,1438347092623,14.1474519799427
462,1438347093339,15.9435117738313
463,1438347094157,13.020091696426
464,1438347094910,13.1859810014602
465,1438347095645,35.161866648092
466,1438347096384,32.2720935816227
467,1438347097107,39.9795704531414
468,1438347097835,18.7587029852382
469,1438347098571,39.0807365818248
470,1438347099186,30.8893922747606
471,1438347099872,15.0871076103261
472,1438347100600,33.7200392439831
473,1438347101323,59.2181590728587
474,1438347102047,45.8263629088177
475,1438347102813,16.4361436211733
476,1438347103604,19.2386739245977
477,1438347104332,17.4141997805832
478,1438347105048,21.0081675355184
479,1438347105814,20.9030256262884
480,1438347106417,22.5444735593873
481,1438347107200,19.9744121982923
482,1438347107800,21.7895064498381
483,1438347108538,24.4591923795839
484,1438347109193,34.285819521051
485,1438347110873,48.1485267911753
486,1438347111586,34.4714783617469
487,1438347112233,35.1122874113008
488,1438347112981,48.5154763057519
489,1438347113733,19.7612077985932
490,1438347114467,17.7868618480282
491,1438347115210,17.2089835464848
492,1438347115904,29.5391564927261
493,1438347116519,24.5324929388751
494,1438347117182,54.1914897924418
495,1438347117862,28.5811676558141
496,1438347118556,25.497581761595
497,1438347119244,24.6871836778565
498,1438347119975,27.2664325993793
499,1438347120719,60.4038489116418
500,1438347121399,49.6202827520515
501,1438347122124,38.312164301963
502,1438347122856,39.8584216142884
503,1438347124528,22.1035829774641
504,1438347125178,18.3339767446392
505,1438347125907,50.1692222778654
506,1438347126644,30.6322730174036
507,1438347127355,24.7107412823487
508,1438347128016,37.8853744106841
509,1438347128716,25.0811646945714
510,1438347129447,27.7682207487044
511,1438347130174,38.4413038055907
512,1438347130936,32.5613538961967
513,1438347131586,23.9522053623747
514,1438347132236,22.7276515515453
515,1438347132995,20.1466639785856
516,1438347133743,38.8286357369846
517,1438347134477,16.1411248471362
518,1438347135216,15.6350892166697
519,1438347136002,13.6889853889228
520,1438347136762,15.6749609994938
521,1438347137543,15.8829067243734
522,1438347138278,16.6855860212687
523,1438347139016,17.6309679430316
524,1438347139748,21.4704925068982
525,1438347140484,17.6076134665526
526,1438347141210,11.255138919083
527,1438347141932,10.4413899304694
528,1438347142673,38.4271134217819
529,1438347143397,19.1913892536695
530,1438347144171,33.6534063541039
531,1438347144903,6.4107418549024
532,1438347145633,12.0512769246583
533,1438347146326,5.12897160859159
534,1438347147948,10.0721453812701
535,1438347148676,9.96946835018867
536,1438347149394,12.2189421531706
537,1438347150135,14.7035943429947
538,1438347150849,11.1098577242972
539,1438347151558,20.4993105265439
540,1438347152246,27.0051710687954
541,1438347152946,31.6878912630873
542,1438347153691,41.0091274831561
543,1438347154518,18.7342752280998
544,1438347155195,15.8665466539908
545,1438347155920,18.5256218596902
546,1438347156646,19.9137701070371
547,1438347157380,41.6497430575624
548,1438347158072,34.4219356690217
549,1438347158749,44.8722049175169
550,1438347160512,29.9342269230298
551,1438347161184,42.5443882581192
552,1438347161922,47.0059285847822
553,1438347162597,41.4320048288981
554,1438347163320,26.6101219287547
555,1438347164059,27.3592895557834
556,1438347164808,41.794713972157
557,1438347165533,21.5468132527771
558,1438347166254,20.5250915966294
559,1438347166972,16.5459815982807
560,1438347167723,32.9850476106492
561,1438347168413,28.4825052630635
562,1438347169161,31.8555799493291
563,1438347169886,17.1042213483417
564,1438347170604,54.0632617463952
565,1438347171343,24.1895205964814
566,1438347172084,31.0953994399562
567,1438347172773,43.7879754917027
568,1438347173480,63.1213830100548
569,1438347174214,25.9045009487721
570,1438347174938,48.0367263521644
571,1438347175683,22.6835145305546
572,1438347176403,27.2044146593818
573,1438347177137,44.5863399856531
574,1438347177911,53.5053502728115
575,1438347178642,57.5836237340791
