id,attr_time,attr_db
1,1436963023682,36.8340167497556
2,1436963024314,38.0322144770074
3,1436963024997,37.6859874385229
4,1436963025709,37.4758593807444
5,1436963026430,36.9697660851345
6,1436963027126,36.3476496329879
7,1436963027940,62.4807524846491
8,1436963028681,59.7889897169824
9,1436963029415,57.6494169687388
10,1436963030152,58.0366132827144
11,1436963030940,62.2504928809038
12,1436963031586,57.2378460886091
13,1436963032311,52.3778160885384
14,1436963033063,64.9759183747627
15,1436963033786,47.6307858341449
16,1436963034498,72.859571527891
17,1436963035190,60.8191083972016
18,1436963035911,42.2980895407339
19,1436963036635,45.0869226438836
20,1436963037339,39.4833465195515
21,1436963038022,45.0884032362706
22,1436963038761,42.0190627504873
23,1436963039541,47.3705782450143
24,1436963040264,39.7807458022172
25,1436963040978,53.2770237063056
26,1436963041737,43.0703530439554
27,1436963042464,46.2234303642537
28,1436963043177,50.28888316183
29,1436963043897,52.8197067389029
30,1436963044615,57.4315869718992
31,1436963045332,57.0375936414063
32,1436963046059,57.0351113845937
33,1436963046818,36.5732509685693
34,1436963047541,58.7169193679034
35,1436963048297,63.4130518700136
36,1436963049031,59.7575147795372
37,1436963049760,39.0742729890893
38,1436963050486,44.8386225843571
39,1436963051191,55.5366817560054
40,1436963051917,36.7880887361838
41,1436963052656,53.3350439796833
42,1436963053378,51.5098105703422
43,1436963054121,38.954719233145
44,1436963054878,51.7034489527454
45,1436963055515,43.1560251210915
46,1436963056287,35.7005774794627
47,1436963057000,50.2908044012556
48,1436963057750,59.4786209197867
49,1436963058446,36.6226202297952
50,1436963059103,35.7686812199112
51,1436963059759,45.6287895188707
52,1436963060481,36.6784792820197
53,1436963061202,48.9047117968042
54,1436963061941,45.0806024312615
55,1436963062656,57.9226048819572
56,1436963063392,42.2027086473653
57,1436963064134,56.3350082525946
58,1436963064882,44.4396078029563
59,1436963065636,40.0980129793062
60,1436963066309,50.3159760000674
61,1436963067012,42.0769720995353
62,1436963067772,54.8421965746066
63,1436963068494,37.9808039453632
64,1436963069220,59.1941049349648
65,1436963069963,55.7980108932141
66,1436963070620,39.9698629806877
67,1436963071311,52.0419670399554
68,1436963072040,46.1093467777969
69,1436963072783,49.8739052272545
70,1436963073492,34.6876945137753
71,1436963074170,44.9257664882483
72,1436963074895,42.8934758135891
73,1436963075610,36.5348889433843
74,1436963076340,44.3978422239627
75,1436963077072,50.7290277605319
76,1436963077788,40.9631903425017
77,1436963078424,38.1685451896628
78,1436963079050,38.3850017217818
79,1436963080440,35.8977187251881
80,1436963081180,55.5032779721443
81,1436963081881,47.4469492697889
82,1436963082602,37.5570913592368
83,1436963083343,53.8603489216083
84,1436963084080,40.2868043612667
85,1436963084762,44.8845030395237
86,1436963086297,49.1397892924082
87,1436963086955,54.7975644220149
88,1436963087706,40.9035138562502
89,1436963088443,38.2815474265544
90,1436963089118,39.0049544293336
91,1436963089794,39.695310042422
92,1436963090409,36.2229084950846
93,1436963091127,42.7845264643042
94,1436963091857,42.4982506133764
95,1436963093491,52.6585777932349
96,1436963094212,46.7758121839324
97,1436963094926,51.1122162808139
98,1436963095645,44.8134214658307
99,1436963096345,37.280673331013
100,1436963097624,52.7553196268897
101,1436963098344,46.9829205648712
102,1436963098979,41.243891840851
103,1436963099608,46.2564401217995
104,1436963100248,40.5741689871107
105,1436963100943,42.6186230763085
106,1436963101556,45.7735983816195
107,1436963102315,36.497912089843
108,1436963103039,57.0915010330549
109,1436963103780,46.2351528370416
110,1436963104486,54.9686040121855
111,1436963105161,44.9437423565142
112,1436963105878,47.0359509537754
113,1436963106592,35.9761524876501
114,1436963107272,35.239341566817
115,1436963108013,45.2609036625661
116,1436963108834,47.6896446498927
117,1436963109588,44.8906601097446
118,1436963110291,40.0711653138337
119,1436963110857,58.0582917135689
120,1436963111452,44.9174421499958
121,1436963112058,54.4318624716094
122,1436963112688,38.2198026858465
123,1436963113469,55.5042412937446
124,1436963114176,38.7819105417901
125,1436963114773,40.7624448345319
126,1436963115333,35.9464343443002
127,1436963115880,45.8658252720852
128,1436963116435,42.4808317519208
129,1436963118085,56.5536542811384
130,1436963118850,37.8497538199176
131,1436963119514,32.4190379930628
132,1436963120204,42.4399514699487
133,1436963120793,35.0687622395302
134,1436963121351,43.0096245954831
135,1436963121931,34.1020533727991
136,1436963122519,41.7997930583165
137,1436963123161,39.5821649143598
138,1436963123907,44.9335610224332
139,1436963124650,38.3437333007428
140,1436963125356,42.1586451444174
141,1436963125958,38.0671546142556
142,1436963126548,35.2362364844419
143,1436963127095,39.4323284804064
144,1436963127652,36.1330056901955
145,1436963129198,32.9995632945217
146,1436963129923,40.7724644976331
147,1436963130622,42.509270116958
148,1436963131243,47.7685401505802
149,1436963131944,35.7531829793548
150,1436963132600,49.2422481918204
151,1436963133157,38.7603099908231
152,1436963133724,28.4717178187582
153,1436963134280,35.3772503927321
154,1436963134864,46.9925805004112
155,1436963135548,52.9404703918115
156,1436963136305,41.1180405004909
157,1436963137018,54.3752273390462
158,1436963137594,43.6619262132317
159,1436963138177,39.0641177536528
160,1436963138747,43.3461081392048
161,1436963139304,33.1965326304291
162,1436963139853,43.4134738896955
163,1436963141320,40.1261411563019
164,1436963141928,50.0932839865243
165,1436963142647,39.2003315800299
166,1436963143373,54.8852661284767
167,1436963144168,47.2198678855863
168,1436963144762,35.8937767382046
169,1436963145431,39.9799377223391
170,1436963146153,57.7927647654857
171,1436963146898,41.5711570268814
172,1436963147566,55.4519111947798
173,1436963148251,37.0467335845148
174,1436963148966,54.3374053675789
175,1436963149704,38.8664522226723
176,1436963150320,35.9979889258841
177,1436963150974,38.8936835446087
178,1436963151674,52.3380982596027
179,1436963152357,45.2668320850859
180,1436963153136,36.7058828692378
181,1436963153862,43.0605750224791
182,1436963154604,42.1201816049725
183,1436963155284,44.0449401536226
184,1436963157081,48.9600941795104
185,1436963157827,42.6884717099204
186,1436963158503,44.4112240584717
187,1436963159224,42.7384589687295
188,1436963159940,49.8424601577558
189,1436963160660,63.9622784817528
190,1436963161208,53.2433924242682
191,1436963161820,43.9820522354584
192,1436963162650,49.6394741425089
193,1436963163371,50.6887965887527
194,1436963164112,37.7539224383541
195,1436963164855,49.9247475468292
196,1436963165571,38.093131140984
197,1436963166210,44.4165811123285
198,1436963166921,48.6561926105752
199,1436963167726,38.4482329173877
200,1436963168435,65.0138395172424
201,1436963169126,39.2878923722872
202,1436963169853,43.0499495614965
203,1436963170522,58.8313966864426
204,1436963171216,41.5639501097139
205,1436963171909,62.1411801910913
206,1436963172624,63.9971227971431
207,1436963173269,41.2994888290464
208,1436963173930,35.7086731390774
209,1436963174674,39.3603414404103
210,1436963175403,44.6774106573446
211,1436963176084,44.8519430978944
212,1436963176830,37.6888906414098
213,1436963177470,37.8298944648729
214,1436963178287,40.1756527151248
215,1436963178858,38.2148840098908
216,1436963179548,38.3206223864525
217,1436963180268,52.3545187943829
218,1436963180992,41.0760574521032
219,1436963181739,42.3288935880513
220,1436963182404,38.2577384519709
221,1436963183125,37.584495094413
222,1436963183811,41.4818457610704
223,1436963184388,41.7631478769419
224,1436963184997,59.2373089867343
225,1436963185743,49.023209660893
226,1436963186488,39.6437027364262
227,1436963187218,44.4591675221131
228,1436963187948,40.5845338906609
229,1436963188580,48.6368287986184
230,1436963189257,47.2353453065019
231,1436963190062,44.0461767668458
232,1436963190806,45.9102408455561
233,1436963191498,51.3846514173377
234,1436963192167,50.7067287317138
235,1436963192930,50.2409777212544
236,1436963193667,45.3780981929553
237,1436963194400,40.9967888094305
238,1436963195122,42.2189923529947
239,1436963195802,43.8240042323736
240,1436963196378,40.9181875258362
241,1436963196958,52.5466889056897
242,1436963197508,47.1135255426688
243,1436963198107,38.6360062033497
244,1436963198795,45.5645485910519
245,1436963199521,41.4410478016596
246,1436963200253,38.262064118889
247,1436963200984,38.5887675002043
248,1436963201693,46.0317189820118
249,1436963202359,48.67977034269
250,1436963203078,35.8222545301242
251,1436963203781,41.477863868692
252,1436963204531,46.0654883966044
253,1436963205250,51.2657422261165
254,1436963205977,49.8243726973016
255,1436963206711,40.2569769974733
256,1436963207440,36.3614817458701
257,1436963208140,43.0089233840257
258,1436963208751,41.6423609422552
259,1436963209307,36.4519299359406
260,1436963209883,49.3223755786001
261,1436963210457,52.397371606734
262,1436963211043,39.18301157849
263,1436963211656,41.0783710158286
264,1436963212247,38.7710922849159
265,1436963212867,44.6135199048232
266,1436963214625,43.1833538634174
267,1436963215304,45.2866454384251
268,1436963215998,43.4680744364859
269,1436963216674,42.6078463730743
270,1436963217411,42.4527857699266
271,1436963218062,47.7903064662008
272,1436963218806,52.7593178024385
273,1436963219522,51.2646310846196
274,1436963220200,45.5922379263979
275,1436963220971,36.1025368993497
276,1436963221547,40.1213084467702
277,1436963222138,44.1924967557483
278,1436963222820,55.1304873886676
279,1436963223623,50.3172638564041
280,1436963224304,52.6616141243197
281,1436963224992,58.2848382715947
282,1436963225712,52.1772758202132
283,1436963226435,51.8109385137017
284,1436963227143,43.7222225968666
285,1436963227833,43.1390051711271
286,1436963228623,48.5289356458794
287,1436963229359,44.3403882244028
288,1436963230099,41.6710776430744
289,1436963230791,43.3955470214475
290,1436963231514,52.7934190803514
291,1436963232261,45.4236338311068
292,1436963232946,43.2900853775326
293,1436963233539,40.241381833141
294,1436963234252,44.7039346095989
295,1436963234973,39.7981650189418
296,1436963235696,41.8174346462779
297,1436963236420,36.97563851007
298,1436963237158,38.9017996926417
299,1436963237908,42.1938963121258
300,1436963238678,41.0502064044384
301,1436963239329,60.2962677619315
302,1436963240026,47.3431974562097
303,1436963240770,43.4154426890983
304,1436963241478,55.9328332642712
305,1436963242124,47.7929819860965
306,1436963242848,40.6352613461982
307,1436963243559,47.7279200102148
308,1436963244244,60.7238103868499
309,1436963244830,51.2253558241147
310,1436963245497,40.5228782051012
311,1436963246230,41.5846746684413
312,1436963246973,41.8095085169232
313,1436963247732,46.0059717147003
314,1436963248497,42.26226998945
315,1436963249183,49.8211430339394
316,1436963249892,39.6865667661961
317,1436963250491,52.7222575135502
318,1436963251166,45.1666186079219
319,1436963251900,44.4509231748233
320,1436963252613,45.4994369610886
321,1436963253286,48.4104712488219
322,1436963254014,43.0284820550188
323,1436963254753,57.6352049016363
324,1436963255448,36.9029407510295
325,1436963256076,58.4044360370203
326,1436963256822,40.0543742879219
327,1436963257542,46.161464587109
328,1436963258284,41.9443412835651
329,1436963259007,47.4820001204555
330,1436963259725,60.6267357810157
331,1436963260376,41.2208685114038
332,1436963261081,54.1164040238178
333,1436963261738,39.1635869905666
334,1436963262389,52.3587939638402
335,1436963263069,52.4224397441214
336,1436963263873,55.6027650913544
337,1436963264603,47.9965026255479
338,1436963265343,52.8875483491232
339,1436963266078,40.8819231158148
340,1436963266774,56.1606774134096
341,1436963267357,48.2371152198159
342,1436963268021,42.6542867929974
343,1436963268833,42.4428489531991
344,1436963269572,43.1106337819614
345,1436963270292,43.3168763807698
346,1436963271760,48.9145661097392
347,1436963272511,43.7425596046536
348,1436963273145,47.4905318707674
349,1436963273841,48.4834090526409
350,1436963274573,43.5514102581841
351,1436963275303,57.8687485293108
352,1436963276035,41.3899411846479
353,1436963276789,42.3852645638937
354,1436963277510,56.7917254366132
355,1436963278217,48.6388655843622
356,1436963278822,49.6240810763201
357,1436963279509,44.8136242292681
358,1436963280227,54.2246674268714
359,1436963281016,48.5333915103582
360,1436963281571,40.4202579244095
361,1436963282148,53.9444668983816
362,1436963282786,40.4108409394106
363,1436963284764,43.4936899430174
364,1436963285492,43.5213751209322
365,1436963286224,54.6204109581655
366,1436963286932,37.9831681052369
367,1436963287669,43.479370131112
368,1436963288340,38.0962198815675
369,1436963289002,37.9609923893782
370,1436963289738,39.7413547285927
371,1436963290474,38.3648251877558
372,1436963291178,38.0149984194251
373,1436963291788,52.6851484472435
374,1436963292450,44.8169578842608
375,1436963293115,42.957394451044
376,1436963294568,52.7834904773255
377,1436963295290,38.8131997940261
378,1436963296017,51.3759937727203
379,1436963296741,39.090997753179
380,1436963297477,45.645491523733
381,1436963298223,41.4084781170993
382,1436963299011,43.6250548829621
383,1436963299712,42.3945911556679
384,1436963300445,37.5245275073681
385,1436963301176,46.7505322775039
386,1436963301863,37.760535095847
387,1436963302580,35.5095641143122
388,1436963303366,39.8314476541268
389,1436963304106,43.3864794658971
390,1436963304818,44.8009650747456
391,1436963305388,36.5440939340244
392,1436963306051,42.6156154417856
393,1436963306784,39.620372425427
394,1436963307491,51.6375919893921
395,1436963308212,49.0577969195249
396,1436963308952,42.6058544232604
397,1436963309684,42.7819959904985
398,1436963310418,43.2256369011749
399,1436963311071,41.4167820119038
400,1436963311797,45.6313816945162
401,1436963312604,44.7598143452318
402,1436963313307,64.7221252562533
403,1436963313964,36.7240637737799
404,1436963314702,38.3054503410333
405,1436963315446,40.1666761727434
406,1436963316109,43.4926799707723
407,1436963316659,37.1721125041406
408,1436963318142,42.1298572752048
409,1436963318786,53.6426523824234
410,1436963319471,45.8702667997321
411,1436963320221,49.6644767717397
412,1436963320967,45.8437299484127
413,1436963321682,48.8267779685371
414,1436963322276,42.1647659740731
415,1436963322939,53.8860593406868
416,1436963323656,39.8672324384938
417,1436963324369,41.4742443585698
418,1436963325004,37.9102816679875
419,1436963325710,49.7120870940032
420,1436963326383,43.7546422513479
421,1436963327090,56.6360872966187
422,1436963327833,36.2437624468125
423,1436963329349,37.2339043852404
424,1436963330012,43.8622118662454
425,1436963330742,44.822784019475
426,1436963331485,56.8495696489831
427,1436963332193,47.0475939533769
428,1436963332833,44.454362874277
429,1436963333524,38.802450471806
430,1436963334197,40.1982678671608
431,1436963334942,43.2649015886428
432,1436963335666,42.8326648327007
433,1436963336281,44.8354566026257
434,1436963336964,43.1320135635108
435,1436963337729,47.8757217199298
436,1436963338479,39.5768143975358
437,1436963339172,41.5168618489413
438,1436963339801,37.8392626087103
439,1436963340439,38.1908553161114
440,1436963341006,41.9484601259201
441,1436963341626,50.0901800140037
442,1436963342356,53.2197541145195
443,1436963343108,43.8839017806385
444,1436963343847,44.2126598772315
445,1436963344530,37.0850278530262
446,1436963345207,45.395297120812
447,1436963345918,60.6678150839248
448,1436963346620,52.0928831865611
449,1436963347344,45.01348468874
450,1436963348071,43.3326338817315
451,1436963348805,40.4572221721363
452,1436963349551,41.3690709083674
453,1436963350269,37.5757640829313
454,1436963350888,38.6954580640299
455,1436963351599,38.4474899427262
456,1436963352335,55.4899959884361
457,1436963352918,39.4778469412273
458,1436963353584,45.240417381031
459,1436963354305,51.7098309729888
460,1436963355025,38.9084248596317
461,1436963355797,42.3668595954813
462,1436963356518,36.8947422296362
463,1436963357220,44.1426220963703
464,1436963357980,39.5288281348853
465,1436963358650,40.9495437405901
466,1436963359368,51.9673685313457
467,1436963360113,38.3674582222576
468,1436963360769,35.2309409779273
469,1436963361426,39.0735163346581
470,1436963362111,36.4522836234358
471,1436963362797,37.4351692797106
472,1436963363399,37.0493351068841
473,1436963363977,36.5913822718319
474,1436963364551,36.8906864070982
475,1436963365174,46.5173950483223
476,1436963365916,36.8148779867576
477,1436963366643,42.9914535893
478,1436963367380,49.1280732726017
479,1436963368129,39.2907589615501
480,1436963368863,47.8625328295498
481,1436963369583,46.3853224580947
482,1436963370296,39.5650240812796
483,1436963370947,45.6140425408981
484,1436963371681,41.4102928433786
485,1436963372417,38.0041996623798
486,1436963373161,34.0267983326709
487,1436963373795,49.6316267840373
488,1436963374483,44.5932566393449
489,1436963375217,38.5223005753025
490,1436963375933,36.0039915843613
491,1436963376603,41.2198168333875
492,1436963377277,63.042591303657
493,1436963378007,36.1830113148853
494,1436963378713,35.3720754763029
495,1436963379452,44.7015649977147
496,1436963380196,39.3632723640074
497,1436963380925,42.1678706538022
498,1436963381638,59.7860499689448
499,1436963382277,31.3855916409701
500,1436963383027,44.7145884598373
501,1436963383780,55.2827523403298
502,1436963384495,53.2792823493994
503,1436963385044,55.6994415033168
504,1436963386145,41.5028668382682
505,1436963386758,40.7206973331329
506,1436963387393,52.0837341249067
507,1436963388124,39.8681487744177
508,1436963388819,36.3379626032397
509,1436963389471,40.3989788419497
510,1436963390108,59.0900162026333
511,1436963390687,65.0946127327585
512,1436963391241,37.1405234029782
513,1436963391790,38.1723141303215
514,1436963393426,41.929897803568
515,1436963394063,37.3487977539797
516,1436963394732,32.4541196857276
517,1436963395379,45.0370804390209
518,1436963396010,46.7001018813657
519,1436963396603,39.7881042551137
520,1436963397212,37.5099644494611
521,1436963397783,46.0117379386338
522,1436963398355,52.5379942243727
523,1436963398933,49.4678429169756
524,1436963399543,41.4141155882053
525,1436963400179,52.7365712479292
526,1436963400763,57.0190722697241
527,1436963401343,39.7678850600733
528,1436963401915,40.4137834404185
529,1436963402485,55.8563166656497
530,1436963403042,41.4948515606617
531,1436963403633,43.2347438261668
532,1436963405294,48.6973898966901
533,1436963405899,39.0368415540892
534,1436963406595,44.5967366705493
535,1436963407330,41.4358196426206
536,1436963408093,35.9628525640838
537,1436963408668,40.66048398255
538,1436963409204,36.4820581201875
539,1436963409748,59.464570523614
540,1436963410325,36.1078114852411
541,1436963410979,36.9898134521522
542,1436963411719,41.8441080344398
543,1436963412454,50.8783851196382
544,1436963413094,42.6136147745066
545,1436963413751,53.9426540540648
546,1436963414366,48.0380595850586
547,1436963414949,47.9071385498848
548,1436963415490,58.1673396092645
549,1436963416044,54.9231453042134
550,1436963416609,47.4592799509763
551,1436963418021,44.5374123846679
552,1436963418751,43.9444696755422
553,1436963419470,43.7627339145881
554,1436963420202,48.7713414605764
555,1436963420934,39.7352541987323
556,1436963421653,30.5149943251924
557,1436963422327,44.0933297862628
558,1436963423136,39.0377223924226
559,1436963423867,54.1117609499732
560,1436963424591,54.6259928473533
561,1436963425332,51.5285058239186
562,1436963426082,39.1292070317031
563,1436963426841,33.5608402237057
564,1436963427419,59.4117985391627
565,1436963428090,39.681823299723
566,1436963428836,52.2763412757921
567,1436963429563,51.9525671803578
568,1436963430284,37.7616157546134
569,1436963431018,51.6396111867858
570,1436963431751,66.694552722573
571,1436963432464,35.9708329570826
572,1436963433091,45.465572602949
573,1436963433770,42.6061960790857
574,1436963434411,49.5212981379679
575,1436963435181,50.5509906409341
