id,attr_time,attr_light
1,1436970288149,2.0
2,1436970288169,2.0
3,1436970288191,2.0
4,1436970288209,2.0
5,1436970288230,2.0
6,1436970288249,2.0
7,1436970288269,2.0
8,1436970288288,2.0
9,1436970288309,2.0
10,1436970288330,2.0
11,1436970288348,2.0
12,1436970288369,2.0
13,1436970288389,2.0
14,1436970288409,2.0
15,1436970288428,2.0
16,1436970288449,2.0
17,1436970288468,2.0
18,1436970288488,2.0
19,1436970288509,2.0
20,1436970288529,2.0
21,1436970288549,2.0
22,1436970288568,2.0
23,1436970288590,2.0
24,1436970288609,2.0
25,1436970288629,2.0
26,1436970288649,2.0
27,1436970288669,2.0
28,1436970288689,2.0
29,1436970288709,2.0
30,1436970288730,2.0
31,1436970288749,2.0
32,1436970288769,2.0
33,1436970288789,2.0
34,1436970288809,2.0
35,1436970288837,2.0
36,1436970288849,2.0
37,1436970288869,2.0
38,1436970288890,2.0
39,1436970288909,2.0
40,1436970288929,2.0
41,1436970288949,2.0
42,1436970288973,2.0
43,1436970288989,2.0
44,1436970289010,2.0
45,1436970289030,2.0
46,1436970289049,2.0
47,1436970289069,2.0
48,1436970289089,2.0
49,1436970289109,2.0
50,1436970289131,2.0
51,1436970289150,2.0
52,1436970289171,2.0
53,1436970289190,2.0
54,1436970289210,2.0
55,1436970289232,2.0
56,1436970289249,2.0
57,1436970289271,2.0
58,1436970289290,2.0
59,1436970289310,2.0
60,1436970289330,2.0
61,1436970289350,2.0
62,1436970289372,2.0
63,1436970289394,2.0
64,1436970289412,2.0
65,1436970289430,2.0
66,1436970289449,2.0
67,1436970289473,2.0
68,1436970289490,2.0
69,1436970289510,2.0
70,1436970289530,2.0
71,1436970289552,2.0
72,1436970289573,2.0
73,1436970289590,2.0
74,1436970289614,2.0
75,1436970289632,2.0
76,1436970289650,2.0
77,1436970289674,2.0
78,1436970289694,2.0
79,1436970289714,2.0
80,1436970289734,2.0
81,1436970289753,2.0
82,1436970289774,2.0
83,1436970289793,2.0
84,1436970289814,2.0
85,1436970289834,2.0
86,1436970289855,2.0
87,1436970289872,2.0
88,1436970289893,2.0
89,1436970289914,2.0
90,1436970289935,2.0
91,1436970289952,2.0
92,1436970289974,2.0
93,1436970289995,2.0
94,1436970290016,2.0
95,1436970290036,2.0
96,1436970290052,2.0
97,1436970290235,2.0
98,1436970290236,2.0
99,1436970290237,2.0
100,1436970290238,2.0
101,1436970290239,2.0
102,1436970290240,2.0
103,1436970290241,2.0
104,1436970290242,2.0
105,1436970290243,2.0
106,1436970290326,2.0
107,1436970290378,2.0
108,1436970290379,2.0
109,1436970290380,2.0
110,1436970290381,2.0
111,1436970290382,2.0
112,1436970290383,2.0
113,1436970290445,2.0
114,1436970290446,2.0
115,1436970290447,2.0
116,1436970290452,2.0
117,1436970290472,2.0
118,1436970290505,2.0
119,1436970290512,2.0
120,1436970290532,2.0
121,1436970290553,2.0
122,1436970290572,2.0
123,1436970290596,2.0
124,1436970290612,2.0
125,1436970290633,2.0
126,1436970290654,2.0
127,1436970290675,2.0
128,1436970290694,2.0
129,1436970290715,2.0
130,1436970290734,2.0
131,1436970290757,2.0
132,1436970290774,2.0
133,1436970290792,2.0
134,1436970290813,2.0
135,1436970290834,2.0
136,1436970290854,2.0
137,1436970290874,2.0
138,1436970290894,2.0
139,1436970290912,2.0
140,1436970290975,2.0
141,1436970290976,2.0
142,1436970290977,2.0
143,1436970290994,2.0
144,1436970291012,2.0
145,1436970291031,2.0
146,1436970291053,2.0
147,1436970291072,2.0
148,1436970291092,2.0
149,1436970291111,2.0
150,1436970291134,2.0
151,1436970291154,2.0
152,1436970291172,2.0
153,1436970291206,2.0
154,1436970291232,2.0
155,1436970291233,2.0
156,1436970291254,2.0
157,1436970291273,2.0
158,1436970291295,2.0
159,1436970291313,2.0
160,1436970291334,2.0
161,1436970291356,2.0
162,1436970291378,2.0
163,1436970291394,2.0
164,1436970291413,2.0
165,1436970291435,2.0
166,1436970291453,2.0
167,1436970291475,2.0
168,1436970291493,2.0
169,1436970291514,2.0
170,1436970291533,2.0
171,1436970291553,2.0
172,1436970291645,2.0
173,1436970291646,2.0
174,1436970291647,2.0
175,1436970291648,2.0
176,1436970291655,2.0
177,1436970291676,2.0
178,1436970291698,2.0
179,1436970291712,2.0
180,1436970291742,2.0
181,1436970291754,2.0
182,1436970291774,2.0
183,1436970291793,2.0
184,1436970291814,2.0
185,1436970291836,2.0
186,1436970291854,2.0
187,1436970291877,2.0
188,1436970291896,2.0
189,1436970291916,2.0
190,1436970291936,2.0
191,1436970291955,2.0
192,1436970291977,2.0
193,1436970291996,2.0
194,1436970292016,2.0
195,1436970292034,2.0
196,1436970292056,2.0
197,1436970292076,2.0
198,1436970292166,2.0
199,1436970292167,2.0
200,1436970292168,2.0
201,1436970292169,2.0
202,1436970292176,2.0
203,1436970292198,2.0
204,1436970292214,2.0
205,1436970292234,2.0
206,1436970292254,2.0
207,1436970292275,2.0
208,1436970292294,2.0
209,1436970292396,2.0
210,1436970292397,2.0
211,1436970292398,2.0
212,1436970292405,2.0
213,1436970292406,2.0
214,1436970292437,2.0
215,1436970292438,2.0
216,1436970292470,2.0
217,1436970292474,2.0
218,1436970292493,2.0
219,1436970292514,2.0
220,1436970292534,2.0
221,1436970292554,2.0
222,1436970292578,2.0
223,1436970292597,2.0
224,1436970292616,2.0
225,1436970292636,2.0
226,1436970292656,2.0
227,1436970292677,2.0
228,1436970292696,2.0
229,1436970292716,2.0
230,1436970292737,2.0
231,1436970292757,2.0
232,1436970292775,2.0
233,1436970292794,2.0
234,1436970292817,2.0
235,1436970292837,2.0
236,1436970292857,2.0
237,1436970292875,2.0
238,1436970292896,2.0
239,1436970292916,2.0
240,1436970292936,2.0
241,1436970292957,2.0
242,1436970292975,2.0
243,1436970292996,2.0
244,1436970293015,2.0
245,1436970293035,2.0
246,1436970293063,2.0
247,1436970293146,2.0
248,1436970293147,2.0
249,1436970293148,2.0
250,1436970293149,2.0
251,1436970293164,2.0
252,1436970293176,2.0
253,1436970293199,2.0
254,1436970293214,2.0
255,1436970293234,2.0
256,1436970293256,2.0
257,1436970293282,2.0
258,1436970293298,2.0
259,1436970293314,2.0
260,1436970293334,2.0
261,1436970293354,2.0
262,1436970293374,2.0
263,1436970293394,2.0
264,1436970293414,2.0
265,1436970293434,2.0
266,1436970293454,2.0
267,1436970293476,2.0
268,1436970293495,2.0
269,1436970293518,2.0
270,1436970293535,2.0
271,1436970293557,2.0
272,1436970293577,2.0
273,1436970293596,2.0
274,1436970293615,2.0
275,1436970293637,2.0
276,1436970293657,2.0
277,1436970293677,2.0
278,1436970293698,2.0
279,1436970293716,2.0
280,1436970293736,2.0
281,1436970293757,2.0
282,1436970293777,2.0
283,1436970293800,2.0
284,1436970293867,2.0
285,1436970293868,2.0
286,1436970293869,2.0
287,1436970293883,2.0
288,1436970293895,2.0
289,1436970293920,2.0
290,1436970293935,2.0
291,1436970293954,2.0
292,1436970293976,2.0
293,1436970293995,2.0
294,1436970294016,2.0
295,1436970294042,2.0
296,1436970294055,2.0
297,1436970294076,2.0
298,1436970294096,1.0
299,1436970294116,1.0
300,1436970294137,1.0
301,1436970294157,1.0
302,1436970294177,2.0
303,1436970294197,2.0
304,1436970294216,2.0
305,1436970294236,2.0
306,1436970294257,2.0
307,1436970294275,2.0
308,1436970294297,2.0
309,1436970294316,2.0
310,1436970294337,2.0
311,1436970294359,2.0
312,1436970294404,2.0
313,1436970294405,2.0
314,1436970294428,2.0
315,1436970294441,2.0
316,1436970294495,2.0
317,1436970294496,2.0
318,1436970294497,2.0
319,1436970294515,2.0
320,1436970294535,2.0
321,1436970294555,2.0
322,1436970294583,2.0
323,1436970294597,1.0
324,1436970294615,1.0
325,1436970294636,1.0
326,1436970294655,1.0
327,1436970294675,2.0
328,1436970294699,2.0
329,1436970294716,2.0
330,1436970294741,2.0
331,1436970294755,2.0
332,1436970294775,2.0
333,1436970294811,2.0
334,1436970294814,2.0
335,1436970294834,2.0
336,1436970294857,2.0
337,1436970294878,2.0
338,1436970294896,2.0
339,1436970294918,2.0
340,1436970294936,2.0
341,1436970294957,2.0
342,1436970294976,2.0
343,1436970294996,2.0
344,1436970295019,2.0
345,1436970295036,2.0
346,1436970295056,2.0
347,1436970295077,2.0
348,1436970295096,2.0
349,1436970295117,2.0
350,1436970295136,2.0
351,1436970295156,2.0
352,1436970295176,2.0
353,1436970295196,2.0
354,1436970295220,2.0
355,1436970295253,2.0
356,1436970295257,2.0
357,1436970295278,2.0
358,1436970295297,2.0
359,1436970295316,2.0
360,1436970295337,2.0
361,1436970295356,2.0
362,1436970295379,2.0
363,1436970295399,2.0
364,1436970295418,2.0
365,1436970295438,2.0
366,1436970295459,2.0
367,1436970295476,2.0
368,1436970295497,2.0
369,1436970295517,2.0
370,1436970295539,2.0
371,1436970295557,2.0
372,1436970295579,2.0
373,1436970295599,2.0
374,1436970295619,2.0
375,1436970295644,1.0
376,1436970295657,1.0
377,1436970295679,2.0
378,1436970295699,2.0
379,1436970295718,2.0
380,1436970295739,2.0
381,1436970295758,2.0
382,1436970295778,2.0
383,1436970295799,2.0
384,1436970295819,2.0
385,1436970295839,2.0
386,1436970295858,2.0
387,1436970295878,2.0
388,1436970295906,2.0
389,1436970295988,2.0
390,1436970295989,2.0
391,1436970295990,2.0
392,1436970295991,2.0
393,1436970296004,2.0
394,1436970296017,2.0
395,1436970296037,2.0
396,1436970296056,2.0
397,1436970296078,2.0
398,1436970296096,1.0
399,1436970296119,1.0
400,1436970296138,1.0
401,1436970296231,1.0
402,1436970296232,2.0
403,1436970296233,2.0
404,1436970296234,2.0
405,1436970296237,2.0
406,1436970296259,2.0
407,1436970296277,2.0
408,1436970296300,2.0
409,1436970296317,2.0
410,1436970296340,2.0
411,1436970296365,2.0
412,1436970296379,2.0
413,1436970296401,2.0
414,1436970296428,2.0
415,1436970296441,2.0
416,1436970296459,2.0
417,1436970296478,2.0
418,1436970296498,2.0
419,1436970296519,2.0
420,1436970296539,2.0
421,1436970296560,2.0
422,1436970296579,2.0
423,1436970296599,2.0
424,1436970296620,2.0
425,1436970296639,1.0
426,1436970296659,1.0
427,1436970296679,2.0
428,1436970296702,2.0
429,1436970296777,2.0
430,1436970296778,2.0
431,1436970296779,1.0
432,1436970296780,1.0
433,1436970296798,1.0
434,1436970296819,1.0
435,1436970296837,2.0
436,1436970296863,2.0
437,1436970296877,2.0
438,1436970296898,2.0
439,1436970296919,2.0
440,1436970296938,1.0
441,1436970296957,1.0
442,1436970296983,1.0
443,1436970297000,1.0
444,1436970297019,1.0
445,1436970297041,1.0
446,1436970297061,1.0
447,1436970297079,1.0
448,1436970297098,1.0
449,1436970297120,1.0
450,1436970297140,1.0
451,1436970297160,1.0
452,1436970297181,1.0
453,1436970297198,1.0
454,1436970297220,1.0
455,1436970297241,1.0
456,1436970297262,1.0
457,1436970297281,1.0
458,1436970297301,1.0
459,1436970297321,1.0
460,1436970297340,2.0
461,1436970297358,2.0
462,1436970297379,2.0
463,1436970297410,2.0
464,1436970297544,2.0
465,1436970297545,2.0
466,1436970297546,2.0
467,1436970297547,2.0
468,1436970297548,2.0
469,1436970297549,1.0
470,1436970297550,1.0
471,1436970297587,1.0
472,1436970297588,1.0
473,1436970297599,1.0
474,1436970297633,1.0
475,1436970297653,1.0
476,1436970297663,1.0
477,1436970297683,1.0
478,1436970297698,1.0
479,1436970297718,1.0
480,1436970297749,1.0
481,1436970297758,1.0
482,1436970297778,1.0
483,1436970297798,1.0
484,1436970297818,1.0
485,1436970297838,2.0
486,1436970297857,2.0
487,1436970297877,2.0
488,1436970297898,2.0
489,1436970297923,2.0
490,1436970297937,2.0
491,1436970297957,2.0
492,1436970297977,2.0
493,1436970297997,2.0
494,1436970298017,2.0
495,1436970298037,2.0
496,1436970298057,2.0
497,1436970298077,2.0
498,1436970298097,1.0
499,1436970298121,1.0
500,1436970298137,1.0
501,1436970298157,1.0
502,1436970298177,1.0
503,1436970298197,1.0
504,1436970298217,2.0
505,1436970298237,2.0
506,1436970298257,2.0
507,1436970298277,2.0
508,1436970298297,2.0
509,1436970298317,2.0
510,1436970298337,2.0
511,1436970298357,2.0
512,1436970298378,2.0
513,1436970298397,2.0
514,1436970298417,1.0
515,1436970298438,1.0
516,1436970298457,1.0
517,1436970298477,1.0
518,1436970298497,1.0
519,1436970298517,1.0
520,1436970298537,1.0
521,1436970298557,1.0
522,1436970298577,1.0
523,1436970298597,1.0
524,1436970298617,1.0
525,1436970298637,1.0
526,1436970298657,1.0
527,1436970298677,1.0
528,1436970298697,1.0
529,1436970298718,1.0
530,1436970298759,1.0
531,1436970298760,1.0
532,1436970298779,1.0
533,1436970298801,1.0
534,1436970298818,1.0
535,1436970298838,1.0
536,1436970298858,1.0
537,1436970298878,1.0
538,1436970298898,1.0
539,1436970298918,1.0
540,1436970298938,1.0
541,1436970298958,1.0
542,1436970298978,1.0
543,1436970298998,1.0
544,1436970299018,1.0
545,1436970299038,1.0
546,1436970299058,1.0
547,1436970299078,1.0
548,1436970299098,1.0
549,1436970299122,1.0
550,1436970299142,1.0
551,1436970299162,1.0
552,1436970299182,1.0
553,1436970299201,1.0
554,1436970299220,1.0
555,1436970299240,1.0
556,1436970299263,1.0
557,1436970299283,1.0
558,1436970299303,1.0
559,1436970299322,1.0
560,1436970299344,1.0
561,1436970299385,1.0
562,1436970299386,1.0
563,1436970299404,1.0
564,1436970299421,1.0
565,1436970299440,1.0
566,1436970299459,1.0
567,1436970299480,1.0
568,1436970299501,1.0
569,1436970299525,1.0
570,1436970299548,1.0
571,1436970299560,1.0
572,1436970299582,1.0
573,1436970299602,1.0
574,1436970299619,1.0
575,1436970299641,1.0
576,1436970299659,1.0
577,1436970299682,1.0
578,1436970299701,1.0
579,1436970299723,1.0
580,1436970299741,1.0
581,1436970299760,1.0
582,1436970299781,1.0
583,1436970299801,1.0
584,1436970299823,1.0
585,1436970299840,1.0
586,1436970299860,1.0
587,1436970299880,1.0
588,1436970299906,1.0
589,1436970299925,1.0
590,1436970299941,1.0
591,1436970299961,1.0
592,1436970299980,1.0
593,1436970300001,1.0
594,1436970300020,1.0
595,1436970300043,1.0
596,1436970300064,1.0
597,1436970300156,1.0
598,1436970300157,1.0
599,1436970300158,1.0
600,1436970300174,1.0
601,1436970300175,1.0
602,1436970300180,1.0
603,1436970300203,1.0
604,1436970300228,1.0
605,1436970300241,1.0
606,1436970300261,1.0
607,1436970300280,1.0
608,1436970300301,1.0
609,1436970300324,1.0
610,1436970300341,1.0
611,1436970300360,1.0
612,1436970300381,1.0
613,1436970300402,1.0
614,1436970300421,1.0
615,1436970300441,1.0
616,1436970300461,1.0
617,1436970300482,1.0
618,1436970300501,1.0
619,1436970300523,1.0
620,1436970300544,1.0
621,1436970300564,1.0
622,1436970300584,1.0
623,1436970300604,1.0
624,1436970300625,1.0
625,1436970300644,1.0
626,1436970300664,1.0
627,1436970300684,1.0
628,1436970300704,1.0
629,1436970300722,1.0
630,1436970300750,1.0
631,1436970300827,1.0
632,1436970300828,1.0
633,1436970300829,1.0
634,1436970300830,1.0
635,1436970300841,1.0
636,1436970300873,1.0
637,1436970300883,1.0
638,1436970300901,1.0
639,1436970300923,1.0
640,1436970300941,1.0
641,1436970300964,1.0
642,1436970300983,1.0
643,1436970301005,1.0
644,1436970301024,1.0
645,1436970301044,1.0
646,1436970301064,1.0
647,1436970301083,1.0
648,1436970301104,1.0
649,1436970301124,1.0
650,1436970301144,1.0
651,1436970301164,1.0
652,1436970301185,1.0
653,1436970301206,1.0
654,1436970301222,1.0
655,1436970301255,1.0
656,1436970301355,1.0
657,1436970301356,1.0
658,1436970301357,1.0
659,1436970301358,1.0
660,1436970301359,1.0
661,1436970301363,1.0
662,1436970301381,1.0
663,1436970301411,1.0
664,1436970301425,1.0
665,1436970301452,1.0
666,1436970301462,1.0
667,1436970301482,1.0
668,1436970301555,1.0
669,1436970301556,1.0
670,1436970301557,1.0
671,1436970301564,1.0
672,1436970301582,1.0
673,1436970301605,1.0
674,1436970301622,1.0
675,1436970301644,1.0
676,1436970301663,1.0
677,1436970301683,1.0
678,1436970301705,1.0
679,1436970301723,1.0
680,1436970301741,1.0
681,1436970301762,1.0
682,1436970301786,1.0
683,1436970301802,1.0
684,1436970301825,1.0
685,1436970301844,1.0
686,1436970301862,1.0
687,1436970301886,1.0
688,1436970301905,1.0
689,1436970301925,1.0
690,1436970301943,1.0
691,1436970301964,1.0
692,1436970301983,1.0
693,1436970302003,1.0
694,1436970302025,1.0
695,1436970302045,1.0
696,1436970302065,1.0
697,1436970302086,1.0
698,1436970302105,1.0
699,1436970302124,1.0
700,1436970302145,1.0
701,1436970302166,1.0
702,1436970302182,1.0
703,1436970302202,1.0
704,1436970302269,1.0
705,1436970302270,1.0
706,1436970302271,1.0
707,1436970302283,1.0
708,1436970302307,1.0
709,1436970302323,1.0
710,1436970302342,1.0
711,1436970302364,1.0
712,1436970302389,1.0
713,1436970302406,1.0
714,1436970302425,1.0
715,1436970302444,1.0
716,1436970302463,1.0
717,1436970302483,1.0
718,1436970302505,1.0
719,1436970302526,1.0
720,1436970302546,1.0
721,1436970302566,1.0
722,1436970302585,1.0
723,1436970302606,1.0
724,1436970302626,1.0
725,1436970302644,1.0
726,1436970302665,1.0
727,1436970302686,1.0
728,1436970302705,1.0
729,1436970302726,1.0
730,1436970302746,1.0
731,1436970302767,1.0
732,1436970302788,1.0
733,1436970302808,1.0
734,1436970302826,1.0
735,1436970302845,1.0
736,1436970302863,1.0
737,1436970302885,1.0
738,1436970302904,1.0
739,1436970302975,1.0
740,1436970302976,1.0
741,1436970302977,1.0
742,1436970302998,1.0
743,1436970303012,1.0
744,1436970303023,1.0
745,1436970303043,1.0
746,1436970303063,1.0
747,1436970303086,1.0
748,1436970303103,1.0
749,1436970303125,1.0
750,1436970303149,1.0
751,1436970303164,1.0
752,1436970303183,1.0
753,1436970303207,1.0
754,1436970303223,1.0
755,1436970303245,1.0
756,1436970303266,1.0
757,1436970303287,1.0
758,1436970303306,1.0
759,1436970303326,1.0
760,1436970303348,1.0
761,1436970303365,1.0
762,1436970303394,1.0
763,1436970303406,1.0
764,1436970303428,1.0
765,1436970303445,1.0
766,1436970303465,1.0
767,1436970303483,1.0
768,1436970303508,1.0
769,1436970303527,1.0
770,1436970303547,1.0
771,1436970303567,1.0
772,1436970303586,1.0
773,1436970303605,1.0
774,1436970303624,1.0
775,1436970303644,1.0
776,1436970303733,1.0
777,1436970303734,1.0
778,1436970303735,1.0
779,1436970303736,1.0
780,1436970303744,1.0
781,1436970303768,1.0
782,1436970303784,1.0
783,1436970303804,1.0
784,1436970303825,1.0
785,1436970303844,1.0
786,1436970303864,1.0
787,1436970303890,1.0
788,1436970303905,1.0
789,1436970303925,1.0
790,1436970303947,1.0
791,1436970303967,1.0
792,1436970303987,1.0
793,1436970304007,1.0
794,1436970304024,1.0
795,1436970304047,1.0
796,1436970304067,1.0
797,1436970304087,1.0
798,1436970304107,1.0
799,1436970304125,1.0
800,1436970304147,1.0
801,1436970304167,1.0
802,1436970304186,1.0
803,1436970304207,1.0
804,1436970304226,1.0
805,1436970304246,1.0
806,1436970304267,1.0
807,1436970304287,1.0
808,1436970304307,1.0
809,1436970304327,1.0
810,1436970304346,1.0
811,1436970304486,1.0
812,1436970304487,1.0
813,1436970304488,1.0
814,1436970304489,1.0
815,1436970304490,1.0
816,1436970304491,1.0
817,1436970304492,1.0
818,1436970304519,1.0
819,1436970304564,1.0
820,1436970304565,1.0
821,1436970304566,1.0
822,1436970304604,1.0
823,1436970304605,1.0
824,1436970304626,1.0
825,1436970304651,1.0
826,1436970304665,1.0
827,1436970304685,1.0
828,1436970304706,1.0
829,1436970304726,1.0
830,1436970304746,1.0
831,1436970304768,1.0
832,1436970304788,1.0
833,1436970304808,1.0
834,1436970304828,1.0
835,1436970304846,1.0
836,1436970304867,1.0
837,1436970304888,1.0
838,1436970304908,1.0
839,1436970304928,1.0
840,1436970304945,1.0
841,1436970304966,1.0
842,1436970304988,1.0
843,1436970305006,1.0
844,1436970305025,1.0
845,1436970305045,1.0
846,1436970305066,1.0
847,1436970305086,1.0
848,1436970305106,1.0
849,1436970305126,1.0
850,1436970305162,1.0
851,1436970305173,1.0
852,1436970305185,1.0
853,1436970305204,1.0
854,1436970305226,1.0
855,1436970305246,1.0
856,1436970305265,1.0
857,1436970305285,1.0
858,1436970305306,1.0
859,1436970305328,1.0
860,1436970305348,1.0
861,1436970305366,1.0
862,1436970305387,1.0
863,1436970305405,1.0
864,1436970305427,1.0
865,1436970305445,1.0
866,1436970305466,1.0
867,1436970305485,1.0
868,1436970305506,1.0
869,1436970305527,1.0
870,1436970305550,1.0
871,1436970305567,1.0
872,1436970305589,1.0
873,1436970305608,1.0
874,1436970305627,1.0
875,1436970305648,1.0
876,1436970305667,1.0
877,1436970305688,1.0
878,1436970305707,1.0
879,1436970305729,1.0
880,1436970305746,1.0
881,1436970305766,1.0
882,1436970305787,1.0
883,1436970305851,1.0
884,1436970305852,1.0
885,1436970305853,1.0
886,1436970305874,1.0
887,1436970305886,1.0
888,1436970305907,1.0
889,1436970305926,1.0
890,1436970305946,1.0
891,1436970305979,1.0
892,1436970305987,1.0
893,1436970306007,1.0
894,1436970306027,1.0
895,1436970306049,1.0
896,1436970306068,1.0
897,1436970306087,1.0
898,1436970306109,1.0
899,1436970306129,1.0
900,1436970306149,1.0
901,1436970306170,1.0
902,1436970306187,1.0
903,1436970306209,1.0
904,1436970306229,1.0
905,1436970306332,1.0
906,1436970306333,1.0
907,1436970306334,1.0
908,1436970306335,1.0
909,1436970306336,1.0
910,1436970306347,1.0
911,1436970306372,1.0
912,1436970306393,1.0
