id,attr_time,attr_light
1,1436970288142,0.0
2,1436970288160,0.0
3,1436970288186,0.0
4,1436970288249,0.0
5,1436970288250,0.0
6,1436970288251,0.0
7,1436970288260,0.0
8,1436970288282,0.0
9,1436970288302,0.0
10,1436970288338,0.0
11,1436970288354,0.0
12,1436970288361,0.0
13,1436970288382,0.0
14,1436970288401,0.0
15,1436970288421,0.0
16,1436970288440,0.0
17,1436970288463,0.0
18,1436970288482,0.0
19,1436970288503,0.0
20,1436970288523,0.0
21,1436970288542,0.0
22,1436970288563,0.0
23,1436970288584,0.0
24,1436970288603,0.0
25,1436970288621,0.0
26,1436970288643,0.0
27,1436970288663,0.0
28,1436970288681,0.0
29,1436970288701,0.0
30,1436970288720,0.0
31,1436970288743,0.0
32,1436970288767,0.0
33,1436970288783,0.0
34,1436970288803,0.0
35,1436970288820,0.0
36,1436970288841,0.0
37,1436970288876,0.0
38,1436970288881,0.0
39,1436970288936,0.0
40,1436970288937,0.0
41,1436970288947,0.0
42,1436970288961,0.0
43,1436970288981,0.0
44,1436970289001,0.0
45,1436970289021,0.0
46,1436970289044,0.0
47,1436970289072,0.0
48,1436970289104,0.0
49,1436970289105,0.0
50,1436970289132,0.0
51,1436970289141,0.0
52,1436970289169,0.0
53,1436970289182,0.0
54,1436970289201,0.0
55,1436970289221,0.0
56,1436970289241,0.0
57,1436970289261,0.0
58,1436970289284,0.0
59,1436970289303,0.0
60,1436970289323,0.0
61,1436970289343,0.0
62,1436970289364,0.0
63,1436970289384,0.0
64,1436970289404,0.0
65,1436970289424,0.0
66,1436970289440,0.0
67,1436970289460,0.0
68,1436970289483,0.0
69,1436970289502,0.0
70,1436970289524,0.0
71,1436970289544,0.0
72,1436970289565,0.0
73,1436970289581,0.0
74,1436970289607,0.0
75,1436970289638,0.0
76,1436970289648,0.0
77,1436970289666,0.0
78,1436970289681,0.0
79,1436970289702,0.0
80,1436970289725,0.0
81,1436970289743,0.0
82,1436970289762,0.0
83,1436970289784,0.0
84,1436970289804,0.0
85,1436970289824,0.0
86,1436970289841,0.0
87,1436970289861,0.0
88,1436970289884,0.0
89,1436970289904,0.0
90,1436970289924,0.0
91,1436970289944,0.0
92,1436970289965,0.0
93,1436970289983,0.0
94,1436970290004,0.0
95,1436970290027,0.0
96,1436970290046,0.0
97,1436970290068,0.0
98,1436970290084,0.0
99,1436970290102,0.0
100,1436970290123,0.0
101,1436970290142,0.0
102,1436970290162,0.0
103,1436970290182,0.0
104,1436970290202,0.0
105,1436970290223,0.0
106,1436970290242,0.0
107,1436970290290,0.0
108,1436970290291,0.0
109,1436970290304,0.0
110,1436970290322,0.0
111,1436970290342,0.0
112,1436970290362,0.0
113,1436970290382,0.0
114,1436970290402,0.0
115,1436970290425,0.0
116,1436970290450,0.0
117,1436970290462,0.0
118,1436970290483,0.0
119,1436970290502,0.0
120,1436970290522,0.0
121,1436970290542,0.0
122,1436970290573,0.0
123,1436970290582,0.0
124,1436970290602,0.0
125,1436970290622,0.0
126,1436970290642,0.0
127,1436970290662,0.0
128,1436970290682,0.0
129,1436970290702,0.0
130,1436970290722,0.0
131,1436970290742,0.0
132,1436970290762,0.0
133,1436970290783,0.0
134,1436970290802,0.0
135,1436970290822,0.0
136,1436970290845,0.0
137,1436970290862,0.0
138,1436970290886,0.0
139,1436970290906,0.0
140,1436970290926,0.0
141,1436970290943,0.0
142,1436970290968,0.0
143,1436970290987,0.0
144,1436970291002,0.0
145,1436970291022,0.0
146,1436970291043,0.0
147,1436970291064,0.0
148,1436970291083,0.0
149,1436970291103,0.0
150,1436970291124,0.0
151,1436970291144,0.0
152,1436970291167,0.0
153,1436970291187,0.0
154,1436970291202,0.0
155,1436970291227,0.0
156,1436970291247,0.0
157,1436970291266,0.0
158,1436970291286,0.0
159,1436970291307,0.0
160,1436970291326,0.0
161,1436970291342,0.0
162,1436970291364,0.0
163,1436970291387,0.0
164,1436970291407,0.0
165,1436970291425,0.0
166,1436970291446,0.0
167,1436970291465,0.0
168,1436970291486,0.0
169,1436970291506,0.0
170,1436970291525,0.0
171,1436970291547,0.0
172,1436970291567,0.0
173,1436970291585,0.0
174,1436970291605,0.0
175,1436970291674,0.0
176,1436970291675,0.0
177,1436970291676,0.0
178,1436970291685,0.0
179,1436970291703,0.0
180,1436970291726,0.0
181,1436970291743,0.0
182,1436970291763,0.0
183,1436970291785,0.0
184,1436970291806,0.0
185,1436970291825,0.0
186,1436970291846,0.0
187,1436970291869,0.0
188,1436970291886,0.0
189,1436970291906,0.0
190,1436970291927,0.0
191,1436970291947,0.0
192,1436970291967,0.0
193,1436970291986,0.0
194,1436970292003,0.0
195,1436970292026,0.0
196,1436970292045,0.0
197,1436970292067,0.0
198,1436970292086,0.0
199,1436970292107,0.0
200,1436970292126,0.0
201,1436970292149,0.0
202,1436970292169,0.0
203,1436970292183,0.0
204,1436970292210,0.0
205,1436970292227,0.0
206,1436970292246,1.0
207,1436970292265,1.0
208,1436970292286,1.0
209,1436970292305,1.0
210,1436970292327,1.0
211,1436970292392,1.0
212,1436970292393,1.0
213,1436970292394,1.0
214,1436970292404,1.0
215,1436970292431,1.0
216,1436970292465,1.0
217,1436970292466,2.0
218,1436970292484,2.0
219,1436970292506,2.0
220,1436970292526,2.0
221,1436970292545,2.0
222,1436970292567,2.0
223,1436970292584,2.0
224,1436970292605,2.0
225,1436970292625,1.0
226,1436970292647,1.0
227,1436970292667,1.0
228,1436970292687,1.0
229,1436970292707,1.0
230,1436970292725,1.0
231,1436970292747,1.0
232,1436970292766,1.0
233,1436970292788,1.0
234,1436970292808,1.0
235,1436970292828,1.0
236,1436970292846,1.0
237,1436970292868,1.0
238,1436970292887,1.0
239,1436970292908,1.0
240,1436970292929,1.0
241,1436970292947,1.0
242,1436970292967,1.0
243,1436970292988,1.0
244,1436970293006,1.0
245,1436970293027,1.0
246,1436970293155,1.0
247,1436970293156,1.0
248,1436970293157,1.0
249,1436970293158,1.0
250,1436970293159,1.0
251,1436970293160,1.0
252,1436970293245,1.0
253,1436970293246,1.0
254,1436970293247,1.0
255,1436970293248,1.0
256,1436970293249,1.0
257,1436970293265,1.0
258,1436970293290,1.0
259,1436970293307,1.0
260,1436970293327,1.0
261,1436970293345,1.0
262,1436970293365,1.0
263,1436970293409,1.0
264,1436970293410,1.0
265,1436970293424,1.0
266,1436970293444,1.0
267,1436970293465,1.0
268,1436970293488,0.0
269,1436970293508,0.0
270,1436970293529,1.0
271,1436970293548,1.0
272,1436970293567,1.0
273,1436970293589,1.0
274,1436970293606,1.0
275,1436970293626,1.0
276,1436970293647,1.0
277,1436970293669,1.0
278,1436970293689,1.0
279,1436970293709,1.0
280,1436970293729,1.0
281,1436970293746,1.0
282,1436970293766,1.0
283,1436970293786,1.0
284,1436970293806,1.0
285,1436970293828,1.0
286,1436970293855,2.0
287,1436970293865,2.0
288,1436970293886,2.0
289,1436970293906,2.0
290,1436970293927,1.0
291,1436970293946,1.0
292,1436970293967,0.0
293,1436970293985,0.0
294,1436970294009,0.0
295,1436970294036,0.0
296,1436970294046,1.0
297,1436970294071,1.0
298,1436970294086,1.0
299,1436970294107,1.0
300,1436970294126,1.0
301,1436970294147,1.0
302,1436970294167,1.0
303,1436970294189,1.0
304,1436970294209,1.0
305,1436970294229,1.0
306,1436970294249,1.0
307,1436970294267,1.0
308,1436970294289,1.0
309,1436970294309,2.0
310,1436970294326,2.0
311,1436970294346,3.0
312,1436970294366,3.0
313,1436970294391,2.0
314,1436970294411,2.0
315,1436970294431,1.0
316,1436970294449,1.0
317,1436970294466,1.0
318,1436970294486,1.0
319,1436970294506,0.0
320,1436970294526,0.0
321,1436970294632,1.0
322,1436970294643,1.0
323,1436970294647,2.0
324,1436970294648,2.0
325,1436970294649,2.0
326,1436970294650,2.0
327,1436970294667,1.0
328,1436970294691,1.0
329,1436970294706,1.0
330,1436970294726,1.0
331,1436970294748,1.0
332,1436970294768,1.0
333,1436970294787,2.0
334,1436970294808,2.0
335,1436970294829,3.0
336,1436970294849,3.0
337,1436970294870,3.0
338,1436970294887,3.0
339,1436970294909,3.0
340,1436970294930,3.0
341,1436970294949,2.0
342,1436970294970,2.0
343,1436970294988,1.0
344,1436970295009,1.0
345,1436970295027,1.0
346,1436970295048,2.0
347,1436970295070,2.0
348,1436970295088,3.0
349,1436970295109,3.0
350,1436970295127,3.0
351,1436970295151,3.0
352,1436970295171,3.0
353,1436970295192,3.0
354,1436970295210,2.0
355,1436970295230,2.0
356,1436970295247,3.0
357,1436970295268,3.0
358,1436970295287,4.0
359,1436970295310,4.0
360,1436970295377,5.0
361,1436970295378,5.0
362,1436970295379,5.0
363,1436970295387,5.0
364,1436970295420,4.0
365,1436970295430,4.0
366,1436970295480,3.0
367,1436970295484,3.0
368,1436970295488,2.0
369,1436970295506,2.0
370,1436970295526,2.0
371,1436970295546,2.0
372,1436970295567,4.0
373,1436970295590,4.0
374,1436970295610,4.0
375,1436970295630,4.0
376,1436970295650,3.0
377,1436970295670,3.0
378,1436970295689,3.0
379,1436970295710,3.0
380,1436970295731,3.0
381,1436970295750,3.0
382,1436970295771,4.0
383,1436970295787,4.0
384,1436970295807,5.0
385,1436970295827,5.0
386,1436970295850,5.0
387,1436970295872,5.0
388,1436970295895,5.0
389,1436970295910,4.0
390,1436970295928,4.0
391,1436970295948,3.0
392,1436970295967,3.0
393,1436970296072,2.0
394,1436970296076,2.0
395,1436970296077,4.0
396,1436970296078,4.0
397,1436970296104,4.0
398,1436970296114,4.0
399,1436970296115,3.0
400,1436970296175,3.0
401,1436970296176,4.0
402,1436970296177,4.0
403,1436970296195,4.0
404,1436970296216,4.0
405,1436970296227,4.0
406,1436970296247,4.0
407,1436970296268,5.0
408,1436970296288,5.0
409,1436970296437,6.0
410,1436970296438,6.0
411,1436970296439,6.0
412,1436970296440,6.0
413,1436970296441,6.0
414,1436970296442,6.0
415,1436970296443,5.0
416,1436970296447,5.0
417,1436970296468,4.0
418,1436970296489,4.0
419,1436970296507,4.0
420,1436970296528,4.0
421,1436970296549,5.0
422,1436970296570,5.0
423,1436970296589,6.0
424,1436970296608,6.0
425,1436970296629,5.0
426,1436970296647,5.0
427,1436970296669,5.0
428,1436970296689,5.0
429,1436970296709,5.0
430,1436970296730,5.0
431,1436970296750,5.0
432,1436970296770,6.0
433,1436970296787,6.0
434,1436970296809,6.0
435,1436970296832,6.0
436,1436970296847,6.0
437,1436970296867,6.0
438,1436970296887,7.0
439,1436970296908,7.0
440,1436970296928,7.0
441,1436970296948,7.0
442,1436970296968,7.0
443,1436970296987,7.0
444,1436970297008,7.0
445,1436970297028,7.0
446,1436970297048,8.0
447,1436970297068,8.0
448,1436970297088,7.0
449,1436970297108,7.0
450,1436970297128,6.0
451,1436970297149,6.0
452,1436970297170,7.0
453,1436970297190,7.0
454,1436970297209,6.0
455,1436970297229,6.0
456,1436970297249,7.0
457,1436970297269,7.0
458,1436970297289,8.0
459,1436970297310,8.0
460,1436970297330,7.0
461,1436970297349,7.0
462,1436970297369,8.0
463,1436970297389,8.0
464,1436970297410,7.0
465,1436970297430,7.0
466,1436970297449,6.0
467,1436970297469,6.0
468,1436970297490,5.0
469,1436970297516,5.0
470,1436970297587,6.0
471,1436970297599,6.0
472,1436970297600,8.0
473,1436970297601,8.0
474,1436970297612,7.0
475,1436970297630,7.0
476,1436970297651,6.0
477,1436970297669,6.0
478,1436970297689,6.0
479,1436970297713,6.0
480,1436970297730,6.0
481,1436970297750,7.0
482,1436970297770,7.0
483,1436970297790,10.0
484,1436970297811,10.0
485,1436970297831,10.0
486,1436970297850,10.0
487,1436970297872,12.0
488,1436970297892,12.0
489,1436970297913,9.0
490,1436970297932,9.0
491,1436970297949,8.0
492,1436970297970,8.0
493,1436970297996,7.0
494,1436970298010,7.0
495,1436970298037,9.0
496,1436970298052,9.0
497,1436970298070,14.0
498,1436970298092,14.0
499,1436970298110,14.0
500,1436970298132,14.0
501,1436970298149,11.0
502,1436970298171,11.0
503,1436970298191,10.0
504,1436970298211,10.0
505,1436970298231,9.0
506,1436970298255,9.0
507,1436970298313,13.0
508,1436970298324,13.0
509,1436970298325,11.0
510,1436970298332,11.0
511,1436970298351,10.0
512,1436970298374,10.0
513,1436970298390,11.0
514,1436970298410,11.0
515,1436970298435,8.0
516,1436970298450,8.0
517,1436970298472,7.0
518,1436970298491,7.0
519,1436970298514,8.0
520,1436970298531,16.0
521,1436970298551,16.0
522,1436970298570,24.0
523,1436970298593,24.0
524,1436970298613,15.0
525,1436970298630,15.0
526,1436970298652,10.0
527,1436970298671,10.0
528,1436970298692,11.0
529,1436970298717,11.0
530,1436970298732,9.0
531,1436970298753,9.0
532,1436970298771,25.0
533,1436970298792,25.0
534,1436970298813,40.0
535,1436970298830,40.0
536,1436970298854,73.0
537,1436970298871,73.0
538,1436970298892,51.0
539,1436970298920,51.0
540,1436970298934,25.0
541,1436970298952,25.0
542,1436970299044,14.0
543,1436970299045,14.0
544,1436970299046,15.0
545,1436970299047,15.0
546,1436970299080,49.0
547,1436970299083,49.0
548,1436970299091,61.0
549,1436970299110,61.0
550,1436970299131,27.0
551,1436970299150,27.0
552,1436970299216,17.0
553,1436970299217,17.0
554,1436970299218,23.0
555,1436970299230,23.0
556,1436970299250,33.0
557,1436970299270,33.0
558,1436970299291,122.0
559,1436970299314,122.0
560,1436970299333,112.0
561,1436970299353,112.0
562,1436970299374,154.0
563,1436970299393,1048.0
564,1436970299415,101.0
565,1436970299433,23.0
566,1436970299451,23.0
567,1436970299471,7.0
568,1436970299495,7.0
569,1436970299511,26.0
570,1436970299531,26.0
571,1436970299551,63.0
572,1436970299571,63.0
573,1436970299591,34.0
574,1436970299612,34.0
575,1436970299633,10.0
576,1436970299651,10.0
577,1436970299671,17.0
578,1436970299691,17.0
579,1436970299714,30.0
580,1436970299731,30.0
581,1436970299805,31.0
582,1436970299806,31.0
583,1436970299807,54.0
584,1436970299815,54.0
585,1436970299831,49.0
586,1436970299855,49.0
587,1436970299871,54.0
588,1436970299891,54.0
589,1436970299915,93.0
590,1436970299935,93.0
591,1436970299955,89.0
592,1436970299971,89.0
593,1436970299997,40.0
594,1436970300011,40.0
595,1436970300036,52.0
596,1436970300123,52.0
597,1436970300124,144.0
598,1436970300125,144.0
599,1436970300126,189.0
600,1436970300155,189.0
601,1436970300156,138.0
602,1436970300171,138.0
603,1436970300193,116.0
604,1436970300214,116.0
605,1436970300232,160.0
606,1436970300252,160.0
607,1436970300275,140.0
608,1436970300295,445.0
609,1436970300314,445.0
610,1436970300334,444.0
611,1436970300356,444.0
612,1436970300375,428.0
613,1436970300395,428.0
614,1436970300413,207.0
615,1436970300431,207.0
616,1436970300453,124.0
617,1436970300518,124.0
618,1436970300519,219.0
619,1436970300520,219.0
620,1436970300542,436.0
621,1436970300552,436.0
622,1436970300574,441.0
623,1436970300591,441.0
624,1436970300612,359.0
625,1436970300633,359.0
626,1436970300652,296.0
627,1436970300676,296.0
628,1436970300696,252.0
629,1436970300713,252.0
630,1436970300732,195.0
631,1436970300753,195.0
632,1436970300775,126.0
633,1436970300795,126.0
634,1436970300815,60.0
635,1436970300835,60.0
636,1436970300852,118.0
637,1436970300875,118.0
638,1436970300895,218.0
639,1436970300916,218.0
640,1436970300934,145.0
641,1436970300954,145.0
642,1436970300975,176.0
643,1436970300996,176.0
644,1436970301016,435.0
645,1436970301035,435.0
646,1436970301056,505.0
647,1436970301086,505.0
648,1436970301095,472.0
649,1436970301118,472.0
650,1436970301140,407.0
651,1436970301186,490.0
652,1436970301293,490.0
653,1436970301294,545.0
654,1436970301295,545.0
655,1436970301296,498.0
656,1436970301297,498.0
657,1436970301298,468.0
658,1436970301299,468.0
659,1436970301381,412.0
660,1436970301382,412.0
661,1436970301383,419.0
662,1436970301384,419.0
663,1436970301432,171.0
664,1436970301433,171.0
665,1436970301434,51.0
666,1436970301452,51.0
667,1436970301472,71.0
668,1436970301492,71.0
669,1436970301527,244.0
670,1436970301532,244.0
671,1436970301555,357.0
672,1436970301576,357.0
673,1436970301593,201.0
674,1436970301614,201.0
675,1436970301633,190.0
676,1436970301655,190.0
677,1436970301676,309.0
678,1436970301693,309.0
679,1436970301716,358.0
680,1436970301736,358.0
681,1436970301754,502.0
682,1436970301773,502.0
683,1436970301796,537.0
684,1436970301813,537.0
685,1436970301833,515.0
686,1436970301853,515.0
687,1436970301873,464.0
688,1436970301898,464.0
689,1436970301919,283.0
690,1436970301940,283.0
691,1436970301954,97.0
692,1436970302021,97.0
693,1436970302035,173.0
694,1436970302036,411.0
695,1436970302037,411.0
696,1436970302053,463.0
697,1436970302073,463.0
698,1436970302093,391.0
699,1436970302113,391.0
700,1436970302142,341.0
701,1436970302158,341.0
702,1436970302175,425.0
703,1436970302195,425.0
704,1436970302218,461.0
705,1436970302237,461.0
706,1436970302255,579.0
707,1436970302277,579.0
708,1436970302297,569.0
709,1436970302316,569.0
710,1436970302337,575.0
711,1436970302357,575.0
712,1436970302377,519.0
713,1436970302395,519.0
714,1436970302415,420.0
715,1436970302435,420.0
716,1436970302456,264.0
717,1436970302476,264.0
718,1436970302496,215.0
719,1436970302516,215.0
720,1436970302537,372.0
721,1436970302557,372.0
722,1436970302577,419.0
723,1436970302598,419.0
724,1436970302616,327.0
725,1436970302636,327.0
726,1436970302657,325.0
727,1436970302676,325.0
728,1436970302696,567.0
729,1436970302726,567.0
730,1436970302764,423.0
731,1436970302765,423.0
732,1436970302776,334.0
733,1436970302794,334.0
734,1436970302814,395.0
735,1436970302834,395.0
736,1436970302878,449.0
737,1436970302879,449.0
738,1436970302894,230.0
739,1436970302914,63.0
740,1436970302937,63.0
741,1436970302958,37.0
742,1436970302978,37.0
743,1436970302997,111.0
744,1436970303015,111.0
745,1436970303037,315.0
746,1436970303057,315.0
747,1436970303077,426.0
748,1436970303096,426.0
749,1436970303116,320.0
750,1436970303138,320.0
751,1436970303155,254.0
752,1436970303177,254.0
753,1436970303198,456.0
754,1436970303216,456.0
755,1436970303235,483.0
756,1436970303256,483.0
757,1436970303280,390.0
758,1436970303300,390.0
759,1436970303321,483.0
760,1436970303337,483.0
761,1436970303355,459.0
762,1436970303376,459.0
763,1436970303396,357.0
764,1436970303417,357.0
765,1436970303435,211.0
766,1436970303499,211.0
767,1436970303509,197.0
768,1436970303510,197.0
769,1436970303518,356.0
770,1436970303537,356.0
771,1436970303559,538.0
772,1436970303575,538.0
773,1436970303607,547.0
774,1436970303615,547.0
775,1436970303636,451.0
776,1436970303656,451.0
777,1436970303676,450.0
778,1436970303699,450.0
779,1436970303719,541.0
780,1436970303737,541.0
781,1436970303759,702.0
782,1436970303778,904.0
783,1436970303798,1280.0
784,1436970303817,1154.0
785,1436970303835,1154.0
786,1436970303858,1180.0
787,1436970303878,1180.0
788,1436970303896,987.0
789,1436970303918,987.0
790,1436970303937,638.0
791,1436970303956,638.0
792,1436970303978,350.0
793,1436970303997,350.0
794,1436970304018,278.0
795,1436970304039,278.0
796,1436970304059,361.0
797,1436970304078,361.0
798,1436970304097,353.0
799,1436970304117,353.0
800,1436970304137,277.0
801,1436970304168,277.0
802,1436970304223,269.0
803,1436970304224,269.0
804,1436970304236,245.0
805,1436970304237,245.0
806,1436970304256,491.0
807,1436970304282,491.0
808,1436970304296,1468.0
809,1436970304318,1468.0
810,1436970304336,2007.0
811,1436970304357,2007.0
812,1436970304381,1829.0
813,1436970304399,1829.0
814,1436970304418,1256.0
815,1436970304439,1256.0
816,1436970304458,643.0
817,1436970304479,643.0
818,1436970304499,528.0
819,1436970304519,528.0
820,1436970304539,777.0
821,1436970304559,777.0
822,1436970304580,1020.0
823,1436970304599,1020.0
824,1436970304621,998.0
825,1436970304642,1361.0
826,1436970304677,953.0
827,1436970304678,1527.0
828,1436970304696,1527.0
829,1436970304719,1538.0
830,1436970304739,1538.0
831,1436970304759,1576.0
832,1436970304779,1576.0
833,1436970304798,1753.0
834,1436970304817,1753.0
835,1436970304837,1758.0
836,1436970304859,1758.0
837,1436970304881,1078.0
838,1436970304900,1078.0
839,1436970304918,550.0
840,1436970304943,550.0
841,1436970305003,405.0
842,1436970305004,405.0
843,1436970305005,538.0
844,1436970305016,538.0
845,1436970305036,880.0
846,1436970305062,880.0
847,1436970305078,894.0
848,1436970305096,894.0
849,1436970305117,694.0
850,1436970305141,694.0
851,1436970305162,846.0
852,1436970305180,846.0
853,1436970305196,983.0
854,1436970305219,983.0
855,1436970305240,1497.0
856,1436970305260,1497.0
857,1436970305278,2054.0
858,1436970305298,2054.0
859,1436970305320,1988.0
860,1436970305340,1988.0
861,1436970305360,1342.0
862,1436970305380,1342.0
863,1436970305398,608.0
864,1436970305419,608.0
865,1436970305440,502.0
866,1436970305466,502.0
867,1436970305480,787.0
868,1436970305497,787.0
869,1436970305522,1393.0
870,1436970305542,1465.0
871,1436970305563,1384.0
872,1436970305580,1368.0
873,1436970305598,1368.0
874,1436970305618,1717.0
875,1436970305637,1717.0
876,1436970305659,1876.0
877,1436970305685,1876.0
878,1436970305745,2158.0
879,1436970305746,2158.0
880,1436970305758,2527.0
