id,attr_time,attr_db
1,1437230989795,25.2467442195207
2,1437230990523,22.2971572634601
3,1437230991315,14.6585285605699
4,1437230992042,39.5029286530711
5,1437230992763,57.7808836056378
6,1437230993456,53.2798722496638
7,1437230994122,68.5070755906052
8,1437230994860,65.3750914205041
9,1437230995589,59.9904993855656
10,1437230996347,67.0062325696629
11,1437230997133,68.2887917606024
12,1437230997874,67.081122221845
13,1437230998565,60.7869338737142
14,1437230999218,69.2198594605033
15,1437230999944,67.8045663169836
16,1437231000716,61.388339102384
17,1437231001457,68.0395406024979
18,1437231002175,72.1880454818095
19,1437231002892,67.7794205318714
20,1437231003569,69.7941720170092
21,1437231004245,68.585781350349
22,1437231004946,67.5744524509477
23,1437231005667,71.7409704116932
24,1437231006390,68.5223705408032
25,1437231007113,68.823100834665
26,1437231007848,70.2251131234342
27,1437231008612,74.6506380185525
28,1437231009327,75.5582669628486
29,1437231009998,70.9720348329186
30,1437231010789,74.0414863356543
31,1437231011503,71.8137328357532
32,1437231012237,69.4831453435393
33,1437231012962,67.5919183025944
34,1437231013763,55.7138599773817
35,1437231014420,69.93233405323
36,1437231015216,57.7292009449058
37,1437231015893,65.5776105139017
38,1437231016646,59.9967503541088
39,1437231017438,68.0274391414526
40,1437231018109,61.9399581114186
41,1437231018858,67.4220891024924
42,1437231019590,67.1158622624689
43,1437231020225,53.2172953815333
44,1437231020947,60.1543291634113
45,1437231021598,55.4638373161088
46,1437231022350,62.9809956505501
47,1437231023065,61.9884881426607
48,1437231023787,65.5836884014333
49,1437231024513,65.902957309545
50,1437231025294,65.5049122678304
51,1437231026027,62.8320302936784
52,1437231026777,59.4215253259643
53,1437231027560,58.6038470528667
54,1437231028275,58.1923422765254
55,1437231029011,65.0066188925757
56,1437231029717,63.9455378466081
57,1437231030372,63.314535935149
58,1437231031089,57.8333021163294
59,1437231031816,59.665262455796
60,1437231032529,59.8872606767296
61,1437231033279,64.0525383108152
62,1437231034001,63.8941873798238
63,1437231034760,60.5223988831541
64,1437231035495,70.5887174083111
65,1437231036201,68.8850748609988
66,1437231036939,67.6085326392365
67,1437231037670,71.1942498505738
68,1437231038398,69.7562603500429
69,1437231039126,58.0364496675014
70,1437231039837,36.7289773853212
71,1437231040566,26.9695332523892
72,1437231041325,64.4833690878156
73,1437231042060,71.7855544828593
74,1437231042808,72.3680607661618
75,1437231043536,75.1581003510987
76,1437231044310,69.5081882681041
77,1437231045028,66.7813607002709
78,1437231045744,69.653668506983
79,1437231046463,68.7703566037395
80,1437231047200,69.7478070996308
81,1437231047921,69.4321336235534
82,1437231048671,63.9541123744857
83,1437231049427,61.0952331040461
84,1437231050131,59.0772523519048
85,1437231050837,57.5841050735892
86,1437231051553,59.5566780574996
87,1437231052242,61.7794081608943
88,1437231052979,58.3753964430315
89,1437231053713,59.4122812069075
90,1437231054435,49.1895871577558
91,1437231055161,57.9462519317362
92,1437231055885,53.5913461078548
93,1437231056649,62.2747655603418
94,1437231057396,66.4611853781023
95,1437231058115,66.3614090518724
96,1437231058837,60.331064018199
97,1437231059566,60.2901395098042
98,1437231060316,60.9915955113448
99,1437231061042,58.3423078270838
100,1437231061785,62.9962739515271
101,1437231062511,60.2545049883081
102,1437231063256,67.7597547967485
103,1437231063976,69.9012069974455
104,1437231064721,70.1121102027366
105,1437231065457,69.4756617674044
106,1437231066203,76.365991242039
107,1437231066926,74.7022801193127
108,1437231067673,76.1328698654246
109,1437231068413,72.959949153365
110,1437231069175,70.6068871492893
111,1437231069892,72.566584116301
112,1437231070649,68.1241809700723
113,1437231071407,65.0091647360045
114,1437231072130,64.3055883012364
115,1437231072869,61.6418737443716
116,1437231073644,60.7216156725375
117,1437231074482,47.2646396025477
118,1437231075171,61.7044848323922
119,1437231075838,57.0402918031417
120,1437231076515,67.3860898846755
121,1437231077222,63.4016935273914
122,1437231077873,63.5945990364463
123,1437231078577,60.2379864900686
124,1437231079305,61.39485589313
125,1437231079948,59.9510606789055
126,1437231080706,60.5941434351057
127,1437231081465,68.2757701574942
128,1437231082216,62.7068951031497
129,1437231082942,58.9236672697269
130,1437231083676,57.2741374671087
131,1437231084424,60.0996847341493
132,1437231085166,65.282154775249
133,1437231085885,63.053449863272
134,1437231086616,59.3949785703431
135,1437231087376,70.1360721413371
136,1437231088095,70.16531883669
137,1437231088808,69.0951535004411
138,1437231089531,67.1872789615925
139,1437231090237,70.2212993427764
140,1437231090946,69.0103360322631
141,1437231091732,68.9700669984826
142,1437231092463,71.2250732372398
143,1437231093207,74.0478800047774
144,1437231093936,72.7344246313484
145,1437231094665,72.8502309123612
146,1437231095431,70.020809653303
147,1437231096123,68.2154248620231
148,1437231096869,70.2289394245885
149,1437231097628,67.2017940019614
150,1437231098376,66.5096505534342
151,1437231099099,60.6478575396647
152,1437231099821,65.2782097648269
153,1437231100537,63.1429444587961
154,1437231101310,63.8864528209721
155,1437231102060,63.6938763750425
156,1437231102808,61.4945876661451
157,1437231103532,57.189903997959
158,1437231104392,66.5208726309947
159,1437231105141,70.3386816118284
160,1437231105926,73.7278309277758
161,1437231106635,73.9441391468246
162,1437231107356,70.2284542122075
163,1437231108090,72.9637178475521
164,1437231108829,74.2665834936497
165,1437231109559,71.2996149643808
166,1437231110345,70.7109560329659
167,1437231111091,69.6236647773273
168,1437231111812,69.3817959273067
169,1437231112544,67.586158761804
170,1437231113295,63.9090463847363
171,1437231114028,62.7785492499709
172,1437231114762,57.7464520429338
173,1437231115486,56.2763263618236
174,1437231116193,55.0073711495244
175,1437231116952,62.241505181977
176,1437231117687,65.6038933309929
177,1437231118436,58.7676128203561
178,1437231119136,57.6406303787627
179,1437231119862,62.6890192064753
180,1437231120581,64.4158411948003
181,1437231121301,52.533139516556
182,1437231121901,60.9085816471701
183,1437231122610,60.1398644059992
184,1437231123340,57.627608747937
185,1437231124057,56.3051519186118
186,1437231124772,58.5418149390632
187,1437231125500,59.6222957546029
188,1437231126197,55.5629259732259
189,1437231126928,61.7532104732447
190,1437231127672,63.1165884502743
191,1437231128429,65.3828058896215
192,1437231129155,56.9245614900261
193,1437231129890,54.650552521651
194,1437231130668,56.1905904514408
195,1437231131401,61.0260827939996
196,1437231132105,60.1733011124757
197,1437231132786,56.8553867326418
198,1437231133527,61.8147522925545
199,1437231134248,59.2027520140309
200,1437231134964,65.4845458633806
201,1437231135701,61.4173838391365
202,1437231136328,54.2776882835079
203,1437231136970,61.1490866590646
204,1437231137683,61.1877343049701
205,1437231138417,61.9752369195055
206,1437231139157,56.4871136795638
207,1437231139884,56.4306211526421
208,1437231140629,63.0112843657178
209,1437231141360,64.0728324799564
210,1437231142080,62.5747548209641
211,1437231142822,69.1511439341977
212,1437231143554,65.8560257261412
213,1437231144268,70.3124035720439
214,1437231144944,64.6436991499999
215,1437231145676,65.9509449201772
216,1437231146453,67.8648507767678
217,1437231147193,73.118711239607
218,1437231147928,72.9461727729821
219,1437231148677,72.1214628206973
220,1437231149428,71.0972547604578
221,1437231150171,70.1483612711302
222,1437231150918,67.9953633485244
223,1437231151647,54.2970114901556
224,1437231152670,68.4404188747747
225,1437231153330,65.3769962483073
226,1437231154041,63.4417589835539
227,1437231154763,62.2139668407989
228,1437231155492,61.3766614001845
229,1437231156333,67.583806388687
230,1437231157044,67.9434937810509
231,1437231157774,65.5406953690334
232,1437231158494,64.6585452006665
233,1437231159197,65.6286323097412
234,1437231160775,70.4547233223576
235,1437231161437,71.5858917848616
236,1437231162130,75.463310034959
237,1437231162881,71.2174924096751
238,1437231163592,72.180055471784
239,1437231164309,72.8749387235585
240,1437231165009,71.7334057394746
241,1437231165743,74.3277619082822
242,1437231166473,75.1996991785864
243,1437231167207,74.4282012164819
244,1437231167917,74.3319102768714
245,1437231168661,74.0060372957732
246,1437231169406,71.9203230896121
247,1437231170091,73.7481585451269
248,1437231171606,73.4702448100926
249,1437231172309,75.2111465406378
250,1437231172981,68.7128124230497
251,1437231173691,63.2676107594943
252,1437231174409,67.0988331881879
253,1437231175143,69.0543660746314
254,1437231175870,70.1734187087634
255,1437231176599,61.3442387264136
256,1437231177267,62.876928372608
257,1437231177999,68.0983546196739
258,1437231178716,64.0727935498411
259,1437231179450,67.2769670191626
260,1437231180197,69.263731156298
261,1437231180980,63.3962579475173
262,1437231181667,69.6119185180027
263,1437231182363,66.4561075731246
264,1437231183097,69.496291193394
265,1437231183805,62.5674380036942
266,1437231184495,62.6748309740876
267,1437231186700,64.4162880111115
268,1437231187438,63.989834621486
269,1437231188171,66.4528212688635
270,1437231188891,66.2960088809541
271,1437231189622,67.7814862167709
272,1437231190364,71.3476661857524
273,1437231191174,63.1453246288439
274,1437231191884,72.5580204057746
275,1437231192550,70.2309575022616
276,1437231193282,69.9740089323084
277,1437231195230,54.6556376004374
278,1437231195912,66.9289832453895
279,1437231196612,68.0090585690821
280,1437231197307,66.0207310295498
281,1437231198040,67.0648474950194
282,1437231198764,67.5801955356371
283,1437231199525,58.7149802618465
284,1437231200177,69.416983852068
285,1437231200915,68.7530924243125
286,1437231201646,66.415023623265
287,1437231202394,66.3161891488035
288,1437231203119,64.6955053708272
289,1437231203841,67.2032294819798
290,1437231204565,64.1867332091443
291,1437231205330,60.695875670431
292,1437231206061,60.0103898617058
293,1437231206788,60.6930328139488
294,1437231207517,64.0106624740775
295,1437231208180,65.1327859098271
296,1437231208906,61.4535509495102
297,1437231209625,63.8514893811491
298,1437231210351,66.3957492209794
299,1437231211095,63.8882751974559
300,1437231211785,64.1850149318119
301,1437231212457,61.8683058928381
302,1437231213185,62.5074887462562
303,1437231213911,59.1411767999847
304,1437231214633,62.6445070321189
305,1437231215392,61.1375281577093
306,1437231216065,61.9347966837074
307,1437231216727,64.0916936534195
308,1437231217441,64.5082515953576
309,1437231218163,65.1014652733391
310,1437231218882,67.6712457253949
311,1437231219618,67.0410563172909
312,1437231220356,64.5163128836872
313,1437231221098,64.0499058831165
314,1437231221801,64.852461704716
315,1437231222411,64.2059483854802
316,1437231223102,61.2324117042209
317,1437231223819,60.6197320089506
318,1437231224539,57.8583829591131
319,1437231225279,59.6598829480065
320,1437231225985,58.3821576588738
321,1437231226778,69.8862484243974
322,1437231227451,58.8474549865137
323,1437231228167,60.8690921888794
324,1437231228839,60.3026163013144
325,1437231229556,59.3273637376086
326,1437231230277,61.1930581630082
327,1437231231005,61.809580568909
328,1437231231806,63.532399214283
329,1437231232466,59.1290102601485
330,1437231233168,65.8300602227143
331,1437231233888,64.8226356168404
332,1437231234594,68.0931698650996
333,1437231235345,65.4308736636544
334,1437231236070,65.1730249304654
335,1437231236817,55.2303953790631
336,1437231237486,65.6197431809705
337,1437231238173,71.0014425075786
338,1437231238907,67.1823573508075
339,1437231239640,70.3207614217143
340,1437231240434,55.3512044999014
341,1437231241141,63.8866143087662
342,1437231241895,60.5774645255792
343,1437231242537,69.1141971091387
344,1437231243219,70.0967817050576
345,1437231243942,67.2790189214275
346,1437231244676,67.4630858319693
347,1437231245402,65.8834021032166
348,1437231246108,68.6924896160902
349,1437231246840,69.4346221152248
350,1437231247562,70.3039115160082
351,1437231248317,67.0987341523932
352,1437231249052,67.2659193503385
353,1437231249776,67.3716042220735
354,1437231250503,70.7827068295789
355,1437231251337,63.2117696452643
356,1437231251933,67.9095222854162
357,1437231252619,72.7123859880223
358,1437231253342,72.8454157804535
359,1437231254072,73.8443210741929
360,1437231254784,73.1721095591234
361,1437231255485,72.5517373712956
362,1437231256228,72.3260674731339
363,1437231256999,70.7405699144024
364,1437231257689,72.3094708273513
365,1437231258418,72.1062247467557
366,1437231259158,70.7927611814734
367,1437231259894,72.0309901657161
368,1437231260669,70.2005564942777
369,1437231261435,65.3511890018098
370,1437231262175,70.1751086884468
371,1437231262882,68.7174873220408
372,1437231263620,69.8413617485805
373,1437231264356,72.9246900872689
374,1437231265095,67.992290118095
375,1437231265805,69.6484207127591
376,1437231266525,67.9986516882424
377,1437231267280,69.4636654666481
378,1437231267995,69.1068919772394
379,1437231268745,70.8441608295943
380,1437231269486,69.5455483075574
381,1437231270233,71.8128738411056
382,1437231270986,69.545590371878
383,1437231271726,69.7980888951288
384,1437231272455,67.8526891772429
385,1437231273181,66.6289122013544
386,1437231273924,66.5922236944351
387,1437231274653,69.3027980124284
388,1437231275424,65.1209756927095
389,1437231276202,60.507547410097
390,1437231276926,57.8770216962861
391,1437231277643,62.1425712947521
392,1437231278408,60.4385193797375
393,1437231279146,66.4972535673079
394,1437231279869,67.8086025556799
395,1437231280638,59.4098564581947
396,1437231281331,67.6422984404832
397,1437231281958,60.2625153337718
398,1437231282627,70.4341446342206
399,1437231283362,67.9325373891541
400,1437231284100,67.357114341401
401,1437231284838,68.2945578064218
402,1437231285562,71.9260104270112
403,1437231286337,67.9902595276284
404,1437231287174,68.7484184053089
405,1437231287879,52.3496973648805
406,1437231288599,58.4719111708745
407,1437231289338,57.5218968036747
408,1437231290042,53.400356009587
409,1437231290761,60.8400162878074
410,1437231291494,53.9193188605775
411,1437231292127,68.5025003352632
412,1437231292806,71.9615960895859
413,1437231293538,71.427925517934
414,1437231294284,72.5784374472864
415,1437231295008,68.3579393548798
416,1437231295801,69.4214159561604
417,1437231296530,58.637745739377
418,1437231297291,62.0429027551127
419,1437231297946,64.9481292804947
420,1437231298632,66.5932129500211
421,1437231299319,71.5709363257705
422,1437231300046,71.9240718487205
423,1437231300774,72.4957960198623
424,1437231301471,69.827317701392
425,1437231302126,71.6623606074542
426,1437231302828,72.0480013820642
427,1437231303475,67.0652321311202
428,1437231304223,71.5474987900935
429,1437231304954,73.533278460179
430,1437231305694,73.9154129159722
431,1437231306473,71.748749507559
432,1437231307207,74.3061704381359
433,1437231307925,72.3560128261141
434,1437231308630,74.5959159704051
435,1437231309366,71.9021994274976
436,1437231310078,71.8302764275067
437,1437231310839,71.3250562364142
438,1437231311585,69.6336719888345
439,1437231312347,68.870566132348
440,1437231313073,69.2264797505803
441,1437231313794,66.3798129859867
442,1437231314532,65.9990165876727
443,1437231315269,69.3951841961606
444,1437231316012,66.9095666211244
445,1437231316723,66.7055070648375
446,1437231317435,57.9577071678081
447,1437231318095,68.8050960685379
448,1437231318794,67.8079529526993
449,1437231319529,68.5701565316497
450,1437231320280,68.4678175983422
451,1437231320990,69.5483485233944
452,1437231321723,68.301051495686
453,1437231322450,65.1584497631711
454,1437231323195,61.21570988482
455,1437231323917,58.0603222743724
456,1437231324647,56.8733292298137
457,1437231325396,57.8232147376056
458,1437231326126,51.8664171163057
459,1437231326850,61.7113088456531
460,1437231327600,61.6681287297321
461,1437231328344,65.4467101727564
462,1437231329056,67.66539676517
463,1437231329722,56.5319209330628
464,1437231330485,68.4036962250071
465,1437231331228,61.3155989831727
466,1437231331953,62.6806021913107
467,1437231332722,59.0080588900293
468,1437231333468,64.8794222435296
469,1437231334207,62.8604585572059
470,1437231334931,61.4790127112706
471,1437231335659,63.8785435879023
472,1437231336392,61.018308058906
473,1437231337109,60.0186739148248
474,1437231337826,62.6292941130892
475,1437231338548,61.8663379675069
476,1437231339278,60.5571846102282
477,1437231340001,60.632887457289
478,1437231340731,63.0503180195598
479,1437231341460,62.2732315933443
480,1437231342173,59.7619422762064
481,1437231342866,60.1752087585354
482,1437231343609,60.4057021779025
483,1437231344376,63.6925017689514
484,1437231345080,57.546011892358
485,1437231345823,66.702669379442
486,1437231346566,70.369409691107
487,1437231347329,69.8696997079512
488,1437231348058,69.7690924554015
489,1437231348783,67.871114434275
490,1437231349498,69.5882026280474
491,1437231350220,72.127411715556
492,1437231350930,70.9732139657333
493,1437231351750,70.1121522021509
494,1437231352469,71.5377246139707
495,1437231353221,71.266225850557
496,1437231353970,67.2429470944662
497,1437231354701,68.8479278592724
498,1437231355433,67.4509999121413
499,1437231356229,70.7340851572042
500,1437231356952,67.2636213602162
501,1437231357704,71.9248343487598
502,1437231358445,67.9333260252565
503,1437231359166,68.4725581922391
504,1437231359891,69.6765449784809
505,1437231360633,70.1912322593826
506,1437231361388,65.9354546078317
507,1437231362136,66.8853937417694
508,1437231362870,69.0277664800442
509,1437231363577,67.3996898629339
510,1437231365331,51.1345888810985
511,1437231366058,64.0562312784643
512,1437231366837,61.787066768641
513,1437231367555,50.6679532915345
514,1437231368292,58.8475693645048
515,1437231368995,58.5277707179623
516,1437231369733,59.0584800212375
517,1437231370471,64.6526980474263
518,1437231371215,64.7067348265811
519,1437231371916,59.5973776144946
520,1437231372607,59.436538367795
521,1437231373344,67.4188156967193
522,1437231373945,65.3660558013077
523,1437231374673,66.1288166055181
524,1437231375400,66.2746756997623
525,1437231376129,66.8531472064529
526,1437231376913,63.999842600695
527,1437231377591,67.6249394657225
528,1437231378298,70.7519584795971
529,1437231379731,66.9215740872136
530,1437231380469,68.3778955683193
531,1437231381284,70.7658302233433
532,1437231382016,65.0483271731729
533,1437231382733,63.0971113682125
534,1437231383453,62.5291824896096
535,1437231384170,64.9349795607621
536,1437231384855,70.9278200574985
537,1437231385586,69.338919841006
538,1437231386426,64.6931420645432
539,1437231387147,56.0559706509569
540,1437231387838,53.1673446288163
541,1437231388498,67.4057275387116
542,1437231389255,62.4928412207372
543,1437231389988,61.9961195008883
544,1437231390669,64.0605639760675
545,1437231391384,70.9178870538902
546,1437231392126,64.9703770942063
547,1437231392861,67.4597071788719
548,1437231393577,65.4402234796079
549,1437231394289,67.7749793117499
550,1437231394999,67.9828739623312
551,1437231395724,68.3396190398313
552,1437231396515,66.1046711403601
553,1437231397268,55.2014221312959
554,1437231397988,61.1136467224113
555,1437231398714,49.6833863034611
556,1437231399453,54.0618498166745
557,1437231400168,57.1157058478076
558,1437231400795,68.6834814370229
559,1437231402804,72.6092895645401
560,1437231403472,73.890805024553
561,1437231404202,75.8370745954253
562,1437231404890,74.7169853298375
563,1437231405565,71.0300488209351
564,1437231406317,69.7818414798243
565,1437231407103,74.2178437739359
566,1437231407841,74.6169839350085
567,1437231408567,75.5979121518098
568,1437231409302,75.7039055251928
569,1437231409996,70.5070455730029
570,1437231410719,68.6979886437849
571,1437231411506,70.7286613701912
572,1437231412240,74.8865692633562
573,1437231412972,72.9106832668309
574,1437231413690,74.5842881108402
575,1437231415294,70.7153530678906
