id,attr_time,attr_db
1,1437230989578,21.7356468533162
2,1437230990278,13.8565571479111
3,1437230990950,20.3903330358642
4,1437230991656,17.9725582098598
5,1437230992379,23.5375946679895
6,1437230993112,28.9417279785716
7,1437230993802,47.5660481076978
8,1437230994470,54.9211230692435
9,1437230995127,66.2503110504766
10,1437230995810,62.6537411526785
11,1437230996550,63.6230034156946
12,1437230997251,63.4726355317763
13,1437230997972,51.1968225427689
14,1437230998702,48.0820211881507
15,1437230999528,47.0983564971352
16,1437231000288,46.2968532074884
17,1437231001009,66.815445606727
18,1437231001731,69.5993137716356
19,1437231002486,67.1816966540542
20,1437231003215,59.8423103781296
21,1437231003937,60.5147728974679
22,1437231004631,54.48336279832
23,1437231005312,51.7293652504517
24,1437231005960,68.2874035552784
25,1437231007911,36.8897821239426
26,1437231008613,47.5357540408607
27,1437231009337,38.3508838900309
28,1437231009995,38.7960709557712
29,1437231010714,39.9913431016322
30,1437231011462,37.742426085158
31,1437231012181,37.2188091302459
32,1437231012899,39.017458724051
33,1437231013599,37.2746612305464
34,1437231014319,41.7001090749185
35,1437231015119,70.2697045508044
36,1437231015851,70.5940914374518
37,1437231016536,65.4525188455036
38,1437231017982,64.6321556168483
39,1437231018743,64.5180864514874
40,1437231019522,54.8770392078068
41,1437231020220,57.7284390731516
42,1437231020955,48.8398547167826
43,1437231021666,49.0885710449181
44,1437231022370,46.5103841685221
45,1437231023089,51.3935177192435
46,1437231023814,48.9100376128684
47,1437231024569,63.5570718519373
48,1437231025246,51.4870959543095
49,1437231025918,52.2407827708689
50,1437231026600,52.5823986765111
51,1437231027343,48.0571476773281
52,1437231028080,59.3464301817343
53,1437231028819,52.3709613890763
54,1437231029564,61.5384730914949
55,1437231030276,55.6213496319231
56,1437231031047,57.365080573989
57,1437231033032,61.2079013366453
58,1437231033765,54.375116743207
59,1437231034525,48.5064644276637
60,1437231035226,55.2942691898819
61,1437231035908,50.8908120803669
62,1437231036616,45.407165899322
63,1437231037336,50.8954901229948
64,1437231038070,49.4863354613226
65,1437231038874,43.9969059286084
66,1437231039576,45.0131971985696
67,1437231040226,13.098862436995
68,1437231041678,40.8448005220835
69,1437231042428,54.0765360929227
70,1437231043140,57.9302409546542
71,1437231043828,56.6603224884902
72,1437231044455,56.0940610625526
73,1437231045229,55.5936425199574
74,1437231045901,54.2242158607039
75,1437231046595,63.4426789622368
76,1437231047337,53.497621225993
77,1437231048005,61.1408236852768
78,1437231048728,57.2237517987319
79,1437231049485,47.6888272134079
80,1437231050228,57.5452456959173
81,1437231050949,55.7559846975988
82,1437231051654,60.1034740555923
83,1437231052401,55.0675091568998
84,1437231053143,57.1648462151685
85,1437231053876,45.2190986433527
86,1437231054599,52.4522483007555
87,1437231055333,56.2420587586663
88,1437231056086,58.2263028665207
89,1437231056829,62.8797846137988
90,1437231057592,58.5902183767168
91,1437231058220,61.3280464781043
92,1437231058889,60.1184094272775
93,1437231059692,51.8733480003075
94,1437231060450,44.4936849020894
95,1437231061154,45.3130416969345
96,1437231061901,43.8838414928568
97,1437231062614,47.5049794567165
98,1437231063364,38.6368818602258
99,1437231064129,42.4440714771152
100,1437231064862,38.243242550872
101,1437231065521,51.8406705905099
102,1437231066137,37.969574305344
103,1437231066838,43.9020967833436
104,1437231067567,40.8349539449859
105,1437231068290,43.2483836935154
106,1437231069006,39.9682383910198
107,1437231069801,36.875427783926
108,1437231070519,37.2624128144614
109,1437231071224,45.928220771383
110,1437231071930,37.8785330397247
111,1437231072700,39.7928223611033
112,1437231073457,69.7076535132141
113,1437231074136,67.8695680274962
114,1437231074811,38.9083682390157
115,1437231075619,67.3693889226324
116,1437231076351,73.119497522194
117,1437231077081,66.6053010987035
118,1437231077820,65.6763948711472
119,1437231078571,56.5729326127856
120,1437231079285,50.0023532136862
121,1437231079992,52.186859659481
122,1437231080644,60.0712188755101
123,1437231081379,60.6895563744898
124,1437231082105,53.8226901052629
125,1437231082837,51.9278925024557
126,1437231083585,58.8405799620212
127,1437231084323,57.3012766396375
128,1437231085024,59.2303931002627
129,1437231085742,60.1134919492325
130,1437231086466,54.2189740931245
131,1437231087204,52.1990421741225
132,1437231087928,44.8450622652515
133,1437231088651,58.6000198979406
134,1437231089403,60.6783085141463
135,1437231090131,58.7524171608467
136,1437231090857,64.1949600373095
137,1437231091558,65.9153436452973
138,1437231092277,61.3749340349179
139,1437231092994,62.3372026654865
140,1437231093704,52.3546433645892
141,1437231094436,54.7090752766134
142,1437231095147,50.9551058940728
143,1437231095828,55.168260970989
144,1437231096563,59.9732849213886
145,1437231097278,58.5105683429122
146,1437231097975,63.3602408866764
147,1437231098702,66.0450947288216
148,1437231099490,46.6929001147491
149,1437231100221,43.2689632922255
150,1437231100932,53.1178441686114
151,1437231101683,42.1168949276514
152,1437231102406,41.2228513332467
153,1437231103130,40.5804463282266
154,1437231103875,48.9830187202975
155,1437231104615,41.1363585430104
156,1437231105339,52.3321953718563
157,1437231106053,51.7074768264483
158,1437231106849,50.1447081329195
159,1437231107669,44.2969660877458
160,1437231108349,58.8880130162801
161,1437231109082,58.2150571652947
162,1437231109822,52.5355339040306
163,1437231110548,46.3771984415597
164,1437231111292,60.4850515650309
165,1437231112002,59.6723201708268
166,1437231112717,63.0895508441308
167,1437231113454,58.7078094738484
168,1437231114078,46.7484019158661
169,1437231114802,46.916484180277
170,1437231115513,53.4543709904097
171,1437231116205,49.1721343269465
172,1437231116858,59.0783785368981
173,1437231117623,45.5050980838537
174,1437231118364,52.2779074295483
175,1437231119083,53.5838595656559
176,1437231119803,52.3978624426124
177,1437231120558,55.4200302255129
178,1437231121286,59.9540061899675
179,1437231121994,62.6624439706359
180,1437231122714,60.2392817544315
181,1437231123371,48.3836377978503
182,1437231124106,49.9408009199226
183,1437231124849,57.9684666053288
184,1437231125566,62.8719963954582
185,1437231126313,58.1603999437554
186,1437231127042,55.7693262500181
187,1437231127727,49.8199952196227
188,1437231128405,57.8096054195448
189,1437231129209,61.254759339045
190,1437231129929,58.6726506573288
191,1437231130635,60.2624218075531
192,1437231131367,64.1430762340878
193,1437231132097,68.3169645884522
194,1437231132832,65.1795913675737
195,1437231133543,65.9913795340705
196,1437231134327,52.5706340953727
197,1437231135035,56.020703948687
198,1437231135762,50.568766684881
199,1437231136478,53.3205124017406
200,1437231137193,49.1162258083481
201,1437231137884,54.6699954572427
202,1437231138635,48.6380609376499
203,1437231139402,39.4486906536822
204,1437231140125,39.0956039540194
205,1437231140857,41.4449333466102
206,1437231141579,39.2231435243208
207,1437231142334,41.6994092561849
208,1437231143059,62.9919557468628
209,1437231143807,67.2887498158754
210,1437231144513,66.1398029318475
211,1437231145205,69.0892022436431
212,1437231145929,70.1585830661165
213,1437231146650,66.7877697987758
214,1437231147366,68.0058033289639
215,1437231148089,67.8009361830839
216,1437231148775,70.9310806434579
217,1437231149490,67.1582214546054
218,1437231150164,70.7795679133493
219,1437231150852,68.1385174519061
220,1437231151596,67.0138626358871
221,1437231152321,62.4237145502906
222,1437231153025,62.5927462162769
223,1437231153765,69.3610786870496
224,1437231154526,58.4013195984388
225,1437231155260,57.6175002538855
226,1437231155979,55.8724852890965
227,1437231156702,56.0213670882685
228,1437231157424,51.8122973418004
229,1437231158152,51.9698971088654
230,1437231158862,53.3859880602739
231,1437231159510,58.2722661814671
232,1437231160235,58.4257490629883
233,1437231160961,52.0079241554741
234,1437231161677,54.0883863403302
235,1437231162421,49.5449739960771
236,1437231163153,50.0871895133364
237,1437231163919,55.6135654610637
238,1437231164649,60.4850620864223
239,1437231165380,62.0677258676189
240,1437231166056,54.6215100017675
241,1437231166796,56.5306844912368
242,1437231167601,59.7244305026584
243,1437231168377,65.6270611274639
244,1437231168996,59.1681786382729
245,1437231169678,55.200688872923
246,1437231170347,50.445414518743
247,1437231171027,68.3089624600807
248,1437231171758,51.0300122993942
249,1437231172557,68.3603883583962
250,1437231173284,69.1810421631597
251,1437231174073,69.0241699866105
252,1437231174798,61.5135093303386
253,1437231175524,60.1730865240963
254,1437231176261,60.4890936711935
255,1437231177002,56.920829131036
256,1437231177743,51.5171584275221
257,1437231178483,58.3784250869412
258,1437231179203,47.0896972571707
259,1437231179939,55.8603419490742
260,1437231180618,60.2955567680991
261,1437231181366,57.9589966194107
262,1437231182083,51.2513592161159
263,1437231182842,49.8742602733469
264,1437231183608,62.5913972912251
265,1437231184340,60.2236019269851
266,1437231185067,56.996003338021
267,1437231185813,55.1063652521393
268,1437231186580,52.3794781159993
269,1437231187288,59.8096596069292
270,1437231188002,61.4343449684452
271,1437231188724,54.0123541511074
272,1437231189381,62.528295823169
273,1437231190084,44.5707131925635
274,1437231190814,50.7133392704571
275,1437231191557,57.0907709572357
276,1437231192265,54.5260641745243
277,1437231192995,49.9609561173919
278,1437231193741,60.449764014075
279,1437231194488,62.4994555854642
280,1437231195204,62.5328168634423
281,1437231195932,62.9140014193968
282,1437231196617,60.3344009532505
283,1437231197340,57.4142455176923
284,1437231198084,60.6482107032103
285,1437231198806,57.8376364054487
286,1437231199554,60.7403315736745
287,1437231200271,62.4643681857171
288,1437231200960,59.0153071916764
289,1437231201634,62.3693845300117
290,1437231202393,58.6182300594407
291,1437231203129,59.277992578417
292,1437231203800,61.8671307932434
293,1437231204558,66.0068104379614
294,1437231205267,57.8923290845918
295,1437231205986,62.8183919474325
296,1437231206709,58.4613274761888
297,1437231207489,63.4795162386635
298,1437231208214,61.705004974328
299,1437231208948,65.186437314441
300,1437231209669,60.7292684766068
301,1437231210340,63.2061937867798
302,1437231212105,50.7014148963658
303,1437231212833,54.2288937273655
304,1437231213562,50.0469911259375
305,1437231214355,59.0463304509806
306,1437231215077,69.7327630985613
307,1437231215799,68.9832630937499
308,1437231216523,69.2419544952167
309,1437231217282,68.7688385139196
310,1437231218021,64.5203440087415
311,1437231218748,61.0124808842741
312,1437231219463,62.2475441316694
313,1437231220198,58.0716605626682
314,1437231220912,56.0491800259347
315,1437231221583,67.5725260143809
316,1437231222314,67.1988615658094
317,1437231223052,65.1238393438734
318,1437231223782,63.2016530258013
319,1437231224494,54.487711497898
320,1437231226066,61.8523826841851
321,1437231226692,49.8318426268168
322,1437231227416,53.7637717392992
323,1437231228142,51.1392000769034
324,1437231228855,48.948666441534
325,1437231229500,61.4219431086792
326,1437231230212,65.0996626495424
327,1437231230924,64.4219173024552
328,1437231231654,69.8981105816303
329,1437231232397,70.3207741281954
330,1437231233101,64.5462787328653
331,1437231233836,67.0048903154976
332,1437231234566,65.8289129899307
333,1437231235300,62.8728909670311
334,1437231236046,64.3950737050435
335,1437231236799,59.2612851901513
336,1437231237519,61.2305997729667
337,1437231238241,61.8669754530171
338,1437231238919,61.2278613781583
339,1437231239582,68.1809929260669
340,1437231240317,69.1860980144861
341,1437231241043,69.0502988974825
342,1437231241762,68.0710790085456
343,1437231242529,65.2249979300832
344,1437231243175,60.2518242321948
345,1437231243876,47.4539830688121
346,1437231244617,52.874411950378
347,1437231245339,49.759907665705
348,1437231246055,52.771825627771
349,1437231246793,49.6604328901819
350,1437231247477,45.9770513178603
351,1437231248965,48.3515613442297
352,1437231249667,46.3320142838609
353,1437231250388,54.0799787807167
354,1437231251110,52.9359333477437
355,1437231251844,63.3699048774437
356,1437231252589,48.3995933327366
357,1437231253306,54.6348036770896
358,1437231254009,59.431776625293
359,1437231254710,53.6898500430037
360,1437231255481,55.5893846950422
361,1437231256218,49.4930359185583
362,1437231256954,46.4474761173008
363,1437231257672,43.1866448266145
364,1437231258468,49.087157399339
365,1437231259241,61.5279805117162
366,1437231259953,51.99110726446
367,1437231261792,66.8765865752051
368,1437231262483,56.7397248076998
369,1437231263214,46.7838499095288
370,1437231263931,49.3318797903038
371,1437231264646,52.3386435444342
372,1437231265422,64.6118352626504
373,1437231266116,59.093733831178
374,1437231266810,46.0361287628875
375,1437231267473,53.2693874507244
376,1437231268170,60.0149717520675
377,1437231268900,44.4161753644177
378,1437231269596,57.2238992466941
379,1437231270329,63.6746407985391
380,1437231271047,60.2639202664547
381,1437231271785,63.1145856717246
382,1437231272528,55.0024156492595
383,1437231273183,66.9274024047379
384,1437231273910,66.1784313558269
385,1437231274653,60.206243074337
386,1437231275504,53.2288172660073
387,1437231276242,61.5379660653541
388,1437231276965,58.6410810820571
389,1437231277708,59.1716534810509
390,1437231278495,57.2893475341125
391,1437231279217,64.8176455454692
392,1437231279946,61.5425337740932
393,1437231280682,56.9621761123837
394,1437231281405,65.6042414266073
395,1437231282136,68.79362230488
396,1437231282869,55.1897527038691
397,1437231283610,60.8683646824838
398,1437231284334,58.6893312699485
399,1437231285091,61.4877191154863
400,1437231285746,59.6886198653991
401,1437231286456,53.624042178874
402,1437231287243,61.9420555066808
403,1437231287993,55.6353875281506
404,1437231288693,59.2943141553918
405,1437231289489,67.979832756119
406,1437231290245,56.2216176837525
407,1437231290997,66.9526358708962
408,1437231291725,64.5587662362145
409,1437231292498,60.9404448550754
410,1437231293209,60.7532055630442
411,1437231293862,64.776980823032
412,1437231294545,64.6456352475532
413,1437231295221,57.0445819570253
414,1437231295949,61.3198548154657
415,1437231296681,59.5123447075669
416,1437231297426,57.7762022587416
417,1437231298158,61.1121847873325
418,1437231298880,58.2692730002902
419,1437231299654,62.6984136782555
420,1437231300417,64.6164751116117
421,1437231301147,61.266048035199
422,1437231301888,61.036980337892
423,1437231302617,60.1759872060821
424,1437231303343,66.9193531005372
425,1437231304072,60.4688807916593
426,1437231304821,58.1546725970132
427,1437231305613,55.1967456739674
428,1437231306322,59.3762467006202
429,1437231307049,57.4941676621619
430,1437231307783,54.6148614921327
431,1437231308546,53.0154509710252
432,1437231309286,43.7953421943094
433,1437231309949,43.5062098880897
434,1437231310647,50.1733053789938
435,1437231311392,46.4681595594018
436,1437231312109,48.72583769158
437,1437231312842,54.6483325537463
438,1437231313549,49.468526227331
439,1437231314237,46.4567677646124
440,1437231315020,53.8133861417283
441,1437231315720,49.8601967534257
442,1437231316383,56.8705909369982
443,1437231317108,48.7608796938473
444,1437231317849,50.0002187260012
445,1437231318570,46.8128769349772
446,1437231319366,47.1211778922414
447,1437231320088,45.62937091746
448,1437231320796,44.8760971346357
449,1437231321523,46.1065520704412
450,1437231322242,42.2355649536607
451,1437231322963,46.1547139776213
452,1437231323674,55.5071863950655
453,1437231324364,51.0732771287089
454,1437231325096,55.0913778392466
455,1437231325786,41.9065734535837
456,1437231326432,52.0642701647265
457,1437231327157,58.6922982224308
458,1437231327884,53.2068762498413
459,1437231328616,47.0702051786726
460,1437231329350,55.0524063667976
461,1437231330079,49.5294790296231
462,1437231330810,57.5509946990312
463,1437231331573,49.7449706205138
464,1437231332279,46.7246302666398
465,1437231332984,47.5287416003964
466,1437231333705,60.0441400570425
467,1437231334414,64.2619154371447
468,1437231335155,56.0231070427691
469,1437231335895,40.8252079425256
470,1437231336613,42.6531277694221
471,1437231337302,45.0659804238831
472,1437231338022,53.0342289636276
473,1437231338756,48.9240562520678
474,1437231339507,40.7632972096531
475,1437231340217,41.6884697408303
476,1437231340940,46.8683763109469
477,1437231341661,57.5629522703423
478,1437231342377,42.7042021371649
479,1437231342963,58.7540157714003
480,1437231343637,59.5976212383636
481,1437231344360,60.8809118257273
482,1437231345101,53.5171190147989
483,1437231345900,51.9887011888605
484,1437231346629,54.1044079695204
485,1437231347364,44.2755028323627
486,1437231348025,40.9061388262653
487,1437231348719,51.8637368884213
488,1437231349521,56.5787636498112
489,1437231350299,45.0924229159158
490,1437231351050,50.5526506505432
491,1437231351786,61.0829461896333
492,1437231352597,68.2072021869232
493,1437231353341,65.4784423100783
494,1437231354087,66.236719411247
495,1437231354800,68.7621046906623
496,1437231355574,66.8702875506933
497,1437231356313,55.7234051780656
498,1437231357053,56.0242784672118
499,1437231357767,49.941153339037
500,1437231358615,55.8020539179401
501,1437231359285,53.7347147009839
502,1437231360006,50.7243167944698
503,1437231360770,53.797863907381
504,1437231361514,54.8202097552698
505,1437231362236,51.7261362745585
506,1437231362980,45.2129339870877
507,1437231363709,57.3451051186448
508,1437231364448,49.1480403889795
509,1437231365174,59.2034839840153
510,1437231365955,63.2265047629286
511,1437231366696,57.9312979680036
512,1437231367435,53.3609736349595
513,1437231368166,56.156436351251
514,1437231368864,54.7743321261952
515,1437231369505,68.9116032060015
516,1437231370178,68.1730895282511
517,1437231370822,50.1281388287405
518,1437231371509,41.3820434099276
519,1437231372226,52.1548863317654
520,1437231372935,51.6368703325077
521,1437231373655,54.8135202884844
522,1437231374409,57.484938488424
523,1437231375128,52.9226027827535
524,1437231375912,54.3261089851543
525,1437231376633,59.3264187634795
526,1437231377347,58.3268926448802
527,1437231378073,57.4226632526566
528,1437231378793,53.0446565944747
529,1437231379492,50.8372933688424
530,1437231380173,59.8777395417778
531,1437231380955,54.6858021950669
532,1437231381663,60.2113346348234
533,1437231382399,55.2941030176549
534,1437231383119,51.0969714407706
535,1437231383847,57.6587133650716
536,1437231384571,54.3800179606391
537,1437231385321,49.4833049615985
538,1437231386143,47.9140334247229
539,1437231386839,44.1131113416893
540,1437231387580,47.4594323247359
541,1437231388291,43.0527815957533
542,1437231389011,44.0822721513274
543,1437231389720,41.8156691432124
544,1437231390476,48.4589021656627
545,1437231391143,54.3131289493564
546,1437231391865,57.0762439251445
547,1437231392586,44.5923742507053
548,1437231393329,52.5796064197601
549,1437231394046,42.3979846707557
550,1437231394788,53.6227299155667
551,1437231395577,46.2789357834065
552,1437231396283,44.3387815122284
553,1437231396939,43.3263396909118
554,1437231397663,55.8361706611737
555,1437231398408,42.6573160674771
556,1437231399141,39.3490587039433
557,1437231399874,42.0367624307856
558,1437231400585,48.2335350833082
559,1437231401253,50.70622260803
560,1437231401964,57.6248425988998
561,1437231402660,55.3525338280878
562,1437231403304,62.2297956501287
563,1437231403996,65.0770385259821
564,1437231404739,66.7337822099682
565,1437231405515,56.7801466360659
566,1437231406197,65.4197335113779
567,1437231406940,63.9072408994462
568,1437231407705,56.1646913282231
569,1437231408432,58.1933677402801
570,1437231409190,55.9310200812438
571,1437231409936,58.3301714360457
572,1437231410688,51.4045929122356
573,1437231411286,63.9906322996476
574,1437231411968,67.1310739685406
575,1437231412686,65.7339054295532
