id,attr_time,attr_db
1,1437230990226,17.7834475713125
2,1437230990972,20.7439823606804
3,1437230991702,32.5794093478769
4,1437230992443,31.1949188315587
5,1437230993176,44.6048425835691
6,1437230993913,49.0112519407403
7,1437230994691,55.025871559732
8,1437230995352,52.5964670393886
9,1437230996077,57.6204360142443
10,1437230996828,57.6759127771445
11,1437230997581,57.4894703520776
12,1437230998316,46.8144042504629
13,1437230999043,42.9398903099582
14,1437230999779,45.3107828376297
15,1437231000472,47.7226196512463
16,1437231001154,44.4885971574434
17,1437231001898,43.7389698392335
18,1437231002628,56.6526086656524
19,1437231003373,59.6032665064218
20,1437231004102,57.5610026507029
21,1437231004745,57.4639494777171
22,1437231005449,61.9378190464044
23,1437231006183,62.0831823215794
24,1437231006917,61.1348939606268
25,1437231007639,60.286346704602
26,1437231008400,54.7476031395305
27,1437231009134,45.6206956501361
28,1437231009849,45.6792491924023
29,1437231010608,47.9473154278176
30,1437231011323,50.8231410895047
31,1437231012049,47.8243731594719
32,1437231012784,47.5452915639469
33,1437231013506,48.7976419970586
34,1437231014223,49.6638205559616
35,1437231014965,49.9408905531209
36,1437231015700,59.749640498883
37,1437231016402,58.7706232315125
38,1437231017058,52.5657009009662
39,1437231017725,51.5481547720156
40,1437231018421,47.4941623325297
41,1437231019146,46.4846206025127
42,1437231019880,49.771012938699
43,1437231020637,55.4244730546764
44,1437231021354,64.9042520563185
45,1437231022064,62.1539117600358
46,1437231022773,58.8896264989815
47,1437231023503,62.1219738065895
48,1437231024213,65.443673863086
49,1437231024856,51.918540496284
50,1437231025572,47.8391758116359
51,1437231026303,55.07506837957
52,1437231027035,55.4442706641291
53,1437231027752,60.8527874905889
54,1437231028455,55.8551041797311
55,1437231029199,55.5185971397224
56,1437231029925,61.4202881577316
57,1437231030672,61.8613942187266
58,1437231031391,61.552417286698
59,1437231032057,54.0571715485687
60,1437231032738,49.8485641259974
61,1437231033487,53.4469190291397
62,1437231034216,52.5193470496371
63,1437231034966,61.0344974193059
64,1437231035709,58.0663649531191
65,1437231036465,56.143829293574
66,1437231037162,51.7249348263543
67,1437231037895,58.1902717422561
68,1437231038647,46.1583485791346
69,1437231039334,22.4375511387421
70,1437231040021,35.485835234218
71,1437231040744,39.2762270381298
72,1437231041458,56.8947336245843
73,1437231042178,51.5346919113371
74,1437231042846,53.1166824720168
75,1437231043469,48.6429514190615
76,1437231044195,52.2591706039446
77,1437231044886,50.958601867431
78,1437231045610,49.1409688786858
79,1437231046328,48.442980970792
80,1437231047049,51.9949377097113
81,1437231047773,62.5323323869465
82,1437231048510,62.6489143117183
83,1437231049249,61.2894117711994
84,1437231050033,60.3770450440535
85,1437231050768,57.5056121672348
86,1437231051493,49.9728314933973
87,1437231052221,53.1323465983845
88,1437231052977,45.0967552446622
89,1437231053728,49.000269196265
90,1437231054535,50.0734069120039
91,1437231055311,56.5707259498187
92,1437231055972,62.1431917110062
93,1437231056652,47.3934051362564
94,1437231057394,58.5696947572254
95,1437231058120,60.7918905011485
96,1437231058858,63.0118485371422
97,1437231059623,51.4349734991368
98,1437231060327,50.0736695178465
99,1437231061056,49.3759840051978
100,1437231061778,44.4571227802328
101,1437231062532,45.6597350169342
102,1437231063271,50.3197708377557
103,1437231064013,47.0630967226992
104,1437231064836,59.6606930921146
105,1437231065457,55.2071416356542
106,1437231066147,47.9545339690942
107,1437231068017,59.0746587934894
108,1437231068729,63.9923225823282
109,1437231069453,60.9472622892118
110,1437231070171,61.7739596801158
111,1437231070921,57.1674073716199
112,1437231071669,48.7165768064067
113,1437231072395,50.2519393013877
114,1437231073116,46.3288121233364
115,1437231073829,51.4955363319442
116,1437231074577,45.4923252870495
117,1437231075305,45.8994949149695
118,1437231076045,53.8428772034178
119,1437231076768,47.6926870323635
120,1437231078575,43.4925321451956
121,1437231079304,47.6903248271807
122,1437231080129,61.909524475301
123,1437231080845,59.101475128151
124,1437231081614,48.545163863837
125,1437231082338,46.9958851870255
126,1437231083069,49.0669246886998
127,1437231083799,52.0815035667724
128,1437231084594,53.3429378073078
129,1437231085351,60.0298627845876
130,1437231086026,49.9337216947306
131,1437231086755,51.2032042026455
132,1437231087500,52.9785222713214
133,1437231088234,58.9606730420519
134,1437231089007,53.1380889318269
135,1437231089775,54.1846886011013
136,1437231090502,50.7020605129645
137,1437231091273,50.2208981496171
138,1437231091938,47.1325143162933
139,1437231093435,46.7396281245023
140,1437231094085,55.3123446423929
141,1437231094789,52.8622209945585
142,1437231095534,49.8456518389499
143,1437231096264,46.6722810398113
144,1437231096999,46.0034928760563
145,1437231097747,69.9728346242817
146,1437231098487,44.6831478953671
147,1437231099181,52.3600812330977
148,1437231099949,49.1570243153547
149,1437231100654,68.5615181716822
150,1437231102420,64.3311775666791
151,1437231103070,58.3962953742703
152,1437231103782,53.4992225106108
153,1437231104574,55.5296699925361
154,1437231105279,59.9263805631436
155,1437231106015,63.3756401513031
156,1437231106735,61.2823766631915
157,1437231107412,59.1620483568621
158,1437231108078,59.8943411763183
159,1437231108791,58.1834252646087
160,1437231109538,61.9259838000805
161,1437231110338,56.7159149394928
162,1437231111047,60.2639024717038
163,1437231111771,53.3464249852901
164,1437231112515,55.7124570543464
165,1437231113249,55.3302468593684
166,1437231113982,45.1068404656067
167,1437231114728,45.3418023355138
168,1437231115471,43.5950647603633
169,1437231116205,46.014656787947
170,1437231116961,55.9227244570277
171,1437231117691,61.453548811259
172,1437231118422,60.8760377846587
173,1437231119144,65.5398610656408
174,1437231119881,57.9115580115124
175,1437231120669,46.5464494500066
176,1437231121378,51.0078374135854
177,1437231122096,55.7926791663148
178,1437231122855,47.6926743391488
179,1437231123605,46.9600567126674
180,1437231124319,47.3863738965618
181,1437231125057,50.721295435728
182,1437231125766,52.091683626303
183,1437231126412,44.1986993922336
184,1437231127143,53.8172476987691
185,1437231127874,50.2589302354457
186,1437231128636,47.2318445732838
187,1437231129377,54.4256121482008
188,1437231130100,50.6453132362802
189,1437231130783,51.2518111187052
190,1437231131472,53.1360815707843
191,1437231132165,45.8375232151957
192,1437231132919,57.5161262706425
193,1437231133674,50.0746783595652
194,1437231134414,49.3105935213275
195,1437231135114,50.8891028254203
196,1437231135866,51.2160234115646
197,1437231136602,62.033678554147
198,1437231137328,62.1881201332668
199,1437231138049,63.4051116902544
200,1437231138799,56.3229371413947
201,1437231139501,57.5633690861004
202,1437231140231,54.8238510758474
203,1437231140963,55.9048514685833
204,1437231141703,52.9560419323536
205,1437231142362,56.4589094582441
206,1437231143093,52.2998110860594
207,1437231143828,52.839258391129
208,1437231144573,45.2114028449352
209,1437231145405,46.3937399009697
210,1437231146172,59.4792869861112
211,1437231146789,51.6248382981824
212,1437231147512,49.8468745417831
213,1437231148258,59.8847090679581
214,1437231148973,65.2609353545839
215,1437231149692,56.2120651418361
216,1437231150492,46.896319689414
217,1437231151199,49.6256878143137
218,1437231151931,52.0753656833975
219,1437231152642,47.5345966798393
220,1437231153369,52.0044910173596
221,1437231154027,43.0746983257131
222,1437231154758,51.4860930695048
223,1437231155594,52.4261019127393
224,1437231156304,55.5540880337835
225,1437231157029,54.7716328298233
226,1437231157748,53.1561972080531
227,1437231158484,49.6512580134878
228,1437231159228,63.02249114586
229,1437231160026,55.7089211747377
230,1437231160759,53.42107820846
231,1437231161529,59.0657615151888
232,1437231162256,47.2426148015657
233,1437231162992,57.8258194396879
234,1437231163719,53.2081078898489
235,1437231164471,53.4877357035817
236,1437231165214,51.8210999954484
237,1437231165960,53.1646498116472
238,1437231166659,49.8394875669782
239,1437231167382,51.0934169471844
240,1437231168114,55.0733603026322
241,1437231168838,52.5436389058761
242,1437231169533,48.0495997615961
243,1437231170171,48.23618780997
244,1437231170906,49.1495905264014
245,1437231171712,57.8675963068469
246,1437231172446,57.0699180951612
247,1437231173161,62.8995653148529
248,1437231173899,55.4454978927692
249,1437231174631,58.8346122099242
250,1437231175360,57.4132006115446
251,1437231176121,55.6404389871779
252,1437231176719,57.7051972902728
253,1437231177347,66.6545860280258
254,1437231177971,49.8576202905021
255,1437231178609,53.527550217342
256,1437231179357,55.7159513755439
257,1437231180097,45.8690016166318
258,1437231180772,57.0243623224604
259,1437231181474,58.4771616323816
260,1437231182119,48.2702472368562
261,1437231182799,46.950522572858
262,1437231183408,48.9665753986808
263,1437231184104,54.3967992957155
264,1437231184832,52.8905866229523
265,1437231185623,41.4790027270048
266,1437231186249,54.1366561034237
267,1437231186936,62.9139799334897
268,1437231187665,61.3892560436979
269,1437231188391,61.1764452040231
270,1437231189203,58.4371639625772
271,1437231189946,49.1031842600154
272,1437231190640,53.1273566086651
273,1437231191390,56.1559258280103
274,1437231192138,51.3347988660938
275,1437231192857,50.5716268566735
276,1437231193637,42.4505225845125
277,1437231194375,45.9638358494921
278,1437231195101,48.786721829085
279,1437231195841,49.1294205178038
280,1437231196620,54.8848530567705
281,1437231197369,62.8341879716542
282,1437231198115,58.5104751305881
283,1437231198845,46.8365710945778
284,1437231199617,48.89648233989
285,1437231200331,46.6402363984621
286,1437231201062,51.7896282809945
287,1437231201795,45.6472956494654
288,1437231202572,48.7198042526706
289,1437231203308,47.7739323729052
290,1437231204039,52.8953470828382
291,1437231204760,50.0724144688789
292,1437231205525,54.9783958670081
293,1437231206257,49.8934742151172
294,1437231206924,50.3585886774683
295,1437231207685,53.4147532338438
296,1437231208395,53.6317873832908
297,1437231209024,54.8722451407243
298,1437231209747,59.3050340991346
299,1437231210484,52.0840360920765
300,1437231211217,45.3768992934092
301,1437231211964,54.4581776617926
302,1437231212698,51.1445315842223
303,1437231213444,49.3852070502791
304,1437231214173,54.8466422712297
305,1437231214960,57.9855666746305
306,1437231215621,55.5118127346846
307,1437231216287,52.4409789406471
308,1437231217016,51.5028067011235
309,1437231217725,54.8734780177843
310,1437231218436,61.7106238304767
311,1437231219196,53.7299648168117
312,1437231219990,58.8853611778817
313,1437231220742,57.0327939632766
314,1437231221470,60.3865629230962
315,1437231222204,58.9149419427316
316,1437231222945,60.8222067722424
317,1437231223686,58.9935692379521
318,1437231224472,47.9131753851623
319,1437231225224,48.3726610414051
320,1437231225910,45.9670177523349
321,1437231226528,49.5929374803166
322,1437231227215,56.125855837001
323,1437231227964,55.1451675064442
324,1437231228704,51.9582720399343
325,1437231229440,50.9313602298845
326,1437231230216,46.7363847166552
327,1437231230846,50.400922136293
328,1437231231599,56.9112929093405
329,1437231232335,54.7181114392642
330,1437231233068,51.6397351854704
331,1437231233799,52.7698240829955
332,1437231234572,55.2557866509549
333,1437231235315,49.7541239588944
334,1437231236056,45.1466168063274
335,1437231236796,50.1609854181286
336,1437231237535,42.3108678387433
337,1437231238216,48.5808958740866
338,1437231238898,47.5799202315938
339,1437231239612,56.9142505662769
340,1437231240334,46.515269718183
341,1437231241046,55.6845805462753
342,1437231241754,55.7554382260798
343,1437231242523,59.6029024027708
344,1437231243255,67.3391317577003
345,1437231243974,54.1770840590746
346,1437231244711,57.0782574982605
347,1437231245447,54.6855150413432
348,1437231246341,50.3462444482984
349,1437231247064,51.6208402796597
350,1437231247719,50.9780672541227
351,1437231248463,56.2993898981029
352,1437231249193,45.1810171839997
353,1437231249953,44.526971133758
354,1437231250705,59.7870961509478
355,1437231251454,53.7657823041393
356,1437231252199,52.2339532668196
357,1437231252958,56.4816922461742
358,1437231253697,62.2211786978944
359,1437231254415,50.855010150962
360,1437231255208,55.8697981879783
361,1437231255955,58.5672120120902
362,1437231256715,48.9258409758995
363,1437231257468,51.8544842553474
364,1437231258199,58.0594678845079
365,1437231258945,58.903333423249
366,1437231259766,52.593588257458
367,1437231260503,55.7223465179186
368,1437231261234,47.8177255640234
369,1437231261983,54.0387876958168
370,1437231262725,49.8243512484789
371,1437231263457,51.3549532848074
372,1437231264189,54.3445455853808
373,1437231264944,55.0841378538174
374,1437231265693,62.0952713021491
375,1437231266591,59.0298773142325
376,1437231267221,53.1886802710478
377,1437231267956,60.6846527675226
378,1437231268677,55.9498320852452
379,1437231269425,63.295270919091
380,1437231270146,61.9189954904414
381,1437231272019,52.0255120122383
382,1437231272728,55.7455194941529
383,1437231273463,45.223458804029
384,1437231274175,62.543012957627
385,1437231274912,51.5590137766138
386,1437231275674,50.9204176040214
387,1437231276393,52.244187808215
388,1437231277127,49.8136313901391
389,1437231277855,62.1928029664504
390,1437231278609,44.6178989088678
391,1437231279349,57.5337160865518
392,1437231280095,60.8145017490817
393,1437231280820,53.7265958404161
394,1437231281567,57.8343927403716
395,1437231282298,53.2756745337525
396,1437231283026,45.5753402743782
397,1437231283763,52.1182500237835
398,1437231284474,50.4435498862295
399,1437231285185,52.3190372739486
400,1437231286741,60.3013664862649
401,1437231287442,51.5236883162897
402,1437231288118,52.4917559880566
403,1437231288840,51.3327522764072
404,1437231289579,64.9715468579907
405,1437231290292,45.5134213368827
406,1437231290987,51.5402401165524
407,1437231291742,51.0795821628343
408,1437231292485,52.5759265831768
409,1437231293212,51.1366207015553
410,1437231293943,46.8299291510692
411,1437231294714,49.295939365381
412,1437231295494,50.7327275341107
413,1437231296216,52.5796253306279
414,1437231297009,58.7312971686359
415,1437231297740,62.6103602577455
416,1437231298468,61.2589033437656
417,1437231299193,60.1220399951741
418,1437231299870,58.1631915020895
419,1437231300520,50.3464861931561
420,1437231301206,52.4846362436085
421,1437231301971,55.7128435904794
422,1437231302741,49.1079243625546
423,1437231303473,47.6565653253778
424,1437231304182,52.7704924091897
425,1437231304990,49.9606157907321
426,1437231305748,57.7090385515281
427,1437231306482,58.8869179756546
428,1437231307226,61.028154727163
429,1437231307969,46.2292603929496
430,1437231309166,48.1288123847926
431,1437231309883,46.5472294323274
432,1437231310721,52.4362279953074
433,1437231311440,53.8096865553125
434,1437231312165,54.4019233827778
435,1437231312893,54.2902772123016
436,1437231313648,60.3138836248569
437,1437231314378,62.0806995118071
438,1437231315126,57.2503335203542
439,1437231315847,58.2364233897564
440,1437231316589,54.9098812376483
441,1437231317300,55.4729282039245
442,1437231318052,59.4296067980598
443,1437231318763,60.7781055106309
444,1437231319553,50.6002674923568
445,1437231320265,52.1006289918368
446,1437231321000,47.3963518215956
447,1437231322761,46.1233298051348
448,1437231323436,48.9255258839077
449,1437231324165,66.1150705928618
450,1437231324894,56.1947969300752
451,1437231325734,54.8337195655946
452,1437231326454,52.7532409069336
453,1437231327221,49.8656479841166
454,1437231327963,57.8207685635673
455,1437231328607,65.1748844036805
456,1437231329342,53.1287016399853
457,1437231330073,56.1929872527572
458,1437231330811,54.8882126390598
459,1437231331550,63.8427139393577
460,1437231332232,51.8310787139496
461,1437231332996,66.4712766998902
462,1437231333745,60.2995192510198
463,1437231334478,54.6096965822402
464,1437231335202,62.2982928090993
465,1437231335966,58.3834587001314
466,1437231336717,52.8215195781743
467,1437231337441,52.9305725303475
468,1437231338110,55.4924141795393
469,1437231338843,56.1612622619126
470,1437231339641,56.4677240671189
471,1437231340384,54.0174127175261
472,1437231341118,55.9697032171751
473,1437231341852,51.1888802970074
474,1437231342585,48.6097643990088
475,1437231343260,53.9105223050403
476,1437231343951,48.517422696419
477,1437231344702,51.8389086849848
478,1437231345448,45.1169005538289
479,1437231346178,51.3673643896784
480,1437231346901,52.0601708669727
481,1437231347655,46.2960582412691
482,1437231348378,42.4974197066392
483,1437231349084,52.7886226457811
484,1437231349914,56.0907183572887
485,1437231350548,47.5403203906322
486,1437231351243,45.5620347123679
487,1437231351964,40.8924894058552
488,1437231352714,48.9383272051691
489,1437231353437,45.0832938999214
490,1437231354130,45.225584326849
491,1437231354844,48.7127662356081
492,1437231355612,46.5647428268698
493,1437231356343,44.4826502968539
494,1437231357042,46.174743962013
495,1437231357835,44.13959235778
496,1437231358596,48.1901148438885
497,1437231359316,49.1216179560194
498,1437231360101,47.8843381734362
499,1437231360804,51.7120575167667
500,1437231361491,50.9712350213276
501,1437231362098,49.1534611555411
502,1437231362778,50.8806531403586
503,1437231363535,55.0450266963959
504,1437231364259,46.8809779445598
505,1437231365056,58.3107056101319
506,1437231365793,53.31055947666
507,1437231366506,54.7268443931482
508,1437231367258,53.0029280318207
509,1437231367948,50.6023510620156
510,1437231368583,51.4755329751573
511,1437231369264,53.7338671170885
512,1437231370049,45.717563878358
513,1437231370771,51.3980009612637
514,1437231371513,57.788102548316
515,1437231372247,55.6245625281336
516,1437231373007,55.1812620274889
517,1437231373752,58.3125974378458
518,1437231374469,53.443513391543
519,1437231375188,63.1804618051442
520,1437231375921,54.2281494567443
521,1437231376687,51.516608084853
522,1437231377424,52.1645753350008
523,1437231378182,53.0376855405052
524,1437231378888,57.6466739363427
525,1437231379530,55.685268162084
526,1437231380259,50.3680308547886
527,1437231380993,53.1341064890329
528,1437231381714,57.0959137286363
529,1437231382469,54.1940489169301
530,1437231383212,55.6077483690411
531,1437231383951,56.7548301936086
532,1437231384652,53.7528119567588
533,1437231385320,49.2483676103903
534,1437231386043,52.9108016357786
535,1437231386762,47.5733008556367
536,1437231387497,50.9375262102909
537,1437231388190,55.1001344402646
538,1437231388874,48.513215117136
539,1437231389627,57.3266912211751
540,1437231390438,52.5942119580878
541,1437231391165,52.5235348615033
542,1437231391929,58.9056262760942
543,1437231392606,49.1088848611066
544,1437231393332,52.9306973028601
545,1437231394051,57.2911167684516
546,1437231394804,53.9941800128309
547,1437231395570,61.4008843424732
548,1437231396301,59.5757733982482
549,1437231397026,57.863557879268
550,1437231397766,63.3263862178664
551,1437231398499,57.0081726662036
552,1437231399232,58.8574722045695
553,1437231399987,60.8235933717563
554,1437231400699,54.4988666430903
555,1437231401425,58.5127171470335
556,1437231402138,55.8541610269783
557,1437231402861,58.6666528324841
558,1437231403559,54.8749120197294
559,1437231404221,52.9186330735814
560,1437231404965,53.0083889229856
561,1437231405679,61.7104855175564
562,1437231406348,52.4201582883523
563,1437231407025,53.3810329947815
564,1437231407692,57.2443817469494
565,1437231408415,42.0443850422155
566,1437231409152,50.3506405102069
567,1437231409946,56.2943258399311
568,1437231410710,51.393702858239
569,1437231411440,49.9482522598298
570,1437231412157,55.9763555522948
571,1437231412898,54.5300199831687
572,1437231413641,59.2030648257443
573,1437231414368,51.4856189062175
574,1437231415104,55.9402616419021
575,1437231415830,59.6937297848065
