id,attr_time,attr_db
1,1437230989855,51.8706026161156
2,1437230990598,41.2765514628589
3,1437230991381,23.8965988322139
4,1437230992109,23.4341559637066
5,1437230992864,19.9602956486777
6,1437230993589,18.7921963353578
7,1437230994425,32.7766507499629
8,1437230995153,36.277681417521
9,1437230995863,63.9390759337909
10,1437230996589,55.0479323950024
11,1437230997335,66.8714578600168
12,1437230998021,66.1203765262537
13,1437230998762,69.8069077041269
14,1437230999559,66.3115954786846
15,1437231000291,64.0535608398388
16,1437231000997,62.4574016242195
17,1437231001732,63.9227560370966
18,1437231002485,60.6938974541248
19,1437231003222,62.1283419613474
20,1437231003948,70.2058259941797
21,1437231004692,70.6718310406936
22,1437231005496,67.013828916608
23,1437231006223,62.1576179835129
24,1437231006962,63.3774207224816
25,1437231007693,67.1396129940786
26,1437231008386,65.6202635438113
27,1437231009073,63.6491232652693
28,1437231009793,63.8625754998555
29,1437231010504,63.8677991632367
30,1437231011150,63.7115604097893
31,1437231011894,64.8102627620229
32,1437231012619,63.5971358793498
33,1437231013376,63.0371080674403
34,1437231014134,67.0827897243072
35,1437231014795,60.1455053006682
36,1437231015492,64.5290768471735
37,1437231016223,63.227850956434
38,1437231016963,67.5836201345856
39,1437231017660,71.825738746509
40,1437231018272,63.3171891731717
41,1437231019000,59.9314517942636
42,1437231019723,61.4604736361032
43,1437231020457,61.6035412382447
44,1437231021165,60.6291322559683
45,1437231021904,65.4449049000438
46,1437231022626,60.7552212273043
47,1437231023363,73.6291070395494
48,1437231024090,70.7316985539347
49,1437231024843,70.6724943193688
50,1437231025540,68.012639352259
51,1437231026203,69.2294083017547
52,1437231026936,72.9684360825323
53,1437231027684,69.7899587737678
54,1437231028419,67.7743945196819
55,1437231029152,69.1426830720122
56,1437231029881,67.4974288875695
57,1437231030609,66.5262233677674
58,1437231031279,63.9530707323212
59,1437231032019,67.868481622441
60,1437231032745,67.4636115651389
61,1437231033470,69.2728146480441
62,1437231034200,66.3379752878071
63,1437231034942,67.5091955122035
64,1437231035703,65.6860918338567
65,1437231036481,62.0544275137306
66,1437231037082,66.5198613621672
67,1437231037752,65.9914375799772
68,1437231038480,68.1860127324016
69,1437231039229,64.5826847023688
70,1437231039954,65.7982298238329
71,1437231040693,58.5526714824435
72,1437231041469,41.7198814699946
73,1437231042100,33.9988022086546
74,1437231042799,28.8100402211097
75,1437231043511,56.2180223331347
76,1437231044277,64.6833150110394
77,1437231045001,62.438852794107
78,1437231045733,62.9873340047331
79,1437231046464,63.3907096714905
80,1437231047193,62.8838896497384
81,1437231047919,62.1204537998074
82,1437231048658,61.7891302949568
83,1437231049398,62.4871215645595
84,1437231050134,69.8958399547802
85,1437231050846,70.0659071021229
86,1437231051564,71.1944314316226
87,1437231052345,68.3741962534379
88,1437231053079,67.2895867568465
89,1437231053798,66.4973993792609
90,1437231054530,64.4062950072711
91,1437231055287,63.6480366438687
92,1437231056004,60.3114816203917
93,1437231056739,62.141714191886
94,1437231057498,62.6159195208415
95,1437231058190,66.4444332039395
96,1437231058866,62.1572321500754
97,1437231059605,64.5702435580136
98,1437231060362,64.1858860705171
99,1437231061068,66.3135791465419
100,1437231061802,58.4485636824186
101,1437231062642,66.4250684066468
102,1437231063340,66.8659064085113
103,1437231064059,68.6361137823077
104,1437231064846,66.3020233680972
105,1437231065565,68.5027798774962
106,1437231066282,66.9146738125576
107,1437231067002,64.8758614569623
108,1437231067718,63.8046515545753
109,1437231068436,64.2786432663903
110,1437231069157,63.6794650930679
111,1437231069882,61.4843600205033
112,1437231070619,62.5943243368295
113,1437231071378,62.3269119640342
114,1437231072059,64.6279700913606
115,1437231072732,62.3559836161283
116,1437231073466,62.2261817143248
117,1437231074115,64.1050530689485
118,1437231074811,66.5860255375074
119,1437231075555,63.3844395895262
120,1437231076268,65.3062136930909
121,1437231076996,64.0600975710759
122,1437231077705,65.8342653343907
123,1437231078469,61.5308579549222
124,1437231079101,64.1358735427209
125,1437231079782,64.9295492867105
126,1437231080525,66.7689815186728
127,1437231081241,66.8984232813483
128,1437231081989,62.2821675347552
129,1437231082722,62.3741635431102
130,1437231083419,61.2431885276647
131,1437231084076,61.6165112640234
132,1437231084757,64.1933312486583
133,1437231085525,61.0280764850441
134,1437231086279,64.445355381873
135,1437231087009,67.6989920594701
136,1437231087729,68.551638395796
137,1437231088537,65.7940402841327
138,1437231089281,67.2063561946652
139,1437231090012,66.3978737776265
140,1437231090756,64.8936617866085
141,1437231091497,61.9676849127056
142,1437231092224,68.5417553156136
143,1437231092959,65.0993468580923
144,1437231093672,68.1413764401391
145,1437231094347,57.7521807417203
146,1437231095076,66.0972396621124
147,1437231095809,69.0268328435552
148,1437231096552,64.3482731667859
149,1437231097319,70.0729328721918
150,1437231098043,70.9220940825098
151,1437231098802,68.2126454641046
152,1437231099546,66.4773166653521
153,1437231100264,70.3414950310874
154,1437231100983,64.9249059049242
155,1437231101744,67.5560634683182
156,1437231102464,65.4536781019323
157,1437231103197,66.1851707285565
158,1437231103888,61.7997605261943
159,1437231104563,66.4795436877547
160,1437231105314,66.6426434544422
161,1437231106030,66.0412007961501
162,1437231106774,63.8948515637462
163,1437231107500,59.3949473622726
164,1437231108155,65.3613796706056
165,1437231108886,65.5544918871252
166,1437231109617,65.27591046741
167,1437231110341,64.7158252582472
168,1437231111075,63.1424912861306
169,1437231111799,60.588246666497
170,1437231112522,61.3453983602109
171,1437231113299,69.3102720815022
172,1437231114103,66.4935092901456
173,1437231114789,68.4126170390837
174,1437231115514,67.5126974537359
175,1437231116248,65.5041547683186
176,1437231116971,67.8591445596139
177,1437231117768,66.1179796561347
178,1437231118489,68.8887663085599
179,1437231119128,65.9345214714048
180,1437231119866,65.0511450178934
181,1437231120570,64.3317557784073
182,1437231122037,63.8193111129148
183,1437231122767,62.6724039889302
184,1437231123554,66.7657814641505
185,1437231124330,66.581536133464
186,1437231125058,70.9798387199728
187,1437231125758,71.3311574001376
188,1437231126437,63.2407091401849
189,1437231127187,72.6136825738932
190,1437231127920,73.9768754823463
191,1437231128758,71.4802833696881
192,1437231129495,66.862096775453
193,1437231130206,67.1283294381797
194,1437231132126,66.5994020687126
195,1437231132766,64.7533080125103
196,1437231133496,64.3667902414106
197,1437231134316,65.2018632939144
198,1437231135055,72.9781782574901
199,1437231135794,70.1833980301509
200,1437231136514,71.8960035138809
201,1437231137249,68.8076673432412
202,1437231137981,67.6085713536702
203,1437231138620,72.2056373986727
204,1437231139374,69.6814776547195
205,1437231140106,66.9822840768729
206,1437231140838,64.2066929350138
207,1437231141545,67.7587543946932
208,1437231142284,66.7723764093619
209,1437231142966,69.3603086470961
210,1437231143764,68.0076175122826
211,1437231144485,63.1217182440643
212,1437231145226,63.2857582697095
213,1437231147251,65.6566038044976
214,1437231147998,62.7971565847285
215,1437231148734,61.1937997655527
216,1437231149398,65.4192741805805
217,1437231150131,64.1581218007289
218,1437231150877,61.7826552208433
219,1437231151599,61.529209034134
220,1437231152359,67.389068389364
221,1437231153112,71.4460876726256
222,1437231153775,70.499141017263
223,1437231154396,60.3325147318282
224,1437231155832,61.0741632181058
225,1437231156584,60.4729841110818
226,1437231157308,62.6185991878824
227,1437231158039,65.9671408325906
228,1437231158793,66.3325720598299
229,1437231159569,65.9775105964483
230,1437231160254,67.5937067332941
231,1437231160957,70.4605872702599
232,1437231161648,70.3469943129836
233,1437231162307,58.1967016877569
234,1437231163031,68.6190786037967
235,1437231163745,62.1669013852674
236,1437231164531,72.4070948209767
237,1437231165267,67.2047303391423
238,1437231165992,65.5433986549398
239,1437231166726,64.3064934831568
240,1437231167454,65.0747288167158
241,1437231168186,67.1317000121146
242,1437231168953,63.1465801976448
243,1437231169759,63.091757099929
244,1437231170473,63.2808748406169
245,1437231171144,63.3821115540168
246,1437231171820,67.599222765492
247,1437231172580,67.833571049225
248,1437231173309,65.4814207344528
249,1437231174031,67.7101092755343
250,1437231174764,68.303901141811
251,1437231175503,70.5373462784376
252,1437231176165,59.1276714055031
253,1437231176928,64.5609134861922
254,1437231177637,68.9158574036165
255,1437231178383,66.5720645592573
256,1437231179057,71.0296126107725
257,1437231179714,59.5920043703821
258,1437231180452,61.5505643172909
259,1437231181168,64.3213325856067
260,1437231181896,58.8339171807604
261,1437231182579,65.5818447077381
262,1437231183280,62.7811031301157
263,1437231184056,62.7618731713959
264,1437231184785,60.8116995959121
265,1437231185541,61.1254936855444
266,1437231186206,63.8998364083398
267,1437231186939,65.0338001245157
268,1437231187689,64.67241161295
269,1437231188413,62.1546418893699
270,1437231189181,63.1455497482263
271,1437231189921,62.4370761944282
272,1437231190652,59.1616872641271
273,1437231191390,62.851261060732
274,1437231192138,67.8088294769502
275,1437231192856,71.5402402235124
276,1437231193456,59.192679727098
277,1437231194142,65.5940231510497
278,1437231194879,64.3990479418898
279,1437231195612,65.685139816794
280,1437231196353,64.2901855349226
281,1437231197090,64.1563541022069
282,1437231197829,60.6742794910845
283,1437231198545,62.5228336175098
284,1437231199156,66.0661857243483
285,1437231199879,64.8806584728796
286,1437231200619,65.6152937271489
287,1437231201358,63.4385175210842
288,1437231202087,63.6241142303338
289,1437231202851,62.7084376577885
290,1437231203555,61.6466412696105
291,1437231204231,64.9761833640797
292,1437231204957,64.7016826244615
293,1437231205715,61.4232851385448
294,1437231206451,60.9606070238414
295,1437231207171,60.4136803864682
296,1437231207838,63.5859777332078
297,1437231208586,61.1851764663302
298,1437231209324,60.4907993463637
299,1437231210080,60.7943131592248
300,1437231210859,67.6959508203557
301,1437231211603,67.6479160399138
302,1437231212306,63.5297450508441
303,1437231213037,65.6416402892441
304,1437231213778,66.9730097653479
305,1437231214501,65.1393805044314
306,1437231215170,65.5103967426913
307,1437231215867,72.0733564938963
308,1437231216644,67.0328997419889
309,1437231217382,65.2068176394957
310,1437231218092,62.8564782060543
311,1437231218828,66.0028420426397
312,1437231219540,65.3852368861392
313,1437231220277,64.1365904368377
314,1437231221012,66.4142550552258
315,1437231221702,66.0676311355411
316,1437231222417,68.1297041400818
317,1437231223151,66.7407709174121
318,1437231223904,66.0206522187649
319,1437231224646,67.4625392477157
320,1437231225385,62.7488487254737
321,1437231226125,61.6602661442319
322,1437231226870,67.6526783396501
323,1437231227522,64.1173651625609
324,1437231228224,63.5683923521354
325,1437231228955,65.4251294616997
326,1437231229689,59.495560187728
327,1437231230424,65.7685121352234
328,1437231231181,66.465071417831
329,1437231231918,68.2738633041861
330,1437231232632,66.4912667756178
331,1437231233292,64.8577820713898
332,1437231234063,66.6701690895509
333,1437231234817,65.569499472907
334,1437231235534,64.3679399643164
335,1437231236276,65.6938506945229
336,1437231237036,66.8910480323096
337,1437231237761,66.6617389248213
338,1437231238497,61.4715763183056
339,1437231239274,71.1392436865872
340,1437231239965,69.1454414908456
341,1437231240645,68.8549253868351
342,1437231241404,61.2288774671459
343,1437231242130,64.2889361087176
344,1437231242893,72.8042103623056
345,1437231243660,71.5048417481896
346,1437231244392,71.3350839052399
347,1437231245128,72.8423803087188
348,1437231245864,69.2118189621007
349,1437231246537,61.6612765178253
350,1437231247273,61.3408661533641
351,1437231248003,62.1488628912814
352,1437231248791,62.6981467803218
353,1437231249485,72.0081227774392
354,1437231250148,65.408709542221
355,1437231250885,66.0944418383551
356,1437231251597,58.6322472038538
357,1437231252369,67.3075705067941
358,1437231253102,66.6469100973916
359,1437231253839,71.0415128337175
360,1437231254584,70.2195321441734
361,1437231255331,74.1735577689343
362,1437231256039,70.7368307255391
363,1437231256719,64.1985959109611
364,1437231257442,66.3722096279696
365,1437231258173,56.0493928851955
366,1437231258904,62.3205991042932
367,1437231259634,62.2833044068784
368,1437231260358,62.2602433087914
369,1437231261096,72.7440781162708
370,1437231261771,67.8492131129658
371,1437231262529,64.5163873754153
372,1437231263766,58.5749643462601
373,1437231264383,69.3731501296051
374,1437231265034,60.1666758879532
375,1437231265733,63.9826304787392
376,1437231266477,57.1992630642748
377,1437231267139,61.4322049671529
378,1437231267872,61.7693532807537
379,1437231268611,62.9940915038136
380,1437231269358,60.8975461780157
381,1437231270086,61.5243479376303
382,1437231270815,61.2155014599027
383,1437231271483,60.786550051852
384,1437231272227,66.9597549211637
385,1437231272948,64.4990878988224
386,1437231273602,61.5989026555949
387,1437231274194,63.7357602754081
388,1437231274877,67.4346038952728
389,1437231275657,64.8053868255382
390,1437231276388,60.4913554594642
391,1437231277111,63.5136254470203
392,1437231277835,64.5143538049109
393,1437231278561,63.7037728100004
394,1437231279280,65.3343165053109
395,1437231280019,63.1459093908757
396,1437231280712,65.4967298222882
397,1437231281386,61.0840137306419
398,1437231282063,64.390219431465
399,1437231282728,65.5583615371416
400,1437231283491,66.5998613736228
401,1437231284242,69.1183191768408
402,1437231284972,65.2813549998325
403,1437231285721,63.7400905382464
404,1437231286485,62.7733145452009
405,1437231287168,59.3688174252507
406,1437231287894,66.5895591824607
407,1437231288626,67.2780279116156
408,1437231289367,62.4446519089084
409,1437231290103,66.9744589145239
410,1437231290825,66.8080375480137
411,1437231291578,61.5282786746497
412,1437231292324,60.687092559871
413,1437231293055,64.6413649718719
414,1437231293691,67.2419802456081
415,1437231294385,64.9601477412019
416,1437231295179,68.1439111980318
417,1437231295910,64.360295507347
418,1437231296614,64.56961108891
419,1437231297333,60.0148287715702
420,1437231298030,65.0400919832095
421,1437231298771,62.9233706900726
422,1437231299514,62.7700291000033
423,1437231300241,64.8606107596672
424,1437231300932,66.1789440227939
425,1437231301629,65.6711567289624
426,1437231302331,66.6266416219439
427,1437231303049,67.9538559559107
428,1437231303735,66.6150747864878
429,1437231304404,57.0345810681236
430,1437231305106,57.5416619033384
431,1437231305823,58.4398378913893
432,1437231306522,59.7534776793352
433,1437231307256,61.5245295550275
434,1437231307952,61.6136821814322
435,1437231308685,61.4840775337831
436,1437231309417,61.5616307207863
437,1437231310147,61.6416408329634
438,1437231310871,63.2504628711855
439,1437231311593,60.8946242273359
440,1437231312326,60.1240174152866
441,1437231313060,59.1075227591949
442,1437231313822,60.7032083446292
443,1437231314574,66.650799918948
444,1437231315291,70.7088018824445
445,1437231315957,60.0502366332153
446,1437231316685,61.621900983696
447,1437231317418,68.4255533498569
448,1437231318154,71.3030145916823
449,1437231318918,68.6875136424297
450,1437231319681,66.1393061885249
451,1437231320453,66.1970018467025
452,1437231321222,65.2170516901528
453,1437231321908,63.3419936640273
454,1437231322639,66.0623362670983
455,1437231323365,62.7178956635364
456,1437231324110,67.4159881813067
457,1437231324907,68.8810587508436
458,1437231326266,62.1118480301399
459,1437231326923,64.4325043261194
460,1437231327642,63.88901062551
461,1437231328472,66.4666930435176
462,1437231329224,61.7159360591311
463,1437231329946,63.2124505821355
464,1437231330734,67.4870614178988
465,1437231331482,65.4981734984782
466,1437231332137,70.9426996170178
467,1437231332871,70.8617849468758
468,1437231333615,68.8605936194661
469,1437231334349,71.404013152973
470,1437231335077,66.4838364412532
471,1437231335797,66.4589192123728
472,1437231336527,66.993486169735
473,1437231337243,66.2034164340072
474,1437231337960,66.2746162050412
475,1437231338645,60.0066669046185
476,1437231340115,65.9730501996816
477,1437231340804,71.7717366562894
478,1437231341495,72.2929141201304
479,1437231342148,65.4231892466976
480,1437231342872,66.2339028784049
481,1437231343638,67.8941558423208
482,1437231344429,71.1525783573398
483,1437231345148,70.2445377088428
484,1437231345877,68.7464152525545
485,1437231346607,68.9342003677064
486,1437231347337,62.5899669217127
487,1437231348089,66.3724298053026
488,1437231348824,62.3555430993021
489,1437231349526,62.4937124539652
490,1437231350266,68.9468605494716
491,1437231350986,69.2990056249211
492,1437231351735,62.5685443278357
493,1437231352505,62.0660609358479
494,1437231353224,62.5571046058788
495,1437231354047,58.1192531164279
496,1437231354778,62.3325082005265
497,1437231355510,64.9007116859743
498,1437231356256,68.1231631091322
499,1437231356999,68.772610530668
500,1437231357736,68.200995523017
501,1437231358493,72.5455822826837
502,1437231359238,65.3978252769281
503,1437231359894,65.5923437393885
504,1437231360580,61.2910328653065
505,1437231361302,65.4671552845389
506,1437231361868,61.2972474525839
507,1437231363254,69.9515613978028
508,1437231364028,64.5664875123095
509,1437231364754,64.1940623890308
510,1437231365468,66.0985878546085
511,1437231366214,63.0733653424156
512,1437231366949,68.4660828491532
513,1437231367688,67.6283294019787
514,1437231368431,70.5857697496262
515,1437231369239,69.5307693484487
516,1437231369924,65.4964648979737
517,1437231370554,64.8488247548694
518,1437231371240,56.3860758976433
519,1437231371904,63.0989038732102
520,1437231372616,62.3927326370164
521,1437231373362,63.797280719518
522,1437231374132,65.6900692166553
523,1437231374783,66.2696407873509
524,1437231376127,69.6964065829149
525,1437231376845,63.6195489511696
526,1437231377577,65.4487128428658
527,1437231378318,68.6440759600922
528,1437231379063,57.9161072254604
529,1437231379760,60.2343831009667
530,1437231380426,63.9028789263959
531,1437231381146,61.8217924827083
532,1437231381860,63.5789636379906
533,1437231382584,62.1387998230763
534,1437231383336,62.7287383751282
535,1437231384047,58.3276397250035
536,1437231384776,60.8700607191302
537,1437231385551,59.2394962763808
538,1437231386291,61.1116619625488
539,1437231387032,62.0985516722393
540,1437231387757,60.2520031698581
541,1437231388547,63.3614524816955
542,1437231389287,66.3312712546011
543,1437231390004,66.5274834436916
544,1437231390644,60.4039127721944
545,1437231391379,70.1451935447003
546,1437231392104,68.0211680070178
547,1437231392843,70.1231129272315
548,1437231393561,68.5732363871061
549,1437231394408,64.7224458257364
550,1437231395214,63.7993666316646
551,1437231395907,64.2486943334488
552,1437231396677,61.2494950075935
553,1437231397418,60.3148583437482
554,1437231398159,62.4806175555636
555,1437231398897,66.4982116315512
556,1437231399612,64.0246949047663
557,1437231400371,60.4279270081086
558,1437231401081,64.8999319813961
559,1437231401786,63.7905864131409
560,1437231402471,63.2504784883148
561,1437231403202,64.069086975498
562,1437231403948,63.2847836570626
563,1437231404713,64.7281144094018
564,1437231405446,58.6736618491709
565,1437231406151,59.1333155072199
566,1437231406835,61.3429913547297
567,1437231407551,65.0782905452061
568,1437231408285,65.3178704662173
569,1437231409053,61.5239377704118
570,1437231409789,61.6414369251196
571,1437231410494,65.6032645367064
572,1437231411166,64.9346726404192
573,1437231411885,62.8464584648387
574,1437231412616,64.579649322752
575,1437231413384,66.5482783374304
