id,attr_time,attr_db
1,1437230989991,19.5636418836806
2,1437230990746,28.0577484493856
3,1437230991442,46.656923007183
4,1437230992112,18.0731994325136
5,1437230992808,23.3027401471682
6,1437230994128,51.8384024676102
7,1437230994833,52.9177507742006
8,1437230995561,57.27368794309
9,1437230996309,63.3771376467093
10,1437230997034,53.1238714690852
11,1437230997725,52.7280308813829
12,1437230998383,63.3721922155163
13,1437230999097,55.2165582824444
14,1437230999774,54.2677301359125
15,1437231001116,63.635456372576
16,1437231001831,63.5893471891462
17,1437231002543,60.3370680050065
18,1437231003329,64.6722700557309
19,1437231004053,57.8319345359775
20,1437231004774,58.620116663585
21,1437231005500,63.6923726553859
22,1437231006204,65.6902042820064
23,1437231006874,58.706784479643
24,1437231008317,65.3093007003496
25,1437231008974,54.1301439346495
26,1437231009695,58.1345799255267
27,1437231010413,57.9132372408204
28,1437231011124,60.1461019991311
29,1437231013151,56.0143430529908
30,1437231013841,56.6203031319998
31,1437231014495,64.5473934592771
32,1437231015209,60.7296655785503
33,1437231015946,64.968199285479
34,1437231016685,59.7503358426232
35,1437231017426,55.0833742384589
36,1437231018105,57.9090370753761
37,1437231018740,59.7237428897535
38,1437231019419,53.1418346609779
39,1437231020152,59.1127190932433
40,1437231020910,62.3619670116322
41,1437231021640,58.5855925198614
42,1437231022363,60.7196520838188
43,1437231023188,59.6789452034859
44,1437231023932,67.2387091176504
45,1437231024672,64.8100233184632
46,1437231025398,64.2607411764865
47,1437231026139,64.1849815785185
48,1437231026856,63.1879607593347
49,1437231027570,54.9264024295539
50,1437231028313,59.6411233799107
51,1437231029030,58.5297615518104
52,1437231029705,58.3531278514744
53,1437231030419,58.6460426145778
54,1437231031147,60.6807357169283
55,1437231031916,56.2800566777664
56,1437231032598,58.6037133627932
57,1437231033330,58.0648294461682
58,1437231034078,60.8714414778879
59,1437231034776,62.5262625969199
60,1437231035397,52.6617477516988
61,1437231036086,65.2264500591513
62,1437231036820,61.6558803830706
63,1437231037530,47.4247135232779
64,1437231038246,55.6127569252006
65,1437231038937,61.546492528185
66,1437231039597,32.4280227119446
67,1437231040356,36.6644294194135
68,1437231041090,33.0469795059398
69,1437231041772,61.6759468997916
70,1437231042373,56.450387867804
71,1437231043071,67.1231902422841
72,1437231043802,62.1880089963305
73,1437231044518,58.85701312884
74,1437231045245,57.2599236543035
75,1437231045973,57.6419144407666
76,1437231046693,54.7728914155595
77,1437231047484,61.9465720802369
78,1437231048199,67.8802353324096
79,1437231048887,63.9258656229319
80,1437231049511,52.5232553417826
81,1437231050244,57.2927277499744
82,1437231050983,60.7607424607971
83,1437231051718,63.2490634210739
84,1437231052550,53.9877143085975
85,1437231053270,52.7726974592409
86,1437231054084,58.5638188899206
87,1437231054790,60.6839633806465
88,1437231055506,61.537396503457
89,1437231056226,61.1232349239527
90,1437231056957,62.2796821878617
91,1437231057675,53.6403836699398
92,1437231058381,54.9888998317316
93,1437231059071,55.2875367892176
94,1437231059754,63.4073766519956
95,1437231060473,59.5106547301163
96,1437231061153,60.9440138626125
97,1437231061824,57.3535871215866
98,1437231062513,57.0393195981691
99,1437231063243,59.0459205753129
100,1437231064133,60.2889211162718
101,1437231064836,73.543192989571
102,1437231065542,59.6170826841171
103,1437231066282,66.8132465137214
104,1437231067056,53.9894378716308
105,1437231067786,55.9543966557348
106,1437231068508,52.5118591970304
107,1437231069244,57.3647990629811
108,1437231069931,61.5737921618271
109,1437231070553,53.0711945467987
110,1437231071277,62.4589903334971
111,1437231072030,57.3434301547785
112,1437231072824,63.1224767555059
113,1437231073427,54.6207542339279
114,1437231074100,64.065567018843
115,1437231074807,62.6296644160947
116,1437231075534,66.4028141457168
117,1437231076251,63.6034002298468
118,1437231076969,59.6118240490231
119,1437231077689,62.2104034108612
120,1437231078366,61.4744335282047
121,1437231079000,59.239634595202
122,1437231079681,57.8059078411293
123,1437231080275,59.6098099285756
124,1437231080825,68.4140679098947
125,1437231081383,52.8158307672006
126,1437231081969,53.0738807282057
127,1437231082632,63.5295330677561
128,1437231083345,53.9218711305986
129,1437231084003,59.8244616201321
130,1437231084695,67.6950565936012
131,1437231085360,63.6751492338849
132,1437231085935,60.9670336181252
133,1437231086485,65.7560409063068
134,1437231087049,57.1720799416779
135,1437231088239,58.4381083090904
136,1437231088963,63.2369929001071
137,1437231089623,62.6185685778497
138,1437231090318,61.5359211803314
139,1437231091012,63.1978463931888
140,1437231091683,56.7828967022233
141,1437231092261,59.1357115848048
142,1437231092819,58.5336665724042
143,1437231093386,62.3224245137861
144,1437231093977,59.2272312403119
145,1437231094645,61.8172379250193
146,1437231095303,65.2662452888263
147,1437231095868,60.7231562501964
148,1437231096455,59.0065394639206
149,1437231097013,57.2512797778073
150,1437231097577,52.7112607452486
151,1437231098161,72.5052327265978
152,1437231099398,59.6529836283679
153,1437231100139,62.8800946939295
154,1437231100754,59.4190526005922
155,1437231101426,67.6960765652811
156,1437231102167,71.1502928047981
157,1437231102832,59.3694679399481
158,1437231103408,62.6192304096982
159,1437231103977,58.6744662508907
160,1437231104523,59.9400934845756
161,1437231105133,65.6574374359295
162,1437231105850,64.3016865254255
163,1437231106568,62.8544359170232
164,1437231107314,53.9550508896655
165,1437231107902,61.7706244035632
166,1437231108479,68.7784532606791
167,1437231109026,62.6451603780359
168,1437231109582,60.3581043319941
169,1437231110992,57.6321478722074
170,1437231111653,58.6891010638821
171,1437231112379,61.2825049595045
172,1437231113077,64.9879351982617
173,1437231113730,56.7899075624069
174,1437231114410,61.6941048171518
175,1437231115133,60.6141184846281
176,1437231115956,58.7694222168006
177,1437231116607,59.7334085548833
178,1437231117327,65.1589325665568
179,1437231118055,65.4360124048359
180,1437231118796,64.9527453386321
181,1437231119514,66.5500945057461
182,1437231120240,63.661036523301
183,1437231121007,60.611672603756
184,1437231121750,54.596415854287
185,1437231122366,62.708215091533
186,1437231123034,56.0208588179039
187,1437231123751,60.6223282410196
188,1437231124463,60.2368169999958
189,1437231125167,56.9446928897621
190,1437231125845,58.3952054690783
191,1437231126472,62.5029132896589
192,1437231127176,58.2903040439729
193,1437231127887,55.0360019121928
194,1437231128669,57.0306186328309
195,1437231129399,62.9339021265884
196,1437231130114,62.7759965726516
197,1437231130828,61.4166347001901
198,1437231131570,64.511817499745
199,1437231132335,61.4825506299229
200,1437231133063,62.3082806531467
201,1437231133707,61.9016305131601
202,1437231134366,63.4992278708639
203,1437231135083,63.5071356002709
204,1437231135784,66.7596865807517
205,1437231136506,62.4935045456148
206,1437231137243,61.4804133215003
207,1437231137985,59.5970342638023
208,1437231138717,60.4987540975651
209,1437231139444,61.57382253059
210,1437231140167,64.6316162403005
211,1437231140885,66.3776209074311
212,1437231141617,59.4518033653299
213,1437231142338,62.4572283397247
214,1437231143112,50.6674928743375
215,1437231143871,57.4465741612698
216,1437231144595,58.1870946405104
217,1437231145300,62.9100006399131
218,1437231145958,55.5028105847073
219,1437231146692,58.9360622376005
220,1437231147444,59.6543267069534
221,1437231148198,60.075427997489
222,1437231148970,61.9352331850857
223,1437231149633,59.4602177359064
224,1437231150375,60.1799078920189
225,1437231151091,63.1024482985308
226,1437231151809,59.2684176315816
227,1437231152558,68.258097787073
228,1437231153303,64.3198196111474
229,1437231153958,64.7681421843843
230,1437231154645,61.1556421292985
231,1437231155360,61.8598193395475
232,1437231156078,58.7320960974255
233,1437231156801,61.3392444835482
234,1437231157491,60.3971770236222
235,1437231158160,55.8984385198491
236,1437231158891,60.8931638143425
237,1437231159637,61.6090350474935
238,1437231160342,59.2531267543196
239,1437231161073,60.5224248051558
240,1437231161795,60.2070117610053
241,1437231162529,60.1856169846038
242,1437231163258,65.6205416414903
243,1437231164007,68.5145026502372
244,1437231164727,67.6842051068222
245,1437231165484,63.0591788161294
246,1437231166210,65.0379029678492
247,1437231166932,66.2748442126193
248,1437231167647,68.2155973507618
249,1437231168405,58.345279363028
250,1437231169050,57.635859343567
251,1437231169776,55.8043645938393
252,1437231170509,62.3802340908672
253,1437231171238,61.8037786635779
254,1437231171969,62.2404101996027
255,1437231172647,58.8677961423638
256,1437231173343,59.3454389034974
257,1437231173990,51.5852039073033
258,1437231174690,57.1293940087552
259,1437231175431,57.2355309158262
260,1437231176241,57.8251937066487
261,1437231176983,60.5840798367914
262,1437231177689,67.1510020447652
263,1437231178506,61.7902995406303
264,1437231179220,64.6531400042324
265,1437231179915,61.1667536150743
266,1437231180643,59.1605117604874
267,1437231181380,58.6096865979043
268,1437231182115,58.2672128048059
269,1437231182818,60.7802952614005
270,1437231183626,57.454826172708
271,1437231184339,58.1766797357357
272,1437231185061,58.994486902274
273,1437231185787,63.5930742871699
274,1437231186545,60.3317029041555
275,1437231187274,59.3367086699596
276,1437231188024,63.4200901382525
277,1437231188829,57.2482053325136
278,1437231189553,56.6177102140355
279,1437231190277,58.6125560628387
280,1437231190959,63.4940212477929
281,1437231191616,60.8944570981373
282,1437231192339,63.8367389560776
283,1437231193135,70.2706550990833
284,1437231193930,62.5198651113652
285,1437231194567,62.5396288491841
286,1437231195285,61.7123828449509
287,1437231195923,65.2016123989051
288,1437231196577,59.9012016607894
289,1437231197249,60.2809739755656
290,1437231198603,57.2105360318672
291,1437231199323,56.5531110562492
292,1437231200046,54.2438480082255
293,1437231200735,54.3732947932213
294,1437231201392,57.8948480321128
295,1437231202115,54.4197101624087
296,1437231202824,51.0480780956451
297,1437231203659,51.4665532796515
298,1437231204286,52.1388040800387
299,1437231204969,58.3249499125619
300,1437231205696,58.0656237127068
301,1437231206420,59.7499115195162
302,1437231207160,50.7701877923642
303,1437231207876,53.5427501257614
304,1437231209900,61.033686374229
305,1437231210587,59.9661746846833
306,1437231211315,62.511172510294
307,1437231212036,62.7808054138523
308,1437231212753,59.8941088613
309,1437231213443,58.7494673853379
310,1437231214064,60.1776683876559
311,1437231214810,60.445351864603
312,1437231215529,62.4510188121871
313,1437231216241,63.0249977334814
314,1437231216946,60.5376662208072
315,1437231217558,62.4944647652751
316,1437231218270,64.1976704857435
317,1437231218989,68.7863566799462
318,1437231219746,60.2941139673754
319,1437231220492,61.7920934037458
320,1437231221236,60.0676261618132
321,1437231221966,57.6078790049657
322,1437231222695,67.3790134471719
323,1437231224712,64.1806097886015
324,1437231225445,67.5957867816393
325,1437231226187,62.9149077974228
326,1437231226947,60.8745948755157
327,1437231227664,61.3868082390163
328,1437231228384,52.7359595418727
329,1437231229018,65.1996298298626
330,1437231229718,62.9990937599464
331,1437231230451,70.1811988541421
332,1437231231186,66.4310659400148
333,1437231231901,63.7173506567573
334,1437231233003,59.7560473195442
335,1437231233555,58.4107839392578
336,1437231234140,61.9762162935917
337,1437231234689,57.4251230642026
338,1437231235291,49.8039554239056
339,1437231235982,52.7457457372911
340,1437231236695,60.3531248803501
341,1437231237394,55.0353970504685
342,1437231237972,59.4510719520632
343,1437231238545,59.6682617863243
344,1437231239104,64.4153264954033
345,1437231239656,59.8675651856421
346,1437231240248,56.7951153329869
347,1437231241747,59.8947699281268
348,1437231242477,57.0812066779049
349,1437231243203,63.6641596822883
350,1437231244089,64.7692239460509
351,1437231244701,51.0835407270892
352,1437231245308,61.4047576151553
353,1437231245894,59.7592558216794
354,1437231246505,67.5982952636647
355,1437231247180,63.8157546625792
356,1437231247954,65.9248293569801
357,1437231248562,63.127232288928
358,1437231249125,51.0802532046091
359,1437231249679,66.1353762315158
360,1437231250233,64.7565577155419
361,1437231250811,73.6017487379882
362,1437231252225,62.0958240655168
363,1437231252997,62.3847539635976
364,1437231253739,64.6041812991072
365,1437231254342,55.5188629371315
366,1437231254926,57.825153388199
367,1437231255515,65.3230046725487
368,1437231256087,61.5634110536684
369,1437231256642,68.438485725534
370,1437231257273,60.5370871916946
371,1437231258058,64.2472221372894
372,1437231258958,58.5501131113288
373,1437231259518,66.4733655477185
374,1437231260084,59.5535026732935
375,1437231260651,59.6051681435981
376,1437231261203,59.4906262358743
377,1437231262901,50.0046871479691
378,1437231263618,59.1137824275549
379,1437231264409,50.8028684385362
380,1437231265066,52.6042586101201
381,1437231265765,54.1180971827754
382,1437231266414,67.6797576485066
383,1437231267044,64.2658189976881
384,1437231267667,64.4442345479804
385,1437231268319,67.3095726679086
386,1437231269100,56.0952155599516
387,1437231269731,66.0335830477512
388,1437231270458,61.8166326200892
389,1437231271161,57.5099689748162
390,1437231271893,56.9943632687777
391,1437231272650,58.5332555215765
392,1437231273376,59.4980720411329
393,1437231274196,65.1260165668273
394,1437231274880,64.77574330793
395,1437231275553,58.9183377713124
396,1437231276293,59.6264525221418
397,1437231277018,63.1712099312545
398,1437231277742,61.6018047611518
399,1437231278459,57.8159411489709
400,1437231279260,64.3451426412628
401,1437231279992,69.2271931432119
402,1437231280669,72.3231169117341
403,1437231281394,58.201200498392
404,1437231282105,62.054112914335
405,1437231282823,58.9709373933629
406,1437231283498,60.7383449611719
407,1437231284136,50.7374754935998
408,1437231284860,49.8625033508074
409,1437231285577,52.417970005741
410,1437231286293,51.1097788641333
411,1437231287022,54.510666088429
412,1437231287706,53.6717492517377
413,1437231288362,62.8049767775431
414,1437231289059,65.7691855387973
415,1437231289780,64.5174424688867
416,1437231290522,64.3310996923007
417,1437231291230,63.9865029720295
418,1437231291859,64.800840477304
419,1437231292544,59.4562543659588
420,1437231293364,58.9569572541638
421,1437231294074,61.5057214867335
422,1437231294766,60.1740378353204
423,1437231295389,63.0765259021824
424,1437231296099,55.5241499753713
425,1437231296838,52.8311160846193
426,1437231297571,61.5196987685431
427,1437231298358,63.2750430849732
428,1437231299027,58.1670627591896
429,1437231299736,57.5752277341129
430,1437231300465,60.7280354620486
431,1437231301188,57.621348831326
432,1437231301894,53.5513548753207
433,1437231302623,61.1008441186355
434,1437231303394,61.6549212133479
435,1437231304043,61.0454548191467
436,1437231304748,67.9953381576362
437,1437231305470,64.3891631141869
438,1437231306224,66.2410264518682
439,1437231306946,66.4417000650665
440,1437231307673,66.0545131699852
441,1437231308474,58.103779593301
442,1437231309156,60.2184533038142
443,1437231309963,65.6010408638191
444,1437231310672,61.8171311220236
445,1437231311405,62.8482075495106
446,1437231312142,62.1951995493594
447,1437231312828,58.1186537759829
448,1437231313463,60.5747387992053
449,1437231314147,57.500810276131
450,1437231314880,61.5778977641978
451,1437231315470,70.804046728449
452,1437231316144,62.2575271792223
453,1437231316854,57.1794309910653
454,1437231317576,57.9516520385982
455,1437231318319,60.4189719208202
456,1437231319045,65.3002843198117
457,1437231319805,67.5860177070823
458,1437231320530,66.1438759421678
459,1437231321255,68.0085993508129
460,1437231321990,60.9689174501434
461,1437231322709,67.3827964839092
462,1437231323466,56.519966623287
463,1437231324188,59.8407221145381
464,1437231324886,53.6775826194971
465,1437231325543,62.4097492876789
466,1437231326226,64.5778935502361
467,1437231326968,60.9167190445875
468,1437231327696,63.7743265786992
469,1437231328498,59.2855948161005
470,1437231329233,54.9158112147665
471,1437231329898,58.1321214253212
472,1437231330628,63.1241850364161
473,1437231331350,63.0139238201537
474,1437231332078,56.6673282624713
475,1437231332792,63.0200841342639
476,1437231333549,71.7919292325712
477,1437231334281,59.0177872544644
478,1437231334996,59.3458045466299
479,1437231335635,58.7128724772838
480,1437231336334,61.3265290265402
481,1437231337054,61.747197655383
482,1437231337742,66.4745690538096
483,1437231338324,59.9750193873273
484,1437231338953,48.9826414962516
485,1437231339622,63.8386161053092
486,1437231340268,63.3531123673093
487,1437231340988,65.6028210600691
488,1437231341699,61.9639832239959
489,1437231342425,62.3173363848943
490,1437231343157,66.5985494264702
491,1437231343865,64.1103588954861
492,1437231344569,63.2676250200976
493,1437231345250,60.358064646107
494,1437231346000,63.3815581370865
495,1437231346732,63.7448864632319
496,1437231347473,63.3563205299376
497,1437231348195,62.9956957285263
498,1437231348902,54.3886679055497
499,1437231349541,61.384312999591
500,1437231350264,60.131017680878
501,1437231350992,63.8690241271976
502,1437231351718,63.5748393474708
503,1437231352427,62.59601625759
504,1437231353220,60.092741439832
505,1437231353943,66.0211000451218
506,1437231354675,62.4153703064398
507,1437231355355,60.5966771128481
508,1437231355947,65.5995046528151
509,1437231356632,56.9581119213685
510,1437231357348,62.0268712722965
511,1437231358167,63.5869817316557
512,1437231358903,60.7702444462694
513,1437231359555,55.2616462868337
514,1437231360283,58.5721641617894
515,1437231361012,62.4699772155119
516,1437231361744,55.7906781891218
517,1437231362483,59.6405906738132
518,1437231363270,61.1912270926695
519,1437231363981,57.319214482761
520,1437231364705,52.4408039668823
521,1437231365377,66.1183710230097
522,1437231366029,60.9342242662344
523,1437231366744,58.2367584473177
524,1437231367465,59.1290236439962
525,1437231368223,61.9686696712443
526,1437231368906,64.2238441672275
527,1437231369524,47.7484029020418
528,1437231370216,56.7579864511099
529,1437231370915,56.7486629585266
530,1437231371562,58.5054302751306
531,1437231372295,62.543430977799
532,1437231373020,60.3574498444544
533,1437231373820,59.8861428566941
534,1437231374560,65.1698618318047
535,1437231375388,54.5128794069937
536,1437231376066,64.735932142466
537,1437231376743,66.0494566209803
538,1437231377450,60.275210984121
539,1437231378236,59.0225696812764
540,1437231379118,46.1549884902722
541,1437231379839,48.2685640606563
542,1437231380590,54.1596930391431
543,1437231381323,51.6884116906313
544,1437231382057,55.2667909932884
545,1437231382802,57.3568831852049
546,1437231383529,62.3872870598186
547,1437231384240,60.0585926748651
548,1437231384971,57.4260048501924
549,1437231385685,59.6678993972481
550,1437231386325,52.6403515416321
551,1437231387009,45.5472561513888
552,1437231387746,57.0514425309361
553,1437231388458,56.7580694756793
554,1437231389195,51.9413184206787
555,1437231389909,55.4403797718382
556,1437231390646,50.0933842327162
557,1437231391398,54.1204005939943
558,1437231392149,48.1606885494706
559,1437231392901,54.0330526239773
560,1437231393629,53.5505988832545
561,1437231394363,57.2761771897013
562,1437231395101,54.622979311639
563,1437231395779,57.0359062111179
564,1437231396399,49.8259785671184
565,1437231397050,62.0341229013248
566,1437231397793,60.8812091252217
567,1437231398464,62.0790809394237
568,1437231399109,61.8334515035029
569,1437231399866,62.9997967776745
570,1437231400586,60.3729453533622
571,1437231401284,63.1683633335018
572,1437231402680,65.1879671725683
573,1437231403495,64.220855424439
574,1437231404212,59.3523792241069
575,1437231404954,58.1090290969196
