id,attr_time,attr_db
1,1437230989646,12.811276026724
2,1437230990308,16.1852010614295
3,1437230991028,44.8758653432847
4,1437230991770,23.2528279365842
5,1437230992502,14.558578618784
6,1437230993218,40.4610872134987
7,1437230993965,40.9261500059977
8,1437230994706,40.8279145992707
9,1437230995437,36.0378566843036
10,1437230996177,28.1931492592981
11,1437230996875,25.8375845427799
12,1437230997577,35.1026390929277
13,1437230998244,33.2787706283094
14,1437230998983,32.9372191283378
15,1437230999698,31.7741319562252
16,1437231000356,29.6201059786685
17,1437231001083,33.0333714759909
18,1437231001813,35.0834679034199
19,1437231002491,33.6901738877899
20,1437231003092,32.8459005848656
21,1437231003752,42.8087396360327
22,1437231004473,39.918155330833
23,1437231005261,29.35497954394
24,1437231005986,32.5214244494384
25,1437231006706,32.7850040277454
26,1437231007420,35.0594548026225
27,1437231008163,31.7838570229661
28,1437231008891,31.160529808706
29,1437231009604,44.7039954086656
30,1437231010192,27.0965205883249
31,1437231010868,33.5154722585087
32,1437231011602,34.1614773174614
33,1437231012313,25.8620737350586
34,1437231013062,32.5490046716403
35,1437231013800,33.5866316581594
36,1437231014529,33.2572856894852
37,1437231015327,44.5183971895851
38,1437231016058,42.6021310127819
39,1437231016789,44.0718205619382
40,1437231017472,43.2080510443258
41,1437231018130,31.2249852913907
42,1437231018875,44.9336711535371
43,1437231019654,44.6009896102135
44,1437231020423,30.6119915405772
45,1437231021092,40.0677534588523
46,1437231021815,38.6350626494878
47,1437231022543,33.0194406165139
48,1437231023249,39.5268647494408
49,1437231023980,37.1362361749962
50,1437231024754,32.0934253757836
51,1437231025483,36.3682730350647
52,1437231026215,34.2087946917577
53,1437231026931,36.426942270046
54,1437231027642,36.2306573526614
55,1437231028333,35.1051744789754
56,1437231029067,33.3446384540306
57,1437231029882,37.5414336527634
58,1437231030592,36.788744747712
59,1437231031325,33.1153993561372
60,1437231032052,33.4414943426516
61,1437231032779,37.3606789766585
62,1437231033523,48.8491720997022
63,1437231034256,50.7024667912278
64,1437231035000,43.8822388731543
65,1437231035736,39.2196561997402
66,1437231036492,37.1926641889943
67,1437231037206,47.1604479986295
68,1437231037933,51.3760506318448
69,1437231038676,51.9215440413421
70,1437231039410,17.2258175820325
71,1437231040116,26.9503104262473
72,1437231040837,20.1163444215625
73,1437231041584,43.1010230501692
74,1437231042347,42.0316057187345
75,1437231043039,51.2449003406305
76,1437231043728,65.4202500176228
77,1437231044464,29.6461145153643
78,1437231045198,30.3046513027452
79,1437231045912,31.1880848689196
80,1437231046681,32.8592004928348
81,1437231047404,40.1751118009211
82,1437231048175,41.8916233323728
83,1437231048857,43.02404616594
84,1437231049626,40.9036728698004
85,1437231050338,38.5145484422254
86,1437231050984,41.6908356438923
87,1437231051721,40.0433171433449
88,1437231052446,46.6550730560702
89,1437231053179,39.4029861828544
90,1437231053892,44.4373099404951
91,1437231054642,36.9435146314469
92,1437231055378,41.6930685070429
93,1437231056112,37.9522092822031
94,1437231056844,33.0526099068178
95,1437231057525,29.3731603274459
96,1437231058113,44.4022969215884
97,1437231058832,40.5359261894559
98,1437231059598,39.4636205941794
99,1437231060371,36.8323546317644
100,1437231061121,36.3876759473661
101,1437231061840,36.8299231596416
102,1437231062571,36.8067385505426
103,1437231063268,49.1453026387855
104,1437231063943,37.3780226918683
105,1437231064713,61.4928651217341
106,1437231065438,34.4969835645644
107,1437231066176,34.1591659259367
108,1437231066909,42.80461042126
109,1437231067636,42.910421189332
110,1437231068333,50.0851922941386
111,1437231069012,38.7525354623453
112,1437231069758,46.8172256922991
113,1437231070483,43.6864868985764
114,1437231071199,47.8138018959689
115,1437231071936,49.5491939693132
116,1437231072689,40.1720344934175
117,1437231073416,41.0513473124397
118,1437231074181,36.9904950455799
119,1437231074894,39.081004226392
120,1437231075663,31.3512635552248
121,1437231076382,31.0571925046225
122,1437231077105,34.7818531828916
123,1437231077851,32.9408123260312
124,1437231078571,32.4429031675992
125,1437231079281,34.2019627131825
126,1437231080032,30.3583191659535
127,1437231080783,42.1062480546849
128,1437231081509,41.6437513064435
129,1437231082189,43.9788634010982
130,1437231082910,43.5047466537466
131,1437231083611,45.447939711897
132,1437231084321,43.3808778283935
133,1437231085073,48.5150647781259
134,1437231085843,38.6718395606567
135,1437231086581,39.3085576108011
136,1437231087298,35.2947022974818
137,1437231088041,34.552749601134
138,1437231088757,30.2894147950629
139,1437231089443,32.9318852079608
140,1437231090156,31.6214349498714
141,1437231090875,33.1028191160885
142,1437231091654,38.4682759332863
143,1437231092381,36.0129267431423
144,1437231093087,38.8641941904218
145,1437231093821,35.7121139574053
146,1437231094541,39.5339092228392
147,1437231095267,50.3702865110042
148,1437231095998,44.1958205028103
149,1437231096749,50.6622350199454
150,1437231097485,69.6073526106507
151,1437231098190,47.6025902518385
152,1437231098871,43.9630276509679
153,1437231099535,44.941151169568
154,1437231100261,62.1759327129764
155,1437231101009,50.1807727898685
156,1437231101792,75.1432943756665
157,1437231102517,41.1177783655573
158,1437231103212,50.4009006983045
159,1437231103860,55.1271127960027
160,1437231104579,50.4804906720029
161,1437231105313,41.9500029024057
162,1437231106039,43.5746014658806
163,1437231106774,39.5272917668852
164,1437231107513,36.9905645393684
165,1437231108228,30.9767610821295
166,1437231108961,32.277154015841
167,1437231109674,32.7920238555749
168,1437231110327,37.0181361478535
169,1437231111053,34.64513788367
170,1437231111788,27.3581866867407
171,1437231112521,30.0267412373243
172,1437231113192,37.1087035612488
173,1437231113935,35.118397064044
174,1437231114668,29.956802028435
175,1437231115396,34.508663999338
176,1437231116128,37.3830310699312
177,1437231116862,35.8681993262209
178,1437231117541,38.5591837506171
179,1437231118197,36.5080517118117
180,1437231118874,38.4370778720892
181,1437231119599,27.1226551660842
182,1437231120266,43.1623903606198
183,1437231120989,41.073547248823
184,1437231121744,43.1120250979388
185,1437231122433,41.3436308920422
186,1437231123042,39.8187364521981
187,1437231123722,33.0851631583603
188,1437231124378,38.1051765375406
189,1437231125139,30.1102701131261
190,1437231125810,34.6986320741752
191,1437231126556,34.791868104244
192,1437231127300,30.4397452538488
193,1437231128058,49.7873922440998
194,1437231128780,49.3493487324884
195,1437231129503,54.1913099829685
196,1437231130288,36.820580655599
197,1437231131656,47.5747429376742
198,1437231132347,47.1970788680577
199,1437231133054,47.5701723505628
200,1437231133706,37.4848871464825
201,1437231134391,41.2380791528616
202,1437231135157,33.540270781493
203,1437231135871,46.0063750216626
204,1437231136602,53.0562347277878
205,1437231137345,54.6284322947378
206,1437231138113,38.5398350200723
207,1437231138853,39.7604035317625
208,1437231139564,38.4639257538858
209,1437231140398,34.6301351702609
210,1437231141107,30.454087552403
211,1437231141836,38.1965542703927
212,1437231142518,35.7220459370089
213,1437231143205,30.8792432890965
214,1437231143904,36.858483816582
215,1437231144507,38.9568034008389
216,1437231145893,37.1720601293974
217,1437231146556,43.2008420484836
218,1437231147271,41.3754583147611
219,1437231148035,39.1133140455044
220,1437231148755,38.6394699072195
221,1437231149495,35.321318100965
222,1437231150228,37.9760152510026
223,1437231150892,35.8744280061726
224,1437231151646,36.4665976559442
225,1437231152389,35.8333845521237
226,1437231153105,37.1705209474975
227,1437231153920,44.5194857432656
228,1437231154651,44.8813305368419
229,1437231155462,42.4611898034889
230,1437231156207,37.5730551837
231,1437231156930,36.1881696178011
232,1437231157672,35.4305329368284
233,1437231158410,36.2662763850602
234,1437231159136,30.9242419487953
235,1437231159945,36.858968845797
236,1437231160658,53.3516414397527
237,1437231161301,40.7710896755459
238,1437231162054,41.8080559807587
239,1437231162779,34.9433979485949
240,1437231163520,54.9935520844406
241,1437231164137,42.0154511436628
242,1437231164865,28.0051885293007
243,1437231165597,34.4429817351551
244,1437231166326,37.9761615868383
245,1437231167060,39.2985832311774
246,1437231168953,31.0582722501559
247,1437231169670,46.378982074361
248,1437231170472,36.8267062336602
249,1437231171125,35.5111940806831
250,1437231171864,36.6924189146838
251,1437231172618,42.2772491731262
252,1437231173337,32.1867198252422
253,1437231174099,37.062927690157
254,1437231174832,33.6237108899077
255,1437231175635,47.3988857342944
256,1437231176385,53.597749046049
257,1437231177127,61.1001356748375
258,1437231177862,51.9230631956682
259,1437231178574,42.3468911613108
260,1437231179308,42.4118331538517
261,1437231180101,43.4918568689213
262,1437231182188,44.2188160138613
263,1437231182938,45.8282191292533
264,1437231183703,41.9981681250794
265,1437231184404,47.1407865272371
266,1437231184991,33.8736117844086
267,1437231185659,31.6443449759212
268,1437231186402,34.2488921198518
269,1437231187144,39.8359101522449
270,1437231187883,38.1626039274448
271,1437231188643,42.0643965580956
272,1437231189380,40.7012488578566
273,1437231190135,45.6519541671952
274,1437231190826,39.7487673954671
275,1437231191565,48.5251951786993
276,1437231192273,46.0464617452942
277,1437231192940,47.4604505310292
278,1437231193689,38.7688877258617
279,1437231194411,44.6932665211642
280,1437231195180,43.3469202187988
281,1437231195906,44.2262926363772
282,1437231196627,39.7561623325739
283,1437231197347,40.9432325997717
284,1437231198100,40.4629747238871
285,1437231198823,46.9628076551189
286,1437231199570,37.1663956507805
287,1437231200267,44.6651793903166
288,1437231200920,44.2641837864163
289,1437231201656,44.7235440316426
290,1437231202343,41.0607965843733
291,1437231203066,44.7914621640891
292,1437231203800,47.8418498462968
293,1437231204525,47.7287320045252
294,1437231205196,32.1668520537755
295,1437231205938,42.9961020717339
296,1437231206683,44.5306937894374
297,1437231207440,39.1894677660085
298,1437231208186,43.823747412462
299,1437231208916,42.9062766192715
300,1437231209653,35.0774225176125
301,1437231210385,36.0574220838107
302,1437231211113,35.485995273258
303,1437231211864,38.3738552672134
304,1437231212605,37.2595516002179
305,1437231213325,36.4146687693018
306,1437231213986,34.7612819360691
307,1437231214736,32.5651060301986
308,1437231215475,25.2317674985357
309,1437231216189,22.304901260575
310,1437231216882,30.4501114107902
311,1437231217550,44.4840222427404
312,1437231218276,45.4446024435427
313,1437231219026,42.9412436485976
314,1437231219766,45.6283825186804
315,1437231220505,41.4512458030402
316,1437231221230,28.9877853799339
317,1437231221964,35.7973620607706
318,1437231222703,36.228734859896
319,1437231223401,39.9733534313667
320,1437231224031,36.5551132205028
321,1437231224715,39.2902600374813
322,1437231225435,43.5445228847611
323,1437231226163,44.6659929720066
324,1437231226865,43.3630335351341
325,1437231227531,50.3317151548405
326,1437231228238,48.0688690384456
327,1437231228971,51.6575285037032
328,1437231229688,47.9993233888798
329,1437231230430,51.2155636761033
330,1437231231120,42.7613181894323
331,1437231231846,50.5655343576132
332,1437231232571,47.4996870045791
333,1437231233297,46.9724219468934
334,1437231234026,46.7770839851676
335,1437231234712,41.3846129532512
336,1437231235406,40.4334856195775
337,1437231236146,41.4901536502868
338,1437231237344,32.1503681378908
339,1437231237927,38.5897751644939
340,1437231238587,50.4484601414603
341,1437231239320,39.1495811968506
342,1437231240012,56.5166792090698
343,1437231240737,50.320632932144
344,1437231241541,61.3611039058727
345,1437231242272,61.3510284202258
346,1437231243015,61.5049805358717
347,1437231243737,68.852613065711
348,1437231244487,57.9964952680604
349,1437231245048,57.1016164565745
350,1437231245698,54.9391833812496
351,1437231246427,52.5497861407162
352,1437231247141,49.81592047042
353,1437231247857,45.7488889639999
354,1437231248609,54.1894714658707
355,1437231249396,54.3007226468206
356,1437231250122,42.777595648271
357,1437231250844,71.7750977728285
358,1437231251572,73.1299130438908
359,1437231252290,47.8265732402043
360,1437231253013,66.1316165113735
361,1437231253745,68.1237260057091
362,1437231254573,45.3104452656988
363,1437231255296,48.1202001152986
364,1437231256031,35.9625698736995
365,1437231256765,49.0560314170173
366,1437231257472,45.4851512712575
367,1437231258128,48.3959564486843
368,1437231258905,56.2285148113555
369,1437231259666,46.7833827803397
370,1437231260397,62.7473674489861
371,1437231261140,37.995646068929
372,1437231261879,45.1625535018658
373,1437231262605,42.5092023585723
374,1437231263321,35.9037548538492
375,1437231264039,39.8671169608104
376,1437231264756,43.092905805039
377,1437231265377,50.8553415801418
378,1437231266111,67.5614540328757
379,1437231266837,71.1560771185941
380,1437231267573,66.2656288196012
381,1437231268239,50.5567338089476
382,1437231268976,40.3099952543835
383,1437231269714,61.6256173505866
384,1437231270453,41.4463652937872
385,1437231271202,46.3522503323441
386,1437231271926,51.4385434127043
387,1437231272651,46.5368992469372
388,1437231273375,45.2667248449188
389,1437231274095,46.1209818977087
390,1437231274826,45.1464656826056
391,1437231275646,47.5937866565477
392,1437231276343,43.9358454691081
393,1437231277020,48.5727729786749
394,1437231277737,48.3692904927561
395,1437231278414,61.9988905413836
396,1437231279086,44.0754380798708
397,1437231279819,47.5536095137274
398,1437231280537,69.585622344999
399,1437231281265,48.2297898392698
400,1437231282003,28.5601725768784
401,1437231282737,54.6559300497106
402,1437231283464,42.7279233356331
403,1437231284184,43.2075437057761
404,1437231285009,46.4092186590708
405,1437231285596,51.589089778458
406,1437231286246,63.3968164171582
407,1437231286977,50.2834995212743
408,1437231287720,63.7508949630087
409,1437231288415,44.3455117932024
410,1437231289075,49.6482123908855
411,1437231289767,49.8748776330093
412,1437231290509,55.1014460894849
413,1437231291240,59.1873914212233
414,1437231291976,54.4349442876313
415,1437231292717,53.2476028171849
416,1437231293455,45.3175390686404
417,1437231294184,37.5368941230837
418,1437231294921,38.7161003694031
419,1437231295657,44.7556373776024
420,1437231296396,47.6080840337656
421,1437231297056,43.8372474690013
422,1437231297777,58.3984690597381
423,1437231298527,45.8863736604506
424,1437231299259,39.6164235075145
425,1437231299942,49.73921971186
426,1437231300678,51.6911180645733
427,1437231301428,57.00621788102
428,1437231302163,40.7387123838083
429,1437231302879,42.8575358598361
430,1437231303624,45.5031401385262
431,1437231304362,42.4915365994273
432,1437231305096,59.4530918773802
433,1437231305718,46.1724774943233
434,1437231306379,39.7376429190197
435,1437231307056,49.323429780952
436,1437231307798,34.9489171170612
437,1437231308525,39.9703859549521
438,1437231309260,35.1558198241709
439,1437231309947,47.9807126379517
440,1437231310617,36.9007804847221
441,1437231311347,36.549742651068
442,1437231312085,47.9728252193645
443,1437231312816,38.1592289567634
444,1437231313547,35.2945210584366
445,1437231314316,37.0391494660268
446,1437231315055,51.1128615469018
447,1437231315751,59.1928003764904
448,1437231316432,44.6315484817337
449,1437231317130,39.7754428329082
450,1437231317814,38.6519225253244
451,1437231318553,37.5453443434641
452,1437231319292,47.4810993242029
453,1437231319982,43.7091879731124
454,1437231320641,45.7673421063245
455,1437231321375,40.9351520205659
456,1437231322101,33.557197266218
457,1437231322862,46.4224901852331
458,1437231323584,45.4231655580494
459,1437231324326,59.3360145916154
460,1437231325063,45.2133626348945
461,1437231325763,43.5313477699289
462,1437231326486,44.6524156029098
463,1437231327206,44.2753357315191
464,1437231327895,39.6012081841413
465,1437231328644,72.4691355194793
466,1437231329380,45.8177308359393
467,1437231330105,69.2630389222796
468,1437231330866,50.243461161277
469,1437231331613,43.6140013608581
470,1437231332355,51.7041168462463
471,1437231333092,69.522928373328
472,1437231333802,56.8030147966856
473,1437231335783,42.3968433665701
474,1437231336513,42.7296717236551
475,1437231337254,41.0759104071814
476,1437231337935,34.0019576910509
477,1437231338520,32.9552231162481
478,1437231339196,50.777843862679
479,1437231339910,54.1964747358972
480,1437231340743,35.1968848249258
481,1437231341491,24.351089699736
482,1437231342223,47.7252002130485
483,1437231342941,43.2702515060962
484,1437231343664,33.8357704907905
485,1437231344380,34.5115724749365
486,1437231345202,47.0142911255211
487,1437231345924,39.6978388129943
488,1437231346652,46.0086559415182
489,1437231347382,52.3338475349682
490,1437231348117,56.5048644421724
491,1437231348822,49.4388194840394
492,1437231349505,35.7298536622298
493,1437231350202,39.5960725493308
494,1437231350910,45.5449721818079
495,1437231351701,47.5763997998145
496,1437231352311,45.558298011574
497,1437231354105,44.9381664752395
498,1437231354874,37.951301052352
499,1437231355592,37.2563460806767
500,1437231356326,42.642047700532
501,1437231357097,47.559751887749
502,1437231357832,40.4441937884208
503,1437231358573,39.3003896099791
504,1437231359303,43.5080253332452
505,1437231359951,46.8002253744663
506,1437231360628,55.0887794653616
507,1437231361302,44.6777955469631
508,1437231362009,55.987499423087
509,1437231362688,52.4181829182141
510,1437231363425,46.3308483813993
511,1437231364183,42.2644003060272
512,1437231364904,51.9607550105267
513,1437231365697,60.0982197476285
514,1437231366362,44.0349808797239
515,1437231367072,46.3406953167585
516,1437231367797,43.9433054484758
517,1437231368538,39.8937976841309
518,1437231369332,57.4953002158916
519,1437231370074,40.2901704538812
520,1437231370713,30.4006004951821
521,1437231371443,32.6742725908729
522,1437231372175,41.8599326284833
523,1437231372874,54.2021394544084
524,1437231373589,40.0244914992509
525,1437231374380,53.8776173196521
526,1437231375124,72.4354285234349
527,1437231375861,74.3056500849391
528,1437231376573,41.0155157531695
529,1437231377305,43.4810373751558
530,1437231378036,40.3726197113707
531,1437231378773,34.6507156282772
532,1437231379493,30.9667593990577
533,1437231380238,39.039036883552
534,1437231380956,48.5682066856915
535,1437231381676,43.0791198889502
536,1437231382388,36.7659341587873
537,1437231383122,38.8173609979079
538,1437231385126,46.939527995132
539,1437231385854,61.7318537585258
540,1437231386585,40.4797785317959
541,1437231387310,43.2193497641474
542,1437231388064,57.6935354338057
543,1437231388804,47.0517785237599
544,1437231389550,44.9440106828596
545,1437231390273,26.5317756197885
546,1437231391000,40.4296072502413
547,1437231391726,45.5311894676744
548,1437231392465,43.0787586342741
549,1437231393177,35.3296982651811
550,1437231393902,33.6643709589611
551,1437231394700,42.9213918734132
552,1437231395416,47.2777249395092
553,1437231396151,41.8302557178438
554,1437231396845,35.1876005246764
555,1437231397535,50.715329327033
556,1437231398164,45.0681908023569
557,1437231398889,56.6021585964105
558,1437231399613,35.6479669307698
559,1437231400342,36.2796976909373
560,1437231402227,30.5911511857321
561,1437231402988,42.8794214390789
562,1437231403727,48.3525031018807
563,1437231404493,35.7129682007093
564,1437231405255,36.1750470078882
565,1437231405987,59.2393157895908
566,1437231406644,44.478611853436
567,1437231407377,30.3617379677
568,1437231408125,44.4186017222515
569,1437231408845,53.3219179216271
570,1437231409564,42.9521547817726
571,1437231410298,35.8501662238896
572,1437231411024,42.4746529832816
573,1437231411764,46.7009251217318
574,1437231412486,55.075059115997
575,1437231413130,44.4259514737036
576,1437231413843,36.6333982685954
