id,attr_time,attr_x,attr_y,attr_z
1,1438189988406,-8.338,-15.673,-73.692
2,1438189988422,-8.338,-15.673,-73.692
3,1438189988447,-8.689,-15.673,-73.692
4,1438189988464,-8.689,-15.673,-73.692
5,1438189988485,-8.689,-16.069,-73.692
6,1438189988505,-8.689,-16.069,-73.692
7,1438189988525,-8.689,-16.069,-73.692
8,1438189988545,-9.045,-16.069,-73.692
9,1438189988564,-9.045,-16.508,-74.0
10,1438189988584,-9.045,-16.508,-74.0
11,1438189988605,-9.432,-16.508,-74.0
12,1438189988625,-9.432,-16.946,-74.0
13,1438189988646,-9.783,-16.946,-74.0
14,1438189988662,-9.783,-17.274,-74.0
15,1438189988682,-10.093,-17.274,-74.0
16,1438189988706,-10.444,-17.619,-74.0
17,1438189988726,-10.444,-17.619,-74.0
18,1438189988746,-10.876,-17.939,-74.0
19,1438189988765,-10.876,-17.939,-74.0
20,1438189988784,-10.876,-17.939,-74.0
21,1438189988804,-11.213,-18.353,-74.0
22,1438189988824,-11.213,-18.353,-74.0
23,1438189988847,-11.213,-18.353,-74.0
24,1438189988867,-11.213,-18.666,-74.0
25,1438189988888,-11.613,-18.666,-74.0
26,1438189988905,-11.613,-18.666,-74.0
27,1438189988925,-11.613,-18.666,-73.652
28,1438189988983,-11.613,-18.666,-73.652
29,1438189988996,-11.613,-18.666,-73.652
30,1438189988997,-11.613,-18.666,-73.652
31,1438189989006,-11.613,-18.666,-73.652
32,1438189989025,-11.613,-18.666,-73.652
33,1438189989046,-11.613,-18.666,-73.652
34,1438189989062,-11.613,-18.666,-73.652
35,1438189989083,-11.613,-18.666,-73.652
36,1438189989102,-11.613,-18.263,-73.652
37,1438189989126,-11.613,-18.263,-73.652
38,1438189989149,-11.613,-17.797,-73.652
39,1438189989166,-11.613,-16.934,-73.652
40,1438189989183,-11.613,-16.433,-73.652
41,1438189989205,-11.238,-16.059,-73.652
42,1438189989225,-11.238,-15.586,-73.652
43,1438189989246,-11.238,-15.586,-73.652
44,1438189989266,-11.238,-15.118,-73.652
45,1438189989286,-11.238,-14.744,-73.652
46,1438189989306,-10.937,-15.141,-73.652
47,1438189989325,-10.937,-15.475,-73.96
48,1438189989346,-10.937,-15.475,-73.96
49,1438189989366,-10.572,-15.475,-73.96
50,1438189989386,-10.572,-15.475,-73.96
51,1438189989406,-10.572,-15.475,-73.96
52,1438189989426,-10.572,-15.09,-73.96
53,1438189989444,-10.186,-15.09,-73.96
54,1438189989463,-10.186,-15.09,-73.96
55,1438189989484,-10.186,-15.09,-73.96
56,1438189989503,-9.704,-15.09,-73.96
57,1438189989528,-9.704,-15.09,-73.96
58,1438189989549,-9.704,-15.09,-73.96
59,1438189989566,-9.265,-15.09,-73.96
60,1438189989584,-9.265,-15.09,-73.96
61,1438189989605,-8.964,-15.09,-73.96
62,1438189989624,-8.964,-15.09,-73.96
63,1438189989646,-8.964,-15.09,-73.96
64,1438189989666,-8.512,-15.09,-73.96
65,1438189989725,-8.512,-15.09,-73.634
66,1438189989736,-8.512,-15.09,-73.634
67,1438189989737,-8.512,-15.415,-73.634
68,1438189989746,-8.181,-15.415,-73.634
69,1438189989767,-8.181,-15.415,-73.634
70,1438189989787,-8.181,-15.415,-73.634
71,1438189989803,-8.181,-15.415,-73.634
72,1438189989823,-8.181,-15.415,-73.634
73,1438189989845,-8.181,-15.415,-73.634
74,1438189989865,-8.181,-15.415,-73.634
75,1438189989884,-8.181,-15.415,-73.634
76,1438189989904,-8.181,-15.415,-73.634
77,1438189989928,-8.181,-15.415,-73.634
78,1438189989947,-8.181,-15.415,-73.634
79,1438189989966,-8.181,-15.415,-73.634
80,1438189989986,-8.181,-15.415,-73.634
81,1438189990007,-8.181,-15.415,-73.634
82,1438189990029,-8.181,-15.415,-73.634
83,1438189990046,-8.181,-15.415,-73.634
84,1438189990067,-8.181,-15.415,-73.634
85,1438189990087,-8.181,-15.415,-73.634
86,1438189990107,-8.181,-15.415,-73.634
87,1438189990124,-8.181,-15.415,-73.634
88,1438189990146,-8.181,-15.081,-73.634
89,1438189990167,-8.181,-15.081,-73.634
90,1438189990186,-8.181,-15.081,-73.634
91,1438189990206,-8.181,-15.081,-73.634
92,1438189990224,-7.862,-15.081,-73.634
93,1438189990248,-7.862,-15.081,-73.634
94,1438189990267,-7.862,-15.081,-73.634
95,1438189990286,-7.862,-15.081,-73.634
96,1438189990307,-7.862,-15.081,-73.634
97,1438189990325,-7.862,-15.081,-73.634
98,1438189990345,-7.862,-15.081,-73.634
99,1438189990366,-7.543,-15.081,-73.634
100,1438189990393,-7.543,-15.081,-73.634
101,1438189990450,-7.543,-15.081,-73.634
102,1438189990462,-7.543,-15.081,-73.634
103,1438189990465,-7.543,-15.081,-73.634
104,1438189990466,-7.543,-15.081,-73.634
105,1438189990485,-7.543,-15.081,-73.634
106,1438189990505,-7.543,-15.081,-73.634
107,1438189990524,-7.876,-15.081,-73.634
108,1438189990544,-7.876,-15.081,-73.634
109,1438189990565,-7.876,-15.081,-73.634
110,1438189990586,-7.876,-15.081,-73.634
111,1438189990605,-7.876,-15.081,-73.634
112,1438189990626,-7.876,-15.081,-73.634
113,1438189990647,-7.876,-15.081,-73.634
114,1438189990666,-7.876,-15.081,-73.634
115,1438189990687,-7.876,-15.081,-73.634
116,1438189990707,-7.876,-15.081,-73.634
117,1438189990727,-7.876,-15.081,-73.634
118,1438189990747,-7.876,-15.081,-73.634
119,1438189990767,-7.876,-15.081,-73.634
120,1438189990787,-8.186,-15.081,-73.634
121,1438189990807,-8.186,-15.081,-73.634
122,1438189990827,-8.186,-15.081,-73.634
123,1438189990845,-8.186,-15.081,-73.634
124,1438189990867,-8.186,-15.081,-73.634
125,1438189990887,-8.186,-15.081,-73.634
126,1438189990905,-8.186,-15.081,-73.634
127,1438189990926,-8.186,-15.081,-73.634
128,1438189990946,-8.186,-15.081,-73.634
129,1438189990970,-8.186,-15.081,-73.634
130,1438189990989,-8.186,-15.081,-73.634
131,1438189991009,-8.186,-15.081,-73.634
132,1438189991028,-7.876,-15.081,-73.634
133,1438189991047,-7.876,-15.081,-73.634
134,1438189991066,-7.876,-15.081,-73.634
135,1438189991087,-7.876,-15.081,-73.634
136,1438189991106,-7.876,-15.081,-73.634
137,1438189991126,-7.876,-15.081,-73.634
138,1438189991218,-7.876,-15.081,-73.634
139,1438189991232,-8.206,-15.081,-73.634
140,1438189991233,-8.206,-15.081,-73.634
141,1438189991234,-8.206,-15.081,-73.634
142,1438189991235,-8.206,-15.081,-73.634
143,1438189991252,-8.206,-14.749,-73.634
144,1438189991265,-8.206,-14.749,-73.634
145,1438189991286,-8.206,-14.749,-73.634
146,1438189991306,-8.206,-14.749,-73.634
147,1438189991327,-7.902,-14.749,-73.634
148,1438189991346,-7.902,-14.749,-73.634
149,1438189991365,-7.902,-14.749,-73.634
150,1438189991393,-7.508,-14.416,-73.945
151,1438189991418,-6.935,-14.416,-73.945
152,1438189991453,-6.393,-14.416,-73.945
153,1438189991455,-6.005,-13.99,-73.945
154,1438189991465,-5.404,-13.99,-73.945
155,1438189991486,-5.404,-13.99,-74.276
156,1438189991507,-5.101,-13.598,-74.276
157,1438189991528,-4.376,-13.598,-74.276
158,1438189991548,-4.376,-12.193,-74.627
159,1438189991569,-4.376,-11.534,-74.627
160,1438189991588,-3.73,-11.146,-74.984
161,1438189991608,-3.73,-10.543,-74.984
162,1438189991628,-3.73,-10.543,-75.587
163,1438189991649,-3.73,-10.543,-75.587
164,1438189991669,-4.121,-11.022,-75.587
165,1438189991685,-4.121,-11.022,-75.906
166,1438189991708,-4.121,-11.022,-75.906
167,1438189991728,-4.121,-11.343,-75.906
168,1438189991749,-4.121,-11.343,-76.229
169,1438189991768,-4.121,-11.343,-76.229
170,1438189991788,-4.83,-11.834,-76.229
171,1438189991808,-5.413,-12.263,-76.597
172,1438189991828,-5.413,-12.968,-76.597
173,1438189991847,-6.451,-13.4,-76.597
174,1438189991869,-6.878,-13.746,-76.597
175,1438189991889,-6.878,-13.746,-76.921
176,1438189991909,-6.878,-14.071,-76.921
177,1438189991928,-6.878,-13.084,-76.921
178,1438189991953,-6.402,-12.522,-76.921
179,1438189992006,-6.402,-12.522,-76.921
180,1438189992007,-6.402,-11.685,-77.259
181,1438189992008,-5.657,-11.184,-77.259
182,1438189992025,-5.657,-10.548,-77.259
183,1438189992046,-5.657,-10.182,-77.259
184,1438189992067,-5.657,-9.62,-77.259
185,1438189992086,-6.011,-9.169,-77.601
186,1438189992106,-6.011,-9.169,-77.601
187,1438189992128,-6.011,-10.229,-77.601
188,1438189992146,-5.648,-10.229,-77.928
189,1438189992168,-5.648,-10.691,-77.928
190,1438189992199,-5.648,-11.222,-77.928
191,1438189992209,-6.137,-12.039,-78.266
192,1438189992225,-6.137,-12.387,-78.266
193,1438189992247,-6.137,-12.908,-78.266
194,1438189992268,-6.547,-12.908,-78.266
195,1438189992292,-6.182,-13.644,-78.605
196,1438189992306,-6.182,-13.644,-78.605
197,1438189992329,-6.182,-14.064,-78.605
198,1438189992349,-6.182,-14.064,-78.605
199,1438189992367,-6.182,-14.064,-78.941
200,1438189992389,-6.182,-14.064,-78.941
201,1438189992409,-6.182,-13.734,-78.941
202,1438189992427,-6.182,-13.351,-78.941
203,1438189992449,-6.182,-12.834,-78.941
204,1438189992466,-6.182,-12.834,-78.941
205,1438189992494,-6.182,-12.039,-78.941
206,1438189992506,-5.754,-11.405,-78.941
207,1438189992526,-5.123,-10.981,-79.267
208,1438189992548,-4.585,-10.981,-79.267
209,1438189992569,-4.585,-10.603,-79.267
210,1438189992588,-4.891,-9.841,-79.267
211,1438189992610,-4.891,-10.311,-79.267
212,1438189992629,-5.236,-10.311,-79.267
213,1438189992647,-5.236,-10.311,-79.615
214,1438189992667,-5.236,-10.867,-79.615
215,1438189992696,-6.039,-11.541,-79.615
216,1438189992762,-6.394,-12.023,-79.615
217,1438189992766,-6.742,-12.39,-79.615
218,1438189992767,-7.261,-12.704,-79.615
219,1438189992768,-7.585,-12.704,-79.615
220,1438189992788,-6.93,-13.476,-79.615
221,1438189992808,-7.327,-13.476,-79.615
222,1438189992826,-7.327,-13.899,-79.615
223,1438189992847,-6.954,-13.899,-79.615
224,1438189992868,-7.357,-14.3,-79.615
225,1438189992887,-7.357,-13.572,-79.615
226,1438189992907,-7.357,-13.572,-79.615
227,1438189992927,-6.852,-12.893,-79.615
228,1438189992950,-6.852,-12.893,-79.615
229,1438189992970,-6.852,-12.449,-79.615
230,1438189992988,-6.852,-12.052,-79.615
231,1438189993010,-6.852,-12.052,-79.615
232,1438189993029,-5.812,-11.204,-79.615
233,1438189993048,-4.893,-10.43,-79.615
234,1438189993070,-4.28,-9.904,-79.615
235,1438189993087,-3.692,-9.904,-79.615
236,1438189993110,-3.692,-9.904,-79.615
237,1438189993130,-3.692,-10.325,-79.615
238,1438189993152,-3.692,-10.325,-79.615
239,1438189993167,-4.858,-10.021,-79.615
240,1438189993186,-4.858,-10.926,-79.615
241,1438189993208,-5.616,-11.509,-79.615
242,1438189993230,-6.097,-11.964,-79.615
243,1438189993249,-6.825,-12.568,-79.615
244,1438189993269,-6.825,-12.951,-79.615
245,1438189993291,-7.664,-12.951,-79.615
246,1438189993310,-7.664,-13.293,-79.615
247,1438189993330,-8.071,-13.868,-79.615
248,1438189993350,-8.071,-13.868,-79.615
249,1438189993367,-8.071,-14.665,-79.615
250,1438189993388,-7.524,-14.665,-79.615
251,1438189993415,-7.524,-14.665,-79.24
252,1438189993427,-6.855,-13.896,-79.24
253,1438189993475,-6.489,-13.896,-79.24
254,1438189993476,-6.489,-13.172,-79.24
255,1438189993495,-5.513,-12.403,-79.24
256,1438189993507,-4.621,-11.54,-78.861
257,1438189993534,-4.118,-10.871,-78.861
258,1438189993548,-3.581,-10.191,-78.861
259,1438189993569,-3.581,-10.191,-78.861
260,1438189993589,-3.581,-10.501,-78.861
261,1438189993607,-3.581,-10.501,-78.861
262,1438189993628,-3.581,-10.501,-78.861
263,1438189993647,-3.581,-10.501,-78.861
264,1438189993670,-3.944,-10.501,-78.861
265,1438189993688,-4.27,-11.543,-78.861
266,1438189993709,-5.087,-12.011,-78.861
267,1438189993730,-5.625,-12.82,-78.861
268,1438189993750,-6.372,-13.681,-78.511
269,1438189993795,-6.713,-14.23,-78.511
270,1438189993796,-7.312,-14.678,-78.511
271,1438189993809,-7.635,-15.061,-78.511
272,1438189993830,-8.125,-15.061,-78.511
273,1438189993850,-8.125,-15.73,-78.176
274,1438189993870,-8.125,-15.73,-78.176
275,1438189993888,-8.125,-15.73,-78.176
276,1438189993908,-8.125,-15.73,-78.176
277,1438189993928,-8.125,-15.254,-77.806
278,1438189993948,-7.466,-14.837,-77.806
279,1438189993968,-7.466,-14.071,-77.806
280,1438189993991,-6.871,-13.644,-77.806
281,1438189994011,-6.434,-12.968,-77.421
282,1438189994032,-5.668,-12.329,-77.421
283,1438189994053,-4.924,-11.332,-77.421
284,1438189994068,-4.191,-10.261,-77.421
285,1438189994269,-3.469,-9.466,-77.421
286,1438189994270,-3.169,-8.76,-77.421
287,1438189994271,-3.169,-8.76,-77.421
288,1438189994272,-3.169,-8.76,-77.421
289,1438189994273,-3.169,-9.658,-77.421
290,1438189994274,-3.736,-10.081,-77.421
291,1438189994275,-3.736,-10.482,-77.754
292,1438189994276,-4.037,-11.164,-77.754
293,1438189994277,-4.907,-12.023,-77.754
294,1438189994278,-4.907,-12.73,-77.754
295,1438189994302,-5.577,-13.639,-77.754
296,1438189994325,-5.577,-13.639,-77.754
297,1438189994327,-5.577,-13.639,-77.754
298,1438189994348,-5.577,-14.112,-77.754
299,1438189994368,-5.577,-14.112,-77.754
300,1438189994390,-5.577,-14.112,-77.754
301,1438189994439,-5.577,-14.112,-77.754
302,1438189994440,-5.577,-14.112,-77.754
303,1438189994459,-5.577,-14.112,-77.754
304,1438189994475,-5.018,-12.829,-77.754
305,1438189994488,-5.018,-12.829,-77.754
306,1438189994509,-5.018,-12.423,-77.754
307,1438189994528,-5.018,-11.889,-77.754
308,1438189994548,-4.626,-11.271,-77.398
309,1438189994573,-4.626,-10.876,-77.398
310,1438189994592,-4.022,-10.876,-77.398
311,1438189994611,-4.022,-10.272,-77.398
312,1438189994628,-4.022,-10.272,-77.398
313,1438189994648,-4.022,-10.272,-77.398
314,1438189994668,-4.022,-10.272,-77.398
315,1438189994688,-4.328,-10.691,-77.398
316,1438189994708,-4.328,-10.691,-77.398
317,1438189994728,-4.689,-10.691,-77.398
318,1438189994748,-5.061,-11.34,-77.398
319,1438189994768,-5.061,-11.898,-77.398
320,1438189994787,-5.59,-11.898,-77.398
321,1438189994807,-6.408,-12.254,-77.398
322,1438189994828,-6.976,-12.254,-77.398
323,1438189994847,-7.604,-12.254,-77.398
324,1438189994867,-7.986,-12.719,-77.734
325,1438189994887,-8.355,-12.719,-77.734
326,1438189994907,-8.355,-13.572,-77.734
327,1438189994927,-8.355,-14.108,-77.734
328,1438189994947,-8.355,-14.459,-77.734
329,1438189994967,-8.355,-14.122,-77.734
330,1438189994987,-7.298,-14.122,-77.734
331,1438189995007,-7.298,-14.122,-77.734
332,1438189995027,-7.298,-13.368,-77.734
333,1438189995047,-6.509,-13.368,-77.734
334,1438189995067,-6.091,-12.617,-77.734
335,1438189995087,-5.63,-12.245,-77.734
336,1438189995107,-4.754,-11.578,-77.426
337,1438189995127,-4.199,-11.036,-77.426
338,1438189995147,-3.698,-10.226,-77.426
339,1438189995169,-3.698,-10.226,-77.426
340,1438189995189,-3.033,-9.809,-77.426
341,1438189995209,-3.762,-9.809,-77.426
342,1438189995229,-3.762,-10.379,-77.426
343,1438189995249,-3.762,-10.803,-77.81
344,1438189995268,-4.489,-11.18,-77.81
345,1438189995289,-4.489,-11.679,-77.81
346,1438189995310,-5.131,-12.638,-77.81
347,1438189995332,-6.031,-12.98,-77.81
348,1438189995348,-6.031,-13.551,-77.81
349,1438189995370,-6.483,-13.908,-77.81
350,1438189995389,-6.483,-13.908,-77.81
351,1438189995409,-6.796,-14.257,-78.117
352,1438189995429,-6.796,-14.257,-78.117
353,1438189995448,-6.796,-14.257,-78.117
354,1438189995469,-7.501,-14.257,-78.117
355,1438189995490,-7.501,-14.257,-78.117
356,1438189995524,-7.501,-14.257,-78.117
357,1438189995536,-6.925,-13.398,-78.117
358,1438189995557,-6.925,-13.398,-78.117
359,1438189995568,-6.607,-12.768,-78.117
360,1438189995590,-6.243,-12.768,-78.117
361,1438189995609,-5.628,-12.286,-78.117
362,1438189995629,-5.628,-11.862,-78.117
363,1438189995650,-5.027,-11.045,-78.117
364,1438189995669,-4.029,-10.386,-78.117
365,1438189995689,-3.514,-10.058,-78.454
366,1438189995710,-3.016,-9.725,-78.454
367,1438189995729,-3.016,-9.725,-78.454
368,1438189995749,-3.836,-9.147,-78.454
369,1438189995770,-3.836,-9.147,-78.828
370,1438189995789,-4.226,-9.922,-78.828
371,1438189995810,-4.597,-9.922,-78.828
372,1438189995831,-4.954,-10.89,-78.828
373,1438189995851,-5.316,-11.557,-79.171
374,1438189995876,-6.095,-12.12,-79.171
375,1438189995892,-6.417,-12.12,-79.171
376,1438189995912,-6.417,-12.44,-79.171
377,1438189995932,-6.8,-12.44,-79.171
378,1438189995953,-6.8,-12.44,-79.171
379,1438189995970,-7.173,-12.44,-79.171
380,1438189995991,-7.173,-12.44,-79.171
381,1438189996011,-7.502,-12.44,-79.171
382,1438189996031,-7.502,-12.771,-79.171
383,1438189996054,-7.502,-12.326,-79.171
384,1438189996070,-6.835,-12.005,-79.171
385,1438189996091,-6.835,-11.668,-79.171
386,1438189996111,-6.384,-11.668,-79.171
387,1438189996130,-5.899,-11.061,-79.171
388,1438189996290,-5.024,-11.061,-78.849
389,1438189996291,-4.432,-10.581,-78.849
390,1438189996292,-3.535,-9.799,-78.849
391,1438189996293,-3.19,-9.368,-78.849
392,1438189996294,-3.19,-9.368,-78.849
393,1438189996295,-3.19,-9.368,-78.849
394,1438189996296,-3.19,-9.368,-78.849
395,1438189996297,-3.19,-9.715,-78.849
396,1438189996451,-3.19,-9.715,-78.849
397,1438189996452,-3.19,-9.715,-78.849
398,1438189996453,-3.19,-10.084,-78.849
399,1438189996454,-3.19,-10.42,-78.849
400,1438189996455,-3.704,-10.42,-78.849
401,1438189996456,-4.388,-11.051,-78.849
402,1438189996457,-4.388,-11.645,-78.849
403,1438189996458,-4.981,-12.014,-78.849
404,1438189996493,-4.981,-12.629,-78.849
405,1438189996494,-4.981,-13.23,-78.849
406,1438189996510,-5.482,-13.23,-78.849
407,1438189996531,-5.879,-13.865,-78.849
408,1438189996554,-5.879,-13.865,-78.849
409,1438189996571,-6.318,-14.552,-78.849
410,1438189996592,-6.318,-13.958,-78.849
411,1438189996610,-5.744,-13.958,-78.849
412,1438189996630,-5.744,-13.958,-78.849
413,1438189996653,-5.744,-13.461,-78.849
414,1438189996670,-5.43,-12.986,-78.849
415,1438189996693,-5.43,-12.423,-78.849
416,1438189996710,-5.11,-11.691,-78.849
417,1438189996731,-5.11,-11.337,-78.849
418,1438189996753,-5.11,-10.963,-78.849
419,1438189996770,-5.435,-10.963,-78.849
420,1438189996792,-5.435,-10.963,-78.849
421,1438189996811,-5.435,-10.963,-78.849
422,1438189996832,-5.435,-10.963,-78.849
423,1438189996853,-5.435,-11.291,-78.849
424,1438189996871,-5.435,-11.593,-78.849
425,1438189996891,-5.435,-12.475,-78.849
426,1438189996910,-5.435,-13.203,-78.849
427,1438189996930,-5.435,-14.027,-78.849
428,1438189996950,-6.175,-14.663,-78.849
429,1438189996970,-7.044,-15.208,-78.849
430,1438189996992,-7.971,-15.621,-78.849
431,1438189997013,-7.971,-15.621,-78.849
432,1438189997031,-8.515,-16.226,-78.849
433,1438189997059,-9.165,-16.226,-78.849
434,1438189997117,-9.516,-16.226,-78.849
435,1438189997118,-9.516,-16.226,-78.849
436,1438189997119,-9.516,-16.226,-78.849
437,1438189997136,-9.028,-15.582,-78.536
438,1438189997151,-8.494,-15.17,-78.536
439,1438189997170,-8.494,-15.17,-78.536
440,1438189997194,-7.783,-14.816,-78.536
441,1438189997214,-6.947,-14.102,-78.14
442,1438189997256,-6.285,-13.267,-78.14
443,1438189997257,-4.833,-12.669,-78.14
444,1438189997280,-3.764,-11.349,-78.14
445,1438189997291,-2.693,-10.208,-78.14
446,1438189997318,-2.693,-9.857,-78.14
447,1438189997331,-2.693,-9.857,-78.14
448,1438189997350,-3.074,-10.574,-78.14
449,1438189997374,-3.457,-10.574,-78.14
450,1438189997393,-3.457,-11.259,-78.14
451,1438189997413,-3.942,-11.259,-78.14
452,1438189997433,-4.55,-12.002,-78.14
453,1438189997453,-5.149,-12.734,-78.14
454,1438189997473,-6.143,-13.441,-78.14
455,1438189997493,-6.898,-13.954,-78.14
456,1438189997515,-6.898,-14.476,-78.14
457,1438189997533,-7.814,-14.938,-78.14
458,1438189997558,-7.814,-14.938,-78.14
459,1438189997575,-7.814,-14.938,-78.14
460,1438189997593,-8.261,-15.333,-78.14
461,1438189997611,-8.261,-15.333,-78.14
462,1438189997632,-8.261,-15.333,-78.14
463,1438189997653,-8.714,-15.333,-78.14
464,1438189997671,-8.152,-14.703,-78.14
465,1438189997691,-7.649,-14.318,-78.14
466,1438189997711,-7.649,-14.318,-78.14
467,1438189997737,-7.015,-13.937,-78.14
468,1438189997751,-6.648,-13.937,-78.14
469,1438189997771,-6.08,-12.982,-78.14
470,1438189997793,-6.08,-12.582,-78.14
471,1438189997811,-5.638,-12.022,-78.14
472,1438189997831,-5.638,-11.578,-78.14
473,1438189997851,-5.279,-11.578,-78.14
474,1438189997871,-5.279,-11.578,-78.14
475,1438189997891,-5.615,-11.578,-78.506
476,1438189997911,-5.615,-12.026,-78.506
477,1438189997931,-5.615,-12.495,-78.506
478,1438189997951,-6.004,-12.495,-78.868
479,1438189997971,-6.004,-12.911,-78.868
480,1438189997991,-6.677,-13.429,-78.868
481,1438189998011,-6.982,-13.958,-78.868
482,1438189998032,-7.348,-14.907,-78.868
483,1438189998052,-8.198,-15.699,-78.868
484,1438189998071,-8.853,-16.458,-78.868
485,1438189998094,-9.239,-16.905,-78.868
486,1438189998115,-9.631,-17.372,-78.868
487,1438189998133,-9.631,-17.372,-78.868
488,1438189998153,-9.631,-17.372,-78.868
489,1438189998175,-9.631,-17.372,-78.868
490,1438189998194,-9.631,-17.372,-78.868
491,1438189998214,-9.631,-17.372,-78.546
492,1438189998233,-8.973,-16.336,-78.546
493,1438189998254,-8.973,-15.782,-78.546
