id,attr_time,attr_x,attr_y,attr_z
1,1438189988412,45.6726,-4.37012,4.58527
2,1438189988431,44.6213,-1.90887,8.284
3,1438189988451,44.6213,-1.90887,8.284
4,1438189988472,46.0236,-4.7226,5.25818
5,1438189988491,45.3217,-1.20697,5.25818
6,1438189988511,45.3217,-1.20697,5.25818
7,1438189988530,44.9722,-4.01917,5.25818
8,1438189988550,45.1477,-2.78778,7.44324
9,1438189988570,45.1477,-2.78778,7.44324
10,1438189988589,45.1477,-4.89807,5.08881
11,1438189988610,44.9722,-2.6123,7.27539
12,1438189988629,44.9722,-2.6123,7.27539
13,1438189988650,45.4971,-3.49121,5.76172
14,1438189988668,46.0236,-2.96478,6.9397
15,1438189988689,46.0236,-2.96478,6.9397
16,1438189988708,45.1477,-4.54559,5.42603
17,1438189988728,45.1477,-1.38245,6.43463
18,1438189988749,45.1477,-1.38245,6.43463
19,1438189988768,46.199,-3.49121,6.09894
20,1438189988787,44.7968,-2.43683,5.76172
21,1438189988808,44.7968,-2.43683,5.76172
22,1438189988827,44.9722,-4.37012,6.60248
23,1438189988849,44.0964,-2.08588,5.76172
24,1438189988867,44.0964,-2.08588,5.76172
25,1438189988886,45.1477,-3.49121,5.76172
26,1438189988906,45.1477,-3.49121,6.09894
27,1438189988926,45.1477,-3.49121,6.09894
28,1438189988948,43.9209,-3.66669,6.9397
29,1438189988965,45.4971,-2.43683,6.43463
30,1438189988985,45.4971,-2.43683,6.43463
31,1438189989005,45.6726,-4.01917,6.9397
32,1438189989024,46.0236,-3.31573,7.27539
33,1438189989047,46.0236,-3.31573,7.27539
34,1438189989064,45.1477,-3.84369,7.10754
35,1438189989084,45.8481,-3.84369,6.43463
36,1438189989104,45.8481,-3.84369,6.43463
37,1438189989124,44.9722,-5.07355,6.60248
38,1438189989144,43.5699,-2.26135,6.60248
39,1438189989163,43.5699,-2.26135,6.60248
40,1438189989183,45.1477,-3.49121,5.76172
41,1438189989203,46.7239,-2.26135,5.92957
42,1438189989222,46.7239,-2.26135,5.92957
43,1438189989241,45.8481,-3.49121,4.75311
44,1438189989262,45.6726,-3.66669,6.26678
45,1438189989282,45.6726,-3.66669,6.26678
46,1438189989302,46.373,-2.96478,5.92957
47,1438189989321,44.9722,-2.6123,5.92957
48,1438189989340,44.9722,-2.6123,5.92957
49,1438189989361,45.1477,-3.49121,7.44324
50,1438189989380,45.4971,-2.78778,7.44324
51,1438189989401,45.4971,-2.78778,7.44324
52,1438189989420,47.4243,-4.01917,6.26678
53,1438189989440,44.9722,-3.31573,7.61261
54,1438189989460,44.9722,-3.31573,7.61261
55,1438189989479,46.0236,-4.37012,6.26678
56,1438189989500,45.8481,-2.78778,7.10754
57,1438189989518,45.8481,-2.78778,7.10754
58,1438189989539,45.6726,-2.96478,8.62122
59,1438189989558,44.7968,-2.08588,6.77185
60,1438189989578,44.7968,-2.08588,6.77185
61,1438189989598,45.6726,-4.7226,7.27539
62,1438189989618,45.3217,-3.66669,7.61261
63,1438189989638,45.3217,-3.66669,7.61261
64,1438189989656,44.4458,-3.84369,5.76172
65,1438189989677,45.6726,-3.31573,6.9397
66,1438189989696,45.6726,-3.31573,6.9397
67,1438189989717,46.199,-3.84369,8.11615
68,1438189989737,44.7968,-2.43683,7.10754
69,1438189989756,44.7968,-2.43683,7.10754
70,1438189989778,44.9722,-2.96478,6.9397
71,1438189989796,43.7454,-4.54559,7.10754
72,1438189989815,43.7454,-4.54559,7.10754
73,1438189989834,45.3217,-4.01917,6.60248
74,1438189989855,44.7968,-3.49121,5.76172
75,1438189989876,44.7968,-3.49121,5.76172
76,1438189989895,45.8481,-4.19464,6.09894
77,1438189989914,45.4971,-2.78778,6.09894
78,1438189989934,45.4971,-2.78778,6.09894
79,1438189989954,46.199,-3.14026,7.10754
80,1438189989973,44.7968,-2.43683,7.44324
81,1438189989993,44.7968,-2.43683,7.44324
82,1438189990013,44.4458,-3.84369,6.43463
83,1438189990033,46.373,-2.26135,6.9397
84,1438189990053,46.373,-2.26135,6.9397
85,1438189990075,44.7968,-2.78778,7.10754
86,1438189990092,44.0964,-2.43683,8.11615
87,1438189990112,44.0964,-2.43683,8.11615
88,1438189990132,45.8481,-2.78778,6.43463
89,1438189990150,45.4971,-2.78778,6.77185
90,1438189990172,45.4971,-2.78778,6.77185
91,1438189990190,46.0236,-3.31573,5.25818
92,1438189990211,47.0749,-3.31573,6.9397
93,1438189990231,47.0749,-3.31573,6.9397
94,1438189990250,45.4971,-4.19464,6.43463
95,1438189990272,44.9722,-2.6123,5.92957
96,1438189990290,44.9722,-2.6123,5.92957
97,1438189990310,44.9722,-3.31573,5.92957
98,1438189990330,45.6726,-3.66669,6.26678
99,1438189990349,45.6726,-3.66669,6.26678
100,1438189990370,46.199,-3.49121,6.77185
101,1438189990389,44.2719,-3.31573,7.61261
102,1438189990408,44.2719,-3.31573,7.61261
103,1438189990429,45.4971,-3.49121,5.76172
104,1438189990448,45.6726,-3.66669,6.9397
105,1438189990467,45.6726,-3.66669,6.9397
106,1438189990488,45.1477,-4.89807,6.43463
107,1438189990506,47.0749,-2.26135,6.60248
108,1438189990528,47.0749,-2.26135,6.60248
109,1438189990547,46.199,-3.84369,6.77185
110,1438189990567,45.3217,-3.31573,7.27539
111,1438189990586,45.3217,-3.31573,7.27539
112,1438189990606,45.4971,-4.54559,5.42603
113,1438189990626,45.8481,-1.38245,6.77185
114,1438189990646,45.8481,-1.38245,6.77185
115,1438189990666,45.4971,-4.54559,6.43463
116,1438189990684,45.6726,-2.96478,6.26678
117,1438189990705,45.6726,-2.96478,6.26678
118,1438189990725,44.7968,-2.43683,5.08881
119,1438189990744,47.4243,-1.90887,6.26678
120,1438189990765,47.4243,-1.90887,6.26678
121,1438189990782,44.7968,-4.89807,5.08881
122,1438189990806,46.199,-2.43683,6.77185
123,1438189990822,46.199,-2.43683,6.77185
124,1438189990843,44.2719,-2.26135,6.60248
125,1438189990864,44.6213,-3.66669,6.9397
126,1438189990883,44.6213,-3.66669,6.9397
127,1438189990903,44.6213,-5.07355,6.60248
128,1438189990922,45.6726,-4.7226,7.61261
129,1438189990942,45.6726,-4.7226,7.61261
130,1438189990962,46.0236,-4.7226,6.26678
131,1438189990982,44.4458,-2.08588,8.78906
132,1438189991003,44.4458,-2.08588,8.78906
133,1438189991021,44.7968,-7.00684,6.77185
134,1438189991041,45.1477,-5.95245,6.43463
135,1438189991061,45.1477,-5.95245,6.43463
136,1438189991081,45.1477,-5.95245,4.0802
137,1438189991101,44.7968,-5.24902,6.77185
138,1438189991120,44.7968,-5.24902,6.77185
139,1438189991139,43.9209,-6.48041,6.60248
140,1438189991160,44.2719,-6.48041,6.60248
141,1438189991179,44.2719,-6.48041,6.60248
142,1438189991202,45.1477,-7.35931,6.09894
143,1438189991219,44.2719,-8.58917,5.92957
144,1438189991238,44.2719,-8.58917,5.92957
145,1438189991259,44.0964,-9.46808,5.08881
146,1438189991277,44.0964,-8.4137,7.78046
147,1438189991301,44.0964,-8.4137,7.78046
148,1438189991317,41.8182,-9.99603,5.25818
149,1438189991337,44.9722,-9.2926,8.284
150,1438189991358,44.9722,-9.2926,8.284
151,1438189991377,43.3945,-10.5225,6.77185
152,1438189991399,44.4458,-11.2259,6.77185
153,1438189991416,44.4458,-11.2259,6.77185
154,1438189991436,43.3945,-10.8749,6.77185
155,1438189991456,43.2205,-9.64355,6.60248
156,1438189991476,43.2205,-9.64355,6.60248
157,1438189991498,43.7454,-10.1715,5.42603
158,1438189991515,44.6213,-11.7538,2.23083
159,1438189991535,44.6213,-11.7538,2.23083
160,1438189991555,44.4458,-12.2803,2.7359
161,1438189991574,43.3945,-8.76465,0.717163
162,1438189991593,43.3945,-8.76465,0.717163
163,1438189991614,44.7968,-9.11713,1.72577
164,1438189991633,44.2719,-7.18231,1.55792
165,1438189991654,44.2719,-7.18231,1.55792
166,1438189991673,44.0964,-8.76465,1.05286
167,1438189991694,44.6213,-8.94012,1.55792
168,1438189991713,44.6213,-8.94012,1.55792
169,1438189991733,44.0964,-9.81903,1.05286
170,1438189991752,44.7968,-9.46808,3.74451
171,1438189991773,44.7968,-9.46808,3.74451
172,1438189991793,43.5699,-9.99603,1.55792
173,1438189991812,44.6213,-8.23822,2.56653
174,1438189991834,44.6213,-8.23822,2.56653
175,1438189991852,45.3217,-9.64355,1.22223
176,1438189991871,44.4458,-8.06122,2.06299
177,1438189991892,44.4458,-8.06122,2.06299
178,1438189991910,44.0964,-9.81903,1.72577
179,1438189991931,45.6726,-8.58917,2.23083
180,1438189991949,45.6726,-8.58917,2.23083
181,1438189991970,44.6213,-9.2926,1.22223
182,1438189991990,45.3217,-8.94012,1.22223
183,1438189992010,45.3217,-8.94012,1.22223
184,1438189992032,43.7454,-9.81903,1.39008
185,1438189992049,45.1477,-9.81903,1.72577
186,1438189992069,45.1477,-9.81903,1.72577
187,1438189992089,43.7454,-9.11713,0.717163
188,1438189992108,44.7968,-9.11713,2.39868
189,1438189992128,44.7968,-9.11713,2.39868
190,1438189992148,44.4458,-10.5225,3.07159
191,1438189992167,43.2205,-8.94012,2.90375
192,1438189992188,43.2205,-8.94012,2.90375
193,1438189992207,43.5699,-9.64355,4.58527
194,1438189992226,45.1477,-9.81903,5.42603
195,1438189992246,45.1477,-9.81903,5.42603
196,1438189992265,42.8696,-11.4014,6.26678
197,1438189992287,43.7454,-10.1715,6.77185
198,1438189992306,43.7454,-10.1715,6.77185
199,1438189992328,44.4458,-12.9837,4.0802
200,1438189992346,44.4458,-10.5225,4.75311
201,1438189992362,44.4458,-10.5225,4.75311
202,1438189992383,43.045,-12.6328,1.72577
203,1438189992405,43.5699,-8.58917,3.57666
204,1438189992425,43.5699,-8.58917,3.57666
205,1438189992444,42.1692,-10.6979,1.22223
206,1438189992464,44.4458,-10.5225,2.39868
207,1438189992484,44.4458,-10.5225,2.39868
208,1438189992503,43.9209,-11.4014,1.55792
209,1438189992526,44.6213,-10.347,0.88501
210,1438189992542,44.6213,-10.347,0.88501
211,1438189992563,43.045,-9.81903,-1.97296
212,1438189992582,43.7454,-9.11713,1.05286
213,1438189992603,43.7454,-9.11713,1.05286
214,1438189992625,43.2205,-11.0504,-0.123596
215,1438189992642,44.0964,-9.46808,1.05286
216,1438189992662,44.0964,-9.46808,1.05286
217,1438189992682,44.0964,-10.8749,2.7359
218,1438189992701,44.4458,-9.81903,2.39868
219,1438189992720,44.4458,-9.81903,2.39868
220,1438189992741,43.5699,-12.1048,3.57666
221,1438189992760,43.9209,-10.347,6.26678
222,1438189992780,43.9209,-10.347,6.26678
223,1438189992800,43.2205,-11.0504,5.59387
224,1438189992820,43.9209,-8.94012,5.25818
225,1438189992840,43.9209,-8.94012,5.25818
226,1438189992859,43.9209,-9.99603,4.92096
227,1438189992879,43.9209,-10.6979,4.92096
228,1438189992900,43.9209,-10.6979,4.92096
229,1438189992918,44.0964,-12.6328,4.75311
230,1438189992939,43.9209,-9.99603,3.91235
231,1438189992959,43.9209,-9.99603,3.91235
232,1438189992978,43.9209,-10.347,2.23083
233,1438189992998,44.2719,-11.0504,1.22223
234,1438189993018,44.2719,-11.0504,1.22223
235,1438189993036,43.9209,-12.4557,0.88501
236,1438189993057,43.5699,-9.64355,-0.45929
237,1438189993076,43.5699,-9.64355,-0.45929
238,1438189993097,43.9209,-8.94012,-0.123596
239,1438189993117,45.1477,-9.11713,0.38147
240,1438189993136,45.1477,-9.11713,0.38147
241,1438189993156,43.3945,-10.5225,0.717163
242,1438189993175,45.1477,-9.81903,1.39008
243,1438189993196,45.1477,-9.81903,1.39008
244,1438189993216,43.5699,-11.0504,0.549316
245,1438189993235,44.4458,-13.3347,2.39868
246,1438189993255,44.4458,-13.3347,2.39868
247,1438189993274,43.9209,-13.1592,2.23083
248,1438189993297,43.5699,-11.0504,2.90375
249,1438189993314,43.5699,-11.0504,2.90375
250,1438189993334,43.9209,-9.64355,4.58527
251,1438189993353,44.6213,-8.94012,3.57666
252,1438189993374,44.6213,-8.94012,3.57666
253,1438189993395,44.9722,-10.6979,2.56653
254,1438189993413,43.5699,-10.347,3.57666
255,1438189993433,43.5699,-10.347,3.57666
256,1438189993453,43.9209,-10.347,2.23083
257,1438189993472,44.9722,-8.58917,3.57666
258,1438189993493,44.9722,-8.58917,3.57666
259,1438189993511,44.7968,-9.46808,1.39008
260,1438189993532,43.9209,-9.2926,2.56653
261,1438189993552,43.9209,-9.2926,2.56653
262,1438189993570,43.2205,-10.6979,1.55792
263,1438189993591,44.6213,-7.53479,1.22223
264,1438189993611,44.6213,-7.53479,1.22223
265,1438189993631,44.0964,-8.76465,1.05286
266,1438189993651,43.5699,-7.88574,0.88501
267,1438189993669,43.5699,-7.88574,0.88501
268,1438189993692,44.4458,-10.5225,2.06299
269,1438189993708,43.9209,-7.88574,2.90375
270,1438189993729,43.9209,-7.88574,2.90375
271,1438189993749,44.2719,-11.0504,0.549316
272,1438189993769,44.6213,-11.7538,3.91235
273,1438189993789,44.6213,-11.7538,3.91235
274,1438189993808,44.2719,-10.6979,3.57666
275,1438189993828,44.7968,-9.81903,4.0802
276,1438189993848,44.7968,-9.81903,4.0802
277,1438189993867,45.6726,-8.94012,3.57666
278,1438189993887,44.9722,-8.58917,4.58527
279,1438189993907,44.9722,-8.58917,4.58527
280,1438189993927,44.9722,-9.99603,3.57666
281,1438189993947,43.3945,-10.5225,2.39868
282,1438189993966,43.3945,-10.5225,2.39868
283,1438189993985,43.045,-9.46808,2.39868
284,1438189994006,43.9209,-9.64355,2.90375
285,1438189994028,43.9209,-9.64355,2.90375
286,1438189994046,45.1477,-11.9293,0.717163
287,1438189994065,44.9722,-9.99603,0.212097
288,1438189994086,44.9722,-9.99603,0.212097
289,1438189994105,45.3217,-12.1048,-0.45929
290,1438189994127,45.1477,-8.06122,0.38147
291,1438189994144,45.1477,-8.06122,0.38147
292,1438189994164,44.7968,-8.4137,-0.291443
293,1438189994184,44.2719,-8.58917,0.88501
294,1438189994203,44.2719,-8.58917,0.88501
295,1438189994224,43.3945,-9.81903,2.06299
296,1438189994243,42.8696,-10.347,1.22223
297,1438189994263,42.8696,-10.347,1.22223
298,1438189994283,46.0236,-11.7538,0.549316
299,1438189994302,42.3447,-10.5225,2.06299
300,1438189994323,42.3447,-10.5225,2.06299
301,1438189994342,44.6213,-12.1048,1.89362
302,1438189994362,43.7454,-10.1715,2.39868
303,1438189994382,43.7454,-10.1715,2.39868
304,1438189994401,44.9722,-10.6979,1.89362
305,1438189994422,44.0964,-8.06122,3.74451
306,1438189994441,44.0964,-8.06122,3.74451
307,1438189994461,46.373,-9.99603,3.23944
308,1438189994479,43.3945,-9.11713,2.7359
309,1438189994500,43.3945,-9.11713,2.7359
310,1438189994522,44.2719,-12.1048,0.549316
311,1438189994540,43.2205,-8.94012,0.88501
312,1438189994559,43.2205,-8.94012,0.88501
313,1438189994579,44.9722,-10.347,-0.45929
314,1438189994599,41.9937,-9.81903,-1.30005
315,1438189994619,41.9937,-9.81903,-1.30005
316,1438189994638,45.1477,-9.11713,-1.63727
317,1438189994658,44.9722,-6.48041,-1.80511
318,1438189994678,44.9722,-6.48041,-1.80511
319,1438189994698,46.373,-7.53479,-1.1322
320,1438189994718,46.373,-7.53479,0.212097
321,1438189994737,46.373,-7.53479,0.212097
322,1438189994757,44.2719,-8.94012,0.549316
323,1438189994777,43.7454,-8.76465,0.717163
324,1438189994795,43.7454,-8.76465,0.717163
325,1438189994819,45.6726,-9.64355,1.55792
326,1438189994835,43.2205,-9.2926,2.56653
327,1438189994856,43.2205,-9.2926,2.56653
328,1438189994876,46.373,-12.4557,3.57666
329,1438189994895,46.199,-9.46808,5.08881
330,1438189994915,46.199,-9.46808,5.08881
331,1438189994935,43.2205,-8.58917,3.91235
332,1438189994957,44.2719,-8.58917,5.92957
333,1438189994975,44.2719,-8.58917,5.92957
334,1438189994994,45.4971,-9.81903,5.76172
335,1438189995014,44.0964,-8.4137,2.39868
336,1438189995034,44.0964,-8.4137,2.39868
337,1438189995056,46.199,-8.76465,1.05286
338,1438189995073,44.7968,-8.06122,0.0442505
339,1438189995093,44.7968,-8.06122,0.0442505
340,1438189995111,43.3945,-9.11713,-1.63727
341,1438189995133,44.6213,-11.0504,-1.1322
342,1438189995152,44.6213,-11.0504,-1.1322
343,1438189995172,44.6213,-10.347,-1.80511
344,1438189995192,44.4458,-8.4137,-1.63727
345,1438189995212,44.4458,-8.4137,-1.63727
346,1438189995232,44.4458,-8.4137,-0.964355
347,1438189995251,44.2719,-8.23822,-2.47803
348,1438189995271,44.2719,-8.23822,-2.47803
349,1438189995291,46.0236,-9.64355,-0.45929
350,1438189995311,43.7454,-7.71027,-0.628662
351,1438189995329,43.7454,-7.71027,-0.628662
352,1438189995353,45.3217,-9.99603,-0.123596
353,1438189995370,43.9209,-10.347,1.55792
354,1438189995390,43.9209,-10.347,1.55792
355,1438189995410,45.1477,-10.1715,0.38147
356,1438189995428,43.3945,-8.06122,3.07159
357,1438189995452,43.3945,-8.06122,3.07159
358,1438189995468,45.1477,-8.76465,2.39868
359,1438189995488,44.7968,-9.81903,3.40729
360,1438189995508,44.7968,-9.81903,3.40729
361,1438189995528,45.3217,-11.0504,2.56653
362,1438189995550,44.7968,-9.46808,1.39008
363,1438189995568,44.7968,-9.46808,1.39008
364,1438189995587,43.5699,-10.6979,-0.123596
365,1438189995606,45.3217,-8.94012,-1.1322
366,1438189995627,45.3217,-8.94012,-1.1322
367,1438189995648,46.0236,-11.0504,-0.796509
368,1438189995666,44.6213,-9.99603,-2.47803
369,1438189995686,44.6213,-9.99603,-2.47803
370,1438189995706,44.0964,-11.2259,-2.98309
371,1438189995725,43.3945,-9.81903,-2.31018
372,1438189995745,43.3945,-9.81903,-2.31018
373,1438189995765,44.6213,-10.347,-1.46942
374,1438189995785,44.2719,-8.58917,-0.45929
375,1438189995805,44.2719,-8.58917,-0.45929
376,1438189995825,44.4458,-10.1715,-1.63727
377,1438189995847,44.7968,-9.46808,0.717163
378,1438189995864,44.7968,-9.46808,0.717163
379,1438189995884,44.0964,-10.5225,-0.628662
380,1438189995904,43.2205,-9.99603,-0.123596
381,1438189995922,43.2205,-9.99603,-0.123596
382,1438189995945,44.7968,-11.5768,0.0442505
383,1438189995962,44.2719,-8.23822,2.56653
384,1438189995983,44.2719,-8.23822,2.56653
385,1438189996002,44.9722,-9.64355,1.22223
386,1438189996025,43.3945,-10.1715,1.72577
387,1438189996042,43.3945,-10.1715,1.72577
388,1438189996061,44.4458,-10.1715,2.06299
389,1438189996082,44.7968,-9.11713,1.72577
390,1438189996101,44.7968,-9.11713,1.72577
391,1438189996122,44.6213,-10.6979,-0.796509
392,1438189996141,43.5699,-9.64355,-1.46942
393,1438189996161,43.5699,-9.64355,-1.46942
394,1438189996181,45.4971,-10.8749,-0.964355
395,1438189996200,44.2719,-9.99603,-1.80511
396,1438189996220,44.2719,-9.99603,-1.80511
397,1438189996238,43.5699,-10.6979,-3.48663
398,1438189996259,45.6726,-9.64355,-3.82385
399,1438189996279,45.6726,-9.64355,-3.82385
400,1438189996299,44.4458,-9.11713,-1.63727
401,1438189996321,43.5699,-9.2926,-2.14233
402,1438189996338,43.5699,-9.2926,-2.14233
403,1438189996358,43.3945,-9.46808,-0.964355
404,1438189996378,44.6213,-9.99603,-0.45929
405,1438189996398,44.6213,-9.99603,-0.45929
406,1438189996420,43.9209,-10.347,-0.796509
407,1438189996437,44.4458,-11.9293,-0.291443
408,1438189996457,44.4458,-11.9293,-0.291443
409,1438189996477,43.9209,-11.4014,0.549316
410,1438189996496,44.9722,-12.1048,0.88501
411,1438189996517,44.9722,-12.1048,0.88501
412,1438189996536,45.1477,-10.5225,1.39008
413,1438189996555,43.9209,-8.58917,1.89362
414,1438189996576,43.9209,-8.58917,1.89362
415,1438189996594,45.1477,-9.46808,0.38147
416,1438189996618,45.6726,-8.58917,-1.1322
417,1438189996635,45.6726,-8.58917,-1.1322
418,1438189996655,45.4971,-9.11713,-2.31018
419,1438189996674,44.0964,-7.35931,-1.30005
420,1438189996694,44.0964,-7.35931,-1.30005
421,1438189996715,47.4243,-6.48041,-2.14233
422,1438189996734,45.1477,-3.84369,-3.65448
423,1438189996754,45.1477,-3.84369,-3.65448
424,1438189996773,45.4971,-4.54559,-4.32739
425,1438189996793,43.9209,-4.7226,-6.17828
426,1438189996815,43.9209,-4.7226,-6.17828
427,1438189996833,45.6726,-3.66669,-5.50537
428,1438189996852,44.9722,-2.96478,-5.50537
429,1438189996871,44.9722,-2.96478,-5.50537
430,1438189996892,44.9722,-4.37012,-5.84106
431,1438189996911,45.1477,-3.14026,-1.63727
432,1438189996931,45.1477,-3.14026,-1.63727
433,1438189996951,44.9722,-5.4245,-2.81372
434,1438189996972,45.3217,-6.83136,-1.80511
435,1438189996991,45.3217,-6.83136,-1.80511
436,1438189997011,44.2719,-8.94012,-1.80511
437,1438189997030,44.9722,-6.83136,0.549316
438,1438189997050,44.9722,-6.83136,0.549316
439,1438189997070,44.2719,-7.88574,-2.47803
440,1438189997089,45.8481,-5.24902,-0.628662
441,1438189997110,45.8481,-5.24902,-0.628662
442,1438189997129,45.3217,-5.77698,-1.1322
443,1438189997150,44.7968,-5.6015,-2.98309
444,1438189997169,44.7968,-5.6015,-2.98309
445,1438189997187,43.9209,-9.2926,-3.48663
446,1438189997209,45.1477,-7.00684,-2.31018
447,1438189997229,45.1477,-7.00684,-2.31018
448,1438189997250,43.2205,-8.23822,-4.15955
449,1438189997267,44.0964,-8.76465,-3.65448
450,1438189997287,44.0964,-8.76465,-3.65448
451,1438189997308,44.7968,-9.46808,-2.31018
452,1438189997327,45.1477,-9.46808,-2.64587
453,1438189997349,45.1477,-9.46808,-2.64587
454,1438189997365,45.4971,-9.81903,-2.98309
455,1438189997386,46.5485,-8.06122,-1.97296
456,1438189997406,46.5485,-8.06122,-1.97296
457,1438189997426,44.0964,-9.11713,-2.98309
458,1438189997448,44.0964,-8.4137,0.0442505
459,1438189997465,44.0964,-8.4137,0.0442505
460,1438189997485,44.6213,-10.347,-1.1322
461,1438189997504,44.6213,-9.2926,-2.14233
462,1438189997525,44.6213,-9.2926,-2.14233
463,1438189997547,42.5186,-10.6979,-0.796509
464,1438189997564,44.6213,-7.88574,0.549316
465,1438189997584,44.6213,-7.88574,0.549316
