id,attr_time,attr_x,attr_y,attr_z
1,1436985153421,-8.042,-40.745,18.04
2,1436985153427,-8.042,-40.745,18.04
3,1436985153445,-8.042,-40.745,18.04
4,1436985153466,-8.042,-40.745,18.04
5,1436985153485,-8.042,-40.745,18.04
6,1436985153506,-8.042,-40.745,18.04
7,1436985153526,-8.042,-40.745,18.04
8,1436985153547,-8.042,-40.745,18.04
9,1436985153569,-8.042,-40.745,18.04
10,1436985153588,-8.042,-40.745,18.04
11,1436985153608,-8.042,-40.745,18.04
12,1436985153626,-8.042,-40.745,18.04
13,1436985153646,-8.042,-40.745,18.04
14,1436985153669,-8.042,-40.745,18.04
15,1436985153689,-8.042,-40.745,18.04
16,1436985153706,-8.042,-40.745,18.04
17,1436985153726,-8.042,-40.745,18.04
18,1436985153749,-8.042,-40.745,18.04
19,1436985153769,-8.042,-40.745,18.04
20,1436985153787,-8.042,-40.745,18.04
21,1436985153809,-8.042,-40.745,18.04
22,1436985153826,-8.042,-40.745,18.04
23,1436985153846,-8.042,-40.745,18.04
24,1436985153866,-8.042,-40.745,18.04
25,1436985153887,-8.042,-40.444,18.04
26,1436985153906,-8.042,-40.444,18.04
27,1436985153927,-8.042,-40.444,18.04
28,1436985153947,-8.042,-40.444,18.04
29,1436985153969,-8.042,-40.444,18.04
30,1436985153987,-8.042,-40.444,18.04
31,1436985154007,-8.042,-40.444,18.356
32,1436985154026,-8.042,-40.444,18.356
33,1436985154048,-8.346,-40.444,18.356
34,1436985154072,-8.346,-40.444,18.356
35,1436985154132,-8.346,-40.444,18.356
36,1436985154133,-8.346,-40.444,18.356
37,1436985154134,-8.346,-40.444,18.356
38,1436985154155,-8.346,-40.444,18.356
39,1436985154166,-8.346,-40.444,18.356
40,1436985154191,-8.346,-40.444,18.356
41,1436985154206,-8.346,-40.444,18.356
42,1436985154226,-8.346,-40.444,18.356
43,1436985154247,-8.346,-40.444,18.356
44,1436985154268,-8.346,-40.444,18.356
45,1436985154287,-8.346,-40.444,18.356
46,1436985154307,-8.346,-40.444,18.356
47,1436985154326,-8.346,-40.444,18.356
48,1436985154346,-8.346,-40.444,18.356
49,1436985154369,-8.346,-40.444,18.356
50,1436985154387,-8.346,-40.444,18.356
51,1436985154410,-8.346,-40.444,18.356
52,1436985154428,-8.346,-40.444,18.356
53,1436985154447,-8.346,-40.444,18.356
54,1436985154470,-8.346,-40.444,18.356
55,1436985154490,-8.346,-40.444,18.356
56,1436985154507,-8.346,-40.444,18.356
57,1436985154530,-8.346,-40.444,18.356
58,1436985154548,-8.346,-40.444,18.356
59,1436985154567,-8.346,-40.444,18.356
60,1436985154591,-8.346,-40.444,18.356
61,1436985154612,-8.346,-40.444,18.356
62,1436985154628,-8.346,-40.444,18.356
63,1436985154648,-8.346,-40.444,18.356
64,1436985154669,-8.346,-40.444,18.356
65,1436985154690,-8.346,-40.444,18.356
66,1436985154709,-8.346,-40.444,18.356
67,1436985154731,-8.346,-40.444,18.356
68,1436985154749,-8.346,-40.444,18.356
69,1436985154769,-8.346,-40.444,18.356
70,1436985154788,-8.346,-40.444,18.356
71,1436985154854,-8.346,-40.444,18.356
72,1436985154855,-8.346,-40.444,18.356
73,1436985154856,-8.346,-40.444,18.356
74,1436985154876,-8.346,-40.444,18.356
75,1436985154887,-8.346,-40.444,18.356
76,1436985154909,-8.346,-40.444,18.356
77,1436985154928,-8.346,-40.444,18.356
78,1436985154947,-8.346,-40.444,18.356
79,1436985154967,-8.346,-40.444,18.356
80,1436985154987,-8.346,-40.444,18.356
81,1436985155012,-8.346,-40.444,18.356
82,1436985155030,-8.346,-40.444,18.356
83,1436985155048,-8.346,-40.444,18.356
84,1436985155067,-8.346,-40.444,18.356
85,1436985155091,-8.346,-40.444,18.356
86,1436985155111,-8.346,-40.444,18.356
87,1436985155129,-8.346,-40.444,18.356
88,1436985155148,-8.346,-40.444,18.356
89,1436985155167,-8.346,-40.444,18.356
90,1436985155189,-8.346,-40.444,18.356
91,1436985155211,-8.346,-40.444,18.356
92,1436985155229,-8.346,-40.444,18.356
93,1436985155250,-8.346,-40.444,18.356
94,1436985155272,-8.346,-40.444,18.356
95,1436985155287,-8.346,-40.444,18.356
96,1436985155309,-8.346,-40.444,18.356
97,1436985155329,-8.346,-40.444,18.356
98,1436985155369,-8.346,-40.444,18.356
99,1436985155370,-8.346,-40.444,18.356
100,1436985155404,-8.346,-40.444,18.356
101,1436985155407,-8.346,-40.444,18.356
102,1436985155427,-8.346,-40.444,18.356
103,1436985155447,-8.346,-40.444,18.356
104,1436985155467,-8.346,-40.444,18.356
105,1436985155487,-8.346,-40.142,18.356
106,1436985155507,-8.346,-40.142,18.356
107,1436985155527,-8.346,-40.142,18.356
108,1436985155549,-8.346,-40.142,18.356
109,1436985155585,-8.346,-40.142,18.356
110,1436985155587,-8.346,-40.142,18.356
111,1436985155608,-8.346,-40.142,18.356
112,1436985155627,-8.346,-40.142,18.356
113,1436985155648,-8.346,-40.142,18.356
114,1436985155668,-8.346,-40.142,18.356
115,1436985155702,-8.346,-40.142,18.356
116,1436985155707,-8.346,-40.142,18.356
117,1436985155742,-8.346,-40.142,18.356
118,1436985155748,-8.346,-40.142,18.356
119,1436985155774,-8.346,-40.142,18.356
120,1436985155799,-8.346,-40.142,18.356
121,1436985155807,-8.346,-40.142,18.356
122,1436985155826,-8.346,-40.142,18.356
123,1436985155846,-8.346,-40.142,18.356
124,1436985155871,-8.346,-40.142,18.356
125,1436985155891,-8.346,-40.466,18.356
126,1436985155908,-8.346,-40.466,18.356
127,1436985155927,-8.346,-40.466,18.356
128,1436985155949,-8.346,-40.466,18.356
129,1436985155971,-8.346,-40.466,18.356
130,1436985155991,-8.346,-40.466,18.356
131,1436985156011,-8.346,-40.466,18.356
132,1436985156028,-8.346,-40.466,18.356
133,1436985156047,-8.346,-40.466,18.356
134,1436985156071,-8.346,-40.466,18.356
135,1436985156088,-8.346,-40.466,18.356
136,1436985156108,-8.346,-40.466,18.356
137,1436985156128,-8.346,-40.466,18.356
138,1436985156148,-8.346,-40.466,18.356
139,1436985156169,-8.346,-40.466,18.356
140,1436985156191,-8.346,-40.466,18.356
141,1436985156211,-8.346,-40.466,18.356
142,1436985156227,-8.346,-40.466,18.356
143,1436985156247,-8.346,-40.466,18.356
144,1436985156268,-8.346,-40.466,18.356
145,1436985156288,-8.346,-40.466,18.356
146,1436985156346,-8.346,-40.466,18.356
147,1436985156348,-8.346,-40.466,18.356
148,1436985156349,-8.346,-40.466,18.673
149,1436985156369,-8.346,-40.466,18.673
150,1436985156388,-8.346,-40.466,18.673
151,1436985156408,-8.346,-40.466,18.673
152,1436985156428,-8.346,-40.466,18.673
153,1436985156451,-8.346,-40.466,18.673
154,1436985156468,-8.346,-40.466,18.673
155,1436985156492,-8.346,-40.466,18.673
156,1436985156509,-8.346,-40.466,18.673
157,1436985156529,-8.346,-40.466,18.673
158,1436985156555,-8.346,-40.466,18.673
159,1436985156572,-8.346,-40.466,18.673
160,1436985156594,-8.346,-40.466,18.673
161,1436985156611,-8.346,-40.466,18.673
162,1436985156629,-8.346,-40.466,18.673
163,1436985156651,-8.346,-40.466,18.673
164,1436985156673,-8.346,-40.466,18.673
165,1436985156691,-8.346,-40.774,18.673
166,1436985156711,-8.346,-40.774,18.673
167,1436985156732,-8.346,-40.774,18.673
168,1436985156751,-8.346,-40.774,18.673
169,1436985156768,-8.346,-40.774,18.673
170,1436985156789,-8.346,-40.774,18.673
171,1436985156811,-8.346,-40.774,18.673
172,1436985156831,-8.346,-40.774,18.673
173,1436985156852,-8.346,-40.774,18.673
174,1436985156871,-8.346,-40.774,18.673
175,1436985156891,-8.346,-40.774,18.673
176,1436985156911,-8.346,-40.774,18.673
177,1436985156936,-8.346,-40.774,18.673
178,1436985156948,-8.346,-40.774,18.673
179,1436985156968,-8.346,-40.774,18.673
180,1436985156992,-8.346,-40.774,18.673
181,1436985157009,-8.346,-40.774,18.673
182,1436985157029,-8.346,-40.774,18.673
183,1436985157069,-8.346,-40.774,18.673
184,1436985157070,-8.346,-40.774,18.673
185,1436985157089,-8.346,-40.774,18.673
186,1436985157109,-8.346,-40.774,18.673
187,1436985157132,-8.346,-40.774,18.673
188,1436985157149,-8.346,-40.774,18.673
189,1436985157169,-8.346,-40.774,18.673
190,1436985157190,-8.346,-40.774,18.673
191,1436985157209,-8.346,-40.774,18.673
192,1436985157234,-8.346,-40.774,18.673
193,1436985157253,-8.346,-40.774,18.673
194,1436985157270,-8.346,-40.472,18.673
195,1436985157292,-8.346,-40.472,18.673
196,1436985157312,-8.346,-40.472,18.673
197,1436985157332,-8.346,-40.472,18.673
198,1436985157353,-8.346,-40.472,18.673
199,1436985157372,-8.346,-40.472,18.673
200,1436985157392,-8.346,-40.472,18.673
201,1436985157412,-8.346,-40.472,18.673
202,1436985157432,-8.346,-40.472,18.673
203,1436985157453,-8.346,-40.472,18.673
204,1436985157473,-8.346,-40.472,18.673
205,1436985157490,-8.346,-40.472,18.367
206,1436985157512,-8.346,-40.472,18.367
207,1436985157532,-8.346,-40.472,18.367
208,1436985157553,-8.346,-40.472,18.367
209,1436985157573,-8.346,-40.472,18.367
210,1436985157590,-8.346,-40.472,18.367
211,1436985157611,-8.346,-40.472,18.367
212,1436985157633,-8.346,-40.472,18.367
213,1436985157651,-8.346,-40.472,18.367
214,1436985157675,-8.346,-40.472,18.367
215,1436985157693,-8.346,-40.472,18.367
216,1436985157712,-8.346,-40.472,18.367
217,1436985157731,-8.346,-40.472,18.367
218,1436985157753,-8.346,-40.472,18.367
219,1436985157817,-8.346,-40.472,18.367
220,1436985157818,-8.346,-40.472,18.367
221,1436985157819,-8.346,-40.472,18.367
222,1436985157829,-8.346,-40.472,18.367
223,1436985157853,-8.346,-40.472,18.367
224,1436985157872,-8.346,-40.472,18.367
225,1436985157892,-8.346,-40.472,18.367
226,1436985157912,-8.346,-40.809,18.367
227,1436985157930,-8.346,-40.809,18.367
228,1436985157952,-8.346,-40.809,18.367
229,1436985157971,-8.346,-40.809,18.367
230,1436985157992,-8.346,-40.809,18.367
231,1436985158011,-8.346,-40.809,18.367
232,1436985158033,-8.346,-40.809,18.367
233,1436985158052,-8.346,-40.809,18.367
234,1436985158073,-8.346,-40.809,18.367
235,1436985158093,-8.346,-40.809,18.367
236,1436985158114,-8.346,-40.809,18.367
237,1436985158132,-8.346,-40.809,18.367
238,1436985158153,-8.346,-40.809,18.367
239,1436985158173,-8.346,-40.809,18.367
240,1436985158195,-8.346,-40.809,18.367
241,1436985158212,-8.346,-40.809,18.367
242,1436985158233,-8.346,-40.809,18.367
243,1436985158252,-8.346,-40.809,18.367
244,1436985158270,-8.346,-40.809,18.367
245,1436985158292,-8.042,-40.809,18.367
246,1436985158315,-8.042,-40.809,18.367
247,1436985158334,-8.042,-40.809,18.367
248,1436985158355,-8.042,-40.809,18.367
249,1436985158373,-8.042,-40.809,18.367
250,1436985158393,-8.042,-40.809,18.035
251,1436985158412,-8.042,-40.809,18.035
252,1436985158432,-8.042,-40.809,18.035
253,1436985158459,-8.042,-40.809,18.035
254,1436985158531,-8.042,-40.809,18.035
255,1436985158532,-8.042,-40.809,18.035
256,1436985158533,-8.042,-40.809,18.035
257,1436985158534,-8.042,-40.809,18.035
258,1436985158552,-8.042,-40.809,18.035
259,1436985158572,-8.042,-40.809,18.035
260,1436985158593,-8.042,-40.809,18.035
261,1436985158611,-8.042,-40.809,18.035
262,1436985158633,-8.042,-40.809,18.035
263,1436985158657,-8.042,-40.809,18.035
264,1436985158683,-8.042,-40.809,18.035
265,1436985158692,-8.042,-40.809,18.035
266,1436985158719,-8.042,-40.809,18.035
267,1436985158732,-8.042,-40.809,18.035
268,1436985158753,-8.042,-40.809,18.035
269,1436985158773,-8.374,-40.809,18.035
270,1436985158794,-8.374,-40.487,18.035
271,1436985158813,-8.374,-40.487,18.035
272,1436985158831,-8.374,-40.487,18.035
273,1436985158854,-8.374,-40.487,18.035
274,1436985158876,-8.374,-40.487,18.035
275,1436985158894,-8.374,-40.487,18.035
276,1436985158914,-8.374,-40.487,18.035
277,1436985158931,-8.374,-40.487,18.035
278,1436985158952,-8.374,-40.487,18.035
279,1436985158974,-8.374,-40.487,18.035
280,1436985158994,-8.374,-40.487,18.035
281,1436985159012,-8.374,-40.487,18.035
282,1436985159033,-8.374,-40.487,18.035
283,1436985159052,-8.374,-40.487,18.035
284,1436985159074,-8.374,-40.487,18.035
285,1436985159096,-8.374,-40.487,18.035
286,1436985159115,-8.374,-40.487,18.035
287,1436985159134,-8.374,-40.487,18.035
288,1436985159153,-8.374,-40.487,18.035
289,1436985159173,-8.374,-40.811,18.035
290,1436985159193,-8.374,-40.811,18.035
291,1436985159212,-8.374,-40.811,18.035
292,1436985159232,-8.374,-40.811,18.035
293,1436985159303,-8.374,-40.811,18.035
294,1436985159304,-8.374,-40.811,18.035
295,1436985159305,-8.374,-40.811,18.035
296,1436985159313,-8.374,-40.811,18.035
297,1436985159332,-8.374,-40.811,18.035
298,1436985159354,-8.374,-40.811,18.035
299,1436985159371,-8.374,-40.811,18.035
300,1436985159395,-8.374,-40.811,18.035
301,1436985159412,-8.374,-40.811,17.732
302,1436985159432,-8.374,-40.811,17.732
303,1436985159452,-8.374,-40.811,17.732
304,1436985159472,-8.374,-40.811,17.732
305,1436985159492,-8.374,-40.811,17.732
306,1436985159514,-8.374,-40.811,17.732
307,1436985159534,-8.374,-40.811,17.732
308,1436985159553,-8.374,-40.811,17.732
309,1436985159574,-8.374,-40.811,17.732
310,1436985159591,-8.374,-40.811,17.732
311,1436985159612,-8.374,-40.811,17.732
312,1436985159631,-8.374,-40.811,17.732
313,1436985159653,-8.374,-40.811,17.732
314,1436985159674,-8.053,-40.811,17.732
315,1436985159698,-8.053,-40.811,17.732
316,1436985159715,-8.053,-40.811,17.732
317,1436985159766,-8.053,-40.811,17.732
318,1436985159767,-8.053,-40.811,17.732
319,1436985159779,-8.053,-40.811,18.041
320,1436985159812,-8.053,-40.811,18.041
321,1436985159813,-7.733,-40.811,18.041
322,1436985159833,-7.733,-40.811,18.041
323,1436985159852,-7.733,-40.811,18.041
324,1436985159876,-7.733,-40.811,18.041
325,1436985159897,-7.733,-40.811,18.041
326,1436985159918,-7.733,-40.811,18.041
327,1436985159934,-7.733,-40.811,18.041
328,1436985159959,-7.414,-40.811,18.36
329,1436985160042,-7.414,-40.811,18.36
330,1436985160043,-7.414,-40.811,18.36
331,1436985160044,-7.414,-40.811,18.36
332,1436985160045,-7.414,-40.811,18.36
333,1436985160063,-7.414,-40.811,18.36
334,1436985160074,-7.414,-40.811,18.36
335,1436985160129,-7.414,-40.811,18.36
336,1436985160130,-7.414,-40.811,18.36
337,1436985160132,-7.414,-40.811,18.36
338,1436985160176,-7.414,-40.811,18.36
339,1436985160177,-7.414,-40.811,18.36
340,1436985160194,-7.414,-40.811,18.36
341,1436985160232,-7.414,-40.811,18.36
342,1436985160233,-7.414,-40.811,18.714
343,1436985160259,-7.414,-40.811,18.714
344,1436985160274,-7.414,-40.811,18.714
345,1436985160295,-7.414,-40.811,18.714
346,1436985160313,-7.414,-40.811,18.714
347,1436985160333,-7.11,-40.811,18.714
348,1436985160351,-7.11,-40.811,18.714
349,1436985160373,-7.11,-40.811,18.714
350,1436985160393,-7.11,-40.811,18.714
351,1436985160416,-6.809,-41.152,18.714
352,1436985160436,-6.809,-41.152,18.382
353,1436985160455,-6.809,-41.152,18.382
354,1436985160474,-6.809,-41.5,18.382
355,1436985160492,-6.809,-41.5,18.064
356,1436985160513,-6.454,-41.5,18.064
357,1436985160533,-6.454,-41.899,17.729
358,1436985160555,-6.454,-41.899,17.729
359,1436985160578,-6.454,-41.899,17.729
360,1436985160592,-6.454,-42.254,17.729
361,1436985160613,-6.454,-42.254,17.346
362,1436985160633,-6.117,-42.254,17.346
363,1436985160654,-6.117,-42.637,16.989
364,1436985160673,-6.117,-42.637,16.989
365,1436985160694,-6.117,-42.637,16.989
366,1436985160712,-6.117,-42.637,16.61
367,1436985160732,-6.117,-42.95,16.61
368,1436985160817,-6.117,-42.95,16.61
369,1436985160818,-6.117,-42.95,16.61
370,1436985160819,-6.117,-42.95,16.296
371,1436985160820,-6.117,-42.95,16.296
372,1436985160835,-6.117,-42.95,16.296
373,1436985160996,-6.117,-42.95,16.296
374,1436985160997,-6.117,-42.95,16.296
375,1436985160998,-6.117,-42.95,16.296
376,1436985160999,-6.117,-42.95,16.296
377,1436985161000,-6.117,-42.95,16.296
378,1436985161001,-6.117,-42.95,16.296
379,1436985161002,-6.117,-42.95,16.296
380,1436985161003,-6.117,-42.95,16.296
381,1436985161038,-6.117,-42.95,16.296
382,1436985161039,-6.117,-42.95,16.296
383,1436985161054,-6.117,-42.95,16.296
384,1436985161075,-6.117,-42.95,16.296
385,1436985161095,-6.117,-42.95,16.296
386,1436985161113,-6.117,-42.95,16.296
387,1436985161135,-6.117,-42.95,16.296
388,1436985161157,-6.117,-42.95,16.296
389,1436985161178,-6.117,-42.95,16.296
390,1436985161204,-6.117,-42.95,16.296
391,1436985161215,-6.117,-42.95,16.296
392,1436985161234,-6.117,-42.95,16.296
393,1436985161253,-6.117,-42.95,16.296
394,1436985161275,-6.117,-42.95,16.296
395,1436985161297,-6.117,-42.95,15.966
396,1436985161318,-6.117,-42.95,15.966
397,1436985161334,-6.117,-42.95,15.966
398,1436985161353,-6.117,-42.95,15.966
399,1436985161373,-6.117,-42.95,15.966
400,1436985161393,-6.117,-42.95,15.966
401,1436985161413,-6.117,-42.95,15.966
402,1436985161434,-6.117,-42.95,15.966
403,1436985161498,-6.117,-42.95,15.966
404,1436985161501,-6.117,-42.95,15.966
405,1436985161502,-6.117,-42.95,15.966
406,1436985161518,-6.117,-42.95,15.966
407,1436985161534,-6.117,-42.95,15.966
408,1436985161553,-6.117,-42.95,15.966
409,1436985161573,-6.117,-42.95,15.966
410,1436985161593,-6.117,-42.95,15.966
411,1436985161614,-6.117,-42.95,15.966
412,1436985161634,-6.117,-42.95,15.966
413,1436985161655,-6.117,-42.95,15.966
414,1436985161674,-6.117,-42.95,15.966
415,1436985161696,-6.117,-42.95,15.966
416,1436985161716,-6.117,-42.95,15.966
417,1436985161735,-6.117,-42.95,15.644
418,1436985161754,-6.117,-43.27,15.644
419,1436985161777,-6.117,-43.27,15.644
420,1436985161796,-5.769,-43.27,15.644
421,1436985161816,-5.769,-43.27,15.644
422,1436985161835,-5.769,-43.27,15.644
423,1436985161857,-5.769,-43.27,15.644
424,1436985161877,-5.383,-43.27,15.292
425,1436985161897,-5.383,-43.27,15.292
426,1436985161914,-5.383,-43.27,15.292
427,1436985161935,-5.383,-43.27,15.292
428,1436985161954,-4.969,-43.27,15.292
429,1436985161973,-4.969,-43.589,15.292
430,1436985161994,-4.969,-43.589,15.292
431,1436985162019,-4.591,-43.589,15.292
432,1436985162034,-4.591,-43.589,15.292
433,1436985162059,-4.273,-43.589,15.292
434,1436985162077,-4.273,-43.589,15.292
435,1436985162094,-3.901,-43.589,15.292
436,1436985162114,-3.901,-43.589,15.292
437,1436985162135,-3.425,-43.589,15.292
438,1436985162155,-3.425,-43.589,15.292
439,1436985162243,-2.917,-43.589,14.959
440,1436985162244,-2.917,-43.589,14.959
441,1436985162245,-2.917,-43.891,14.959
442,1436985162246,-2.59,-43.891,14.959
443,1436985162274,-2.59,-43.891,14.959
444,1436985162275,-2.281,-43.891,14.959
445,1436985162294,-2.281,-43.891,14.959
446,1436985162315,-1.976,-43.891,14.959
447,1436985162335,-1.976,-43.891,14.57
448,1436985162354,-1.67,-43.891,14.57
449,1436985162374,-1.67,-44.23,14.228
450,1436985162394,-1.367,-44.23,12.603
451,1436985162416,-1.367,-44.23,11.73
452,1436985162434,-1.367,-44.23,11.054
453,1436985162456,-0.921,-44.549,10.173
454,1436985162477,-0.921,-44.549,10.173
455,1436985162497,-0.593,-44.549,9.762
456,1436985162517,-0.593,-44.549,9.381
457,1436985162537,-0.291,-44.895,8.355
458,1436985162556,-0.291,-44.895,7.482
459,1436985162576,0.399,-44.895,6.838
460,1436985162597,0.961,-44.895,6.838
461,1436985162618,1.797,-45.288,6.838
462,1436985162637,2.188,-45.288,6.039
463,1436985162657,3.027,-45.288,6.813
464,1436985162676,3.027,-45.608,5.981
465,1436985162697,3.027,-45.608,5.981
466,1436985162718,3.434,-45.608,6.826
467,1436985162737,3.434,-45.608,6.826
468,1436985162756,3.108,-45.608,6.826
469,1436985162777,3.108,-45.608,6.826
470,1436985162797,3.108,-45.608,6.826
471,1436985162818,3.108,-45.608,6.826
472,1436985162838,3.108,-45.608,6.826
473,1436985162855,3.108,-45.608,6.826
474,1436985162876,3.108,-45.608,6.501
475,1436985162896,3.108,-45.608,6.501
476,1436985162915,3.498,-45.608,6.501
477,1436985162986,3.498,-45.608,7.221
478,1436985162987,3.498,-45.608,8.016
479,1436985162988,3.498,-45.608,8.016
480,1436985163005,3.498,-45.608,8.647
481,1436985163014,3.498,-45.608,9.077
482,1436985163035,3.498,-45.608,9.822
483,1436985163055,3.498,-45.608,9.333
484,1436985163075,3.498,-45.608,8.685
485,1436985163096,3.498,-45.281,8.253
486,1436985163115,3.498,-45.281,7.817
487,1436985163136,3.498,-45.281,7.817
488,1436985163162,3.498,-45.281,7.324
489,1436985163176,3.498,-45.281,8.258
490,1436985163196,3.498,-45.281,7.536
491,1436985163218,3.498,-45.281,7.931
492,1436985163238,3.498,-45.281,7.931
493,1436985163259,3.498,-45.281,7.931
494,1436985163276,3.498,-45.281,7.931
495,1436985163298,3.498,-45.588,7.063
496,1436985163315,3.498,-45.588,6.002
497,1436985163336,3.498,-45.588,6.002
498,1436985163358,3.498,-45.588,5.607
499,1436985163376,3.498,-45.588,4.533
500,1436985163397,3.498,-45.588,4.031
501,1436985163418,3.498,-45.588,3.594
502,1436985163438,3.837,-45.915,3.23
503,1436985163458,3.837,-45.915,2.36
504,1436985163476,3.837,-45.915,1.226
505,1436985163498,3.837,-45.915,0.543
506,1436985163518,3.837,-45.915,-0.656
507,1436985163538,3.837,-45.915,-0.656
