id,attr_time,attr_light
1,1435993159429,0.0
2,1435993159448,0.0
3,1435993159467,0.0
4,1435993159488,0.0
5,1435993159508,0.0
6,1435993159528,0.0
7,1435993159550,0.0
8,1435993159570,0.0
9,1435993159589,0.0
10,1435993159608,0.0
11,1435993159628,0.0
12,1435993159647,0.0
13,1435993159667,0.0
14,1435993159687,0.0
15,1435993159712,0.0
16,1435993159729,0.0
17,1435993159751,0.0
18,1435993159771,0.0
19,1435993159792,0.0
20,1435993159811,0.0
21,1435993159832,0.0
22,1435993159851,0.0
23,1435993159869,0.0
24,1435993159890,0.0
25,1435993159909,0.0
26,1435993159975,0.0
27,1435993159976,0.0
28,1435993159977,0.0
29,1435993159988,0.0
30,1435993160007,0.0
31,1435993160027,0.0
32,1435993160048,0.0
33,1435993160068,0.0
34,1435993160088,0.0
35,1435993160108,0.0
36,1435993160128,0.0
37,1435993160147,0.0
38,1435993160168,0.0
39,1435993160187,0.0
40,1435993160207,0.0
41,1435993160227,0.0
42,1435993160247,0.0
43,1435993160267,0.0
44,1435993160287,0.0
45,1435993160308,0.0
46,1435993160327,0.0
47,1435993160348,0.0
48,1435993160368,0.0
49,1435993160388,0.0
50,1435993160409,0.0
51,1435993160429,0.0
52,1435993160448,0.0
53,1435993160468,0.0
54,1435993160488,0.0
55,1435993160508,0.0
56,1435993160531,0.0
57,1435993160548,0.0
58,1435993160569,0.0
59,1435993160588,0.0
60,1435993160608,0.0
61,1435993160628,0.0
62,1435993160649,0.0
63,1435993160672,0.0
64,1435993160693,0.0
65,1435993160712,0.0
66,1435993160732,0.0
67,1435993160750,0.0
68,1435993160772,0.0
69,1435993160792,0.0
70,1435993160812,0.0
71,1435993160835,0.0
72,1435993160852,0.0
73,1435993160869,0.0
74,1435993160893,0.0
75,1435993160913,0.0
76,1435993160935,0.0
77,1435993160960,0.0
78,1435993160972,0.0
79,1435993160990,0.0
80,1435993161009,0.0
81,1435993161030,0.0
82,1435993161052,0.0
83,1435993161072,0.0
84,1435993161092,0.0
85,1435993161114,0.0
86,1435993161158,0.0
87,1435993161159,0.0
88,1435993161172,0.0
89,1435993161189,0.0
90,1435993161209,0.0
91,1435993161231,0.0
92,1435993161253,0.0
93,1435993161269,0.0
94,1435993161290,0.0
95,1435993161313,0.0
96,1435993161333,0.0
97,1435993161355,0.0
98,1435993161370,0.0
99,1435993161393,0.0
100,1435993161413,0.0
101,1435993161433,0.0
102,1435993161461,0.0
103,1435993161471,0.0
104,1435993161491,0.0
105,1435993161510,0.0
106,1435993161530,0.0
107,1435993161550,0.0
108,1435993161572,0.0
109,1435993161592,0.0
110,1435993161613,0.0
111,1435993161633,0.0
112,1435993161654,0.0
113,1435993161672,0.0
114,1435993161692,0.0
115,1435993161713,0.0
116,1435993161733,0.0
117,1435993161751,0.0
118,1435993161842,0.0
119,1435993161843,0.0
120,1435993161844,0.0
121,1435993161845,0.0
122,1435993161856,0.0
123,1435993161869,0.0
124,1435993161889,0.0
125,1435993161909,0.0
126,1435993161929,0.0
127,1435993161953,0.0
128,1435993161970,0.0
129,1435993161990,0.0
130,1435993162010,0.0
131,1435993162030,0.0
132,1435993162050,0.0
133,1435993162071,0.0
134,1435993162089,0.0
135,1435993162110,0.0
136,1435993162129,0.0
137,1435993162149,0.0
138,1435993162169,0.0
139,1435993162189,0.0
140,1435993162209,0.0
141,1435993162229,0.0
142,1435993162249,0.0
143,1435993162269,0.0
144,1435993162289,0.0
145,1435993162309,0.0
146,1435993162329,0.0
147,1435993162350,0.0
148,1435993162371,0.0
149,1435993162391,0.0
150,1435993162413,0.0
151,1435993162431,0.0
152,1435993162452,0.0
153,1435993162470,0.0
154,1435993162490,0.0
155,1435993162511,0.0
156,1435993162531,0.0
157,1435993162551,0.0
158,1435993162582,0.0
159,1435993162594,0.0
160,1435993162614,0.0
161,1435993162631,0.0
162,1435993162654,0.0
163,1435993162674,0.0
164,1435993162694,0.0
165,1435993162714,0.0
166,1435993162734,0.0
167,1435993162753,0.0
168,1435993162773,0.0
169,1435993162793,0.0
170,1435993162812,0.0
171,1435993162832,0.0
172,1435993162852,0.0
173,1435993162876,0.0
174,1435993162892,0.0
175,1435993162917,0.0
176,1435993162934,0.0
177,1435993162952,0.0
178,1435993162971,0.0
179,1435993162992,0.0
180,1435993163013,0.0
181,1435993163057,0.0
182,1435993163058,0.0
183,1435993163097,0.0
184,1435993163098,0.0
185,1435993163111,0.0
186,1435993163131,0.0
187,1435993163153,0.0
188,1435993163173,0.0
189,1435993163194,0.0
190,1435993163213,0.0
191,1435993163234,0.0
192,1435993163254,0.0
193,1435993163274,0.0
194,1435993163292,0.0
195,1435993163314,0.0
196,1435993163335,0.0
197,1435993163355,0.0
198,1435993163375,0.0
199,1435993163396,0.0
200,1435993163416,0.0
201,1435993163435,0.0
202,1435993163453,0.0
203,1435993163473,0.0
204,1435993163492,0.0
205,1435993163513,0.0
206,1435993163532,0.0
207,1435993163553,0.0
208,1435993163572,0.0
209,1435993163595,0.0
210,1435993163612,0.0
211,1435993163632,0.0
212,1435993163653,0.0
213,1435993163675,0.0
214,1435993163692,0.0
215,1435993163734,0.0
216,1435993163735,0.0
217,1435993163751,0.0
218,1435993163772,0.0
219,1435993163791,0.0
220,1435993163811,0.0
221,1435993163834,0.0
222,1435993163856,0.0
223,1435993163872,0.0
224,1435993163895,0.0
225,1435993163915,0.0
226,1435993163934,0.0
227,1435993163953,0.0
228,1435993163975,0.0
229,1435993163995,0.0
230,1435993164016,0.0
231,1435993164035,0.0
232,1435993164053,0.0
233,1435993164074,0.0
234,1435993164106,0.0
235,1435993164129,0.0
236,1435993164131,0.0
237,1435993164156,0.0
238,1435993164177,0.0
239,1435993164195,0.0
240,1435993164215,0.0
241,1435993164236,0.0
242,1435993164256,0.0
243,1435993164276,0.0
244,1435993164295,0.0
245,1435993164316,0.0
246,1435993164333,0.0
247,1435993164355,0.0
248,1435993164383,0.0
249,1435993164450,0.0
250,1435993164451,0.0
251,1435993164452,0.0
252,1435993164453,0.0
253,1435993164473,0.0
254,1435993164494,0.0
255,1435993164515,0.0
256,1435993164533,0.0
257,1435993164554,0.0
258,1435993164576,0.0
259,1435993164596,0.0
260,1435993164616,0.0
261,1435993164638,0.0
262,1435993164655,0.0
263,1435993164676,0.0
264,1435993164696,0.0
265,1435993164716,0.0
266,1435993164736,0.0
267,1435993164759,0.0
268,1435993164773,0.0
269,1435993164796,0.0
270,1435993164815,0.0
271,1435993164835,0.0
272,1435993164855,0.0
273,1435993164876,0.0
274,1435993164896,0.0
275,1435993164917,0.0
276,1435993164936,0.0
277,1435993164956,0.0
278,1435993164976,0.0
279,1435993164996,0.0
280,1435993165015,0.0
281,1435993165034,0.0
282,1435993165105,0.0
283,1435993165106,0.0
284,1435993165107,0.0
285,1435993165114,0.0
286,1435993165135,0.0
287,1435993165154,0.0
288,1435993165174,0.0
289,1435993165193,0.0
290,1435993165214,0.0
291,1435993165236,0.0
292,1435993165256,0.0
293,1435993165276,0.0
294,1435993165296,0.0
295,1435993165322,0.0
296,1435993165337,0.0
297,1435993165358,0.0
298,1435993165386,0.0
299,1435993165395,0.0
300,1435993165416,0.0
301,1435993165439,0.0
302,1435993165455,0.0
303,1435993165476,0.0
304,1435993165494,0.0
305,1435993165516,0.0
306,1435993165535,0.0
307,1435993165554,0.0
308,1435993165573,0.0
309,1435993165593,0.0
310,1435993165613,0.0
311,1435993165635,0.0
312,1435993165654,0.0
313,1435993165674,0.0
314,1435993165694,0.0
315,1435993165780,0.0
316,1435993165781,0.0
317,1435993165782,0.0
318,1435993165783,0.0
319,1435993165802,0.0
320,1435993165813,0.0
321,1435993165836,0.0
322,1435993165855,0.0
323,1435993165875,0.0
324,1435993165894,0.0
325,1435993165915,0.0
326,1435993165936,0.0
327,1435993165956,0.0
328,1435993165975,0.0
329,1435993165997,0.0
330,1435993166017,0.0
331,1435993166035,0.0
332,1435993166054,0.0
333,1435993166075,0.0
334,1435993166094,0.0
335,1435993166114,0.0
336,1435993166138,0.0
337,1435993166158,0.0
338,1435993166202,0.0
339,1435993166203,0.0
340,1435993166218,0.0
341,1435993166236,0.0
342,1435993166257,0.0
343,1435993166276,0.0
344,1435993166300,0.0
345,1435993166320,0.0
346,1435993166340,0.0
347,1435993166355,0.0
348,1435993166376,0.0
349,1435993166421,0.0
350,1435993166422,0.0
351,1435993166435,0.0
352,1435993166454,0.0
353,1435993166474,0.0
354,1435993166496,0.0
355,1435993166515,0.0
356,1435993166536,0.0
357,1435993166555,0.0
358,1435993166577,0.0
359,1435993166596,0.0
360,1435993166618,0.0
361,1435993166638,0.0
362,1435993166657,0.0
363,1435993166678,0.0
364,1435993166697,0.0
365,1435993166718,0.0
366,1435993166738,0.0
367,1435993166758,0.0
368,1435993166783,0.0
369,1435993166797,0.0
370,1435993166818,0.0
371,1435993166838,0.0
372,1435993166858,0.0
373,1435993166877,0.0
374,1435993166896,0.0
375,1435993166917,0.0
376,1435993166938,0.0
377,1435993166958,0.0
378,1435993166978,0.0
379,1435993166997,0.0
380,1435993167016,0.0
381,1435993167046,0.0
382,1435993167096,0.0
383,1435993167097,0.0
384,1435993167098,0.0
385,1435993167114,0.0
386,1435993167134,0.0
387,1435993167156,0.0
388,1435993167176,0.0
389,1435993167195,0.0
390,1435993167216,0.0
391,1435993167239,0.0
392,1435993167259,0.0
393,1435993167275,0.0
394,1435993167296,0.0
395,1435993167316,0.0
396,1435993167342,0.0
397,1435993167364,0.0
398,1435993167411,0.0
399,1435993167412,0.0
400,1435993167414,0.0
401,1435993167434,0.0
402,1435993167454,0.0
403,1435993167474,0.0
404,1435993167494,0.0
405,1435993167514,0.0
406,1435993167534,0.0
407,1435993167554,0.0
408,1435993167576,0.0
409,1435993167597,0.0
410,1435993167617,0.0
411,1435993167637,0.0
412,1435993167657,0.0
413,1435993167677,0.0
414,1435993167702,0.0
415,1435993167767,0.0
416,1435993167768,0.0
417,1435993167769,0.0
418,1435993167776,0.0
419,1435993167796,0.0
420,1435993167815,0.0
421,1435993167836,0.0
422,1435993167856,0.0
423,1435993167877,0.0
424,1435993167899,0.0
425,1435993167917,0.0
426,1435993167937,0.0
427,1435993167956,0.0
428,1435993167979,0.0
429,1435993167996,0.0
430,1435993168016,0.0
431,1435993168036,0.0
432,1435993168056,0.0
433,1435993168076,0.0
434,1435993168099,0.0
435,1435993168117,0.0
436,1435993168137,0.0
437,1435993168159,0.0
438,1435993168179,0.0
439,1435993168197,0.0
440,1435993168219,0.0
441,1435993168240,0.0
442,1435993168262,0.0
443,1435993168277,0.0
444,1435993168299,0.0
445,1435993168317,0.0
446,1435993168339,0.0
447,1435993168428,0.0
448,1435993168431,0.0
449,1435993168432,0.0
450,1435993168433,0.0
451,1435993168438,0.0
452,1435993168458,0.0
453,1435993168475,0.0
454,1435993168495,0.0
455,1435993168516,0.0
456,1435993168536,0.0
457,1435993168556,0.0
458,1435993168578,0.0
459,1435993168600,0.0
460,1435993168619,0.0
461,1435993168637,0.0
462,1435993168659,0.0
463,1435993168680,0.0
464,1435993168700,0.0
465,1435993168720,0.0
466,1435993168738,0.0
467,1435993168759,0.0
468,1435993168780,0.0
469,1435993168800,0.0
470,1435993168823,0.0
471,1435993168839,0.0
472,1435993168931,0.0
473,1435993168932,0.0
474,1435993168933,0.0
475,1435993168934,0.0
476,1435993168948,0.0
477,1435993168956,0.0
478,1435993168976,0.0
479,1435993168997,0.0
480,1435993169016,0.0
481,1435993169036,0.0
482,1435993169056,0.0
483,1435993169077,0.0
484,1435993169097,0.0
485,1435993169116,0.0
486,1435993169137,0.0
487,1435993169160,0.0
488,1435993169178,0.0
489,1435993169199,0.0
490,1435993169218,0.0
491,1435993169238,0.0
492,1435993169260,0.0
493,1435993169278,0.0
494,1435993169300,0.0
495,1435993169320,0.0
496,1435993169337,0.0
497,1435993169360,0.0
498,1435993169377,0.0
499,1435993169399,0.0
500,1435993169417,0.0
501,1435993169439,0.0
502,1435993169468,0.0
503,1435993169477,0.0
504,1435993169497,0.0
505,1435993169523,0.0
506,1435993169539,0.0
507,1435993169558,0.0
508,1435993169581,0.0
509,1435993169601,0.0
510,1435993169650,0.0
511,1435993169651,0.0
512,1435993169664,0.0
513,1435993169681,0.0
514,1435993169700,0.0
515,1435993169717,0.0
516,1435993169740,0.0
517,1435993169758,0.0
518,1435993169779,0.0
519,1435993169800,0.0
520,1435993169822,0.0
521,1435993169840,0.0
522,1435993169861,0.0
523,1435993169880,0.0
524,1435993169901,0.0
525,1435993169920,0.0
526,1435993169941,0.0
527,1435993169962,0.0
528,1435993169979,0.0
529,1435993169998,0.0
530,1435993170018,0.0
531,1435993170038,0.0
532,1435993170058,0.0
533,1435993170079,0.0
534,1435993170103,0.0
535,1435993170124,0.0
536,1435993170144,0.0
537,1435993170161,0.0
538,1435993170179,0.0
539,1435993170198,0.0
540,1435993170220,0.0
541,1435993170248,0.0
542,1435993170310,0.0
543,1435993170311,0.0
544,1435993170312,0.0
545,1435993170325,0.0
546,1435993170337,0.0
547,1435993170357,0.0
548,1435993170382,0.0
549,1435993170398,0.0
550,1435993170419,0.0
551,1435993170443,0.0
552,1435993170460,0.0
553,1435993170486,0.0
554,1435993170498,0.0
555,1435993170519,0.0
556,1435993170538,0.0
557,1435993170560,0.0
558,1435993170579,0.0
559,1435993170602,0.0
560,1435993170623,0.0
561,1435993170639,0.0
562,1435993170662,0.0
563,1435993170681,0.0
564,1435993170702,0.0
565,1435993170721,0.0
566,1435993170749,0.0
567,1435993170759,0.0
568,1435993170779,0.0
569,1435993170800,0.0
570,1435993170818,0.0
571,1435993170840,0.0
572,1435993170859,0.0
573,1435993170879,0.0
574,1435993170931,0.0
575,1435993170932,0.0
576,1435993170939,0.0
577,1435993170961,0.0
578,1435993170978,0.0
579,1435993170998,0.0
580,1435993171018,0.0
581,1435993171038,0.0
582,1435993171059,0.0
583,1435993171081,0.0
584,1435993171103,0.0
585,1435993171125,0.0
586,1435993171142,0.0
587,1435993171161,0.0
588,1435993171182,0.0
589,1435993171202,0.0
590,1435993171223,0.0
591,1435993171243,0.0
592,1435993171260,0.0
593,1435993171282,0.0
594,1435993171301,0.0
595,1435993171322,0.0
596,1435993171341,0.0
597,1435993171362,0.0
598,1435993171381,0.0
599,1435993171402,0.0
600,1435993171423,0.0
601,1435993171442,0.0
602,1435993171462,0.0
603,1435993171492,0.0
604,1435993171499,0.0
605,1435993171546,0.0
606,1435993171547,0.0
607,1435993171559,0.0
608,1435993171578,0.0
609,1435993171598,0.0
610,1435993171618,0.0
611,1435993171641,0.0
612,1435993171659,0.0
613,1435993171683,0.0
614,1435993171702,0.0
615,1435993171722,0.0
616,1435993171742,0.0
617,1435993171760,0.0
618,1435993171783,0.0
619,1435993171803,0.0
620,1435993171824,0.0
621,1435993171840,0.0
622,1435993171862,0.0
623,1435993171880,0.0
624,1435993171908,0.0
625,1435993171920,0.0
626,1435993171944,0.0
627,1435993171984,0.0
628,1435993171985,0.0
629,1435993172012,0.0
630,1435993172019,0.0
631,1435993172056,0.0
632,1435993172059,0.0
633,1435993172080,0.0
634,1435993172098,0.0
635,1435993172118,0.0
636,1435993172141,0.0
637,1435993172171,0.0
638,1435993172180,0.0
639,1435993172202,0.0
640,1435993172221,0.0
641,1435993172241,0.0
642,1435993172261,0.0
643,1435993172280,0.0
644,1435993172300,0.0
645,1435993172323,0.0
646,1435993172348,0.0
647,1435993172363,0.0
648,1435993172383,0.0
649,1435993172403,0.0
650,1435993172423,0.0
651,1435993172443,0.0
652,1435993172463,0.0
653,1435993172484,0.0
654,1435993172502,0.0
655,1435993172523,0.0
656,1435993172546,0.0
657,1435993172564,0.0
658,1435993172584,0.0
659,1435993172600,0.0
660,1435993172623,0.0
661,1435993172645,0.0
662,1435993172664,0.0
663,1435993172685,0.0
664,1435993172703,0.0
665,1435993172723,0.0
666,1435993172743,0.0
667,1435993172763,0.0
668,1435993172843,0.0
669,1435993172844,0.0
670,1435993172845,0.0
671,1435993172846,0.0
672,1435993172860,0.0
673,1435993172881,0.0
674,1435993172902,0.0
675,1435993172921,0.0
676,1435993172940,0.0
677,1435993172962,0.0
678,1435993172984,0.0
679,1435993173002,0.0
680,1435993173025,0.0
681,1435993173044,0.0
682,1435993173063,0.0
683,1435993173084,0.0
684,1435993173104,0.0
685,1435993173123,0.0
686,1435993173144,0.0
687,1435993173165,0.0
688,1435993173182,0.0
689,1435993173204,0.0
690,1435993173223,0.0
691,1435993173243,0.0
692,1435993173263,0.0
693,1435993173284,0.0
694,1435993173304,0.0
695,1435993173324,0.0
696,1435993173344,0.0
697,1435993173364,0.0
698,1435993173384,0.0
699,1435993173404,0.0
700,1435993173423,0.0
701,1435993173442,0.0
702,1435993173523,0.0
703,1435993173524,0.0
704,1435993173525,0.0
705,1435993173526,0.0
706,1435993173545,0.0
707,1435993173560,0.0
708,1435993173580,0.0
709,1435993173600,0.0
710,1435993173624,0.0
711,1435993173644,0.0
712,1435993173664,0.0
713,1435993173684,0.0
714,1435993173705,0.0
715,1435993173725,0.0
716,1435993173745,0.0
717,1435993173764,0.0
718,1435993173784,0.0
719,1435993173804,0.0
720,1435993173822,0.0
721,1435993173844,0.0
722,1435993173864,0.0
723,1435993173883,0.0
724,1435993173902,0.0
725,1435993173924,0.0
726,1435993173946,0.0
727,1435993173967,0.0
728,1435993173987,0.0
729,1435993174005,0.0
730,1435993174023,0.0
731,1435993174044,0.0
732,1435993174062,0.0
733,1435993174084,0.0
734,1435993174145,0.0
735,1435993174146,0.0
736,1435993174147,0.0
737,1435993174171,0.0
738,1435993174182,0.0
739,1435993174203,0.0
740,1435993174224,0.0
741,1435993174243,0.0
742,1435993174263,0.0
743,1435993174285,0.0
744,1435993174305,0.0
745,1435993174325,0.0
746,1435993174346,0.0
747,1435993174365,0.0
748,1435993174385,0.0
749,1435993174405,0.0
750,1435993174425,0.0
751,1435993174445,0.0
752,1435993174465,0.0
753,1435993174483,0.0
754,1435993174504,0.0
755,1435993174523,0.0
756,1435993174545,0.0
757,1435993174564,0.0
758,1435993174584,0.0
759,1435993174606,0.0
760,1435993174626,0.0
761,1435993174647,0.0
762,1435993174664,0.0
763,1435993174685,0.0
764,1435993174705,0.0
765,1435993174725,0.0
766,1435993174743,0.0
767,1435993174825,0.0
768,1435993174826,0.0
769,1435993174827,0.0
770,1435993174828,0.0
771,1435993174841,0.0
772,1435993174862,0.0
773,1435993174881,0.0
774,1435993174905,0.0
775,1435993174924,0.0
776,1435993174943,0.0
777,1435993174962,0.0
778,1435993174982,0.0
779,1435993175005,0.0
780,1435993175023,0.0
781,1435993175044,0.0
782,1435993175065,0.0
783,1435993175086,0.0
784,1435993175106,0.0
785,1435993175127,0.0
786,1435993175146,0.0
787,1435993175165,0.0
788,1435993175183,0.0
789,1435993175203,0.0
790,1435993175224,0.0
791,1435993175249,0.0
792,1435993175269,0.0
793,1435993175289,0.0
794,1435993175307,0.0
795,1435993175346,0.0
796,1435993175347,0.0
797,1435993175363,0.0
798,1435993175385,0.0
799,1435993175406,0.0
800,1435993175444,0.0
801,1435993175445,0.0
802,1435993175462,0.0
803,1435993175484,0.0
804,1435993175504,0.0
805,1435993175523,0.0
806,1435993175543,0.0
807,1435993175563,0.0
808,1435993175586,0.0
809,1435993175606,0.0
810,1435993175626,0.0
811,1435993175646,0.0
812,1435993175666,0.0
813,1435993175686,0.0
814,1435993175706,0.0
815,1435993175726,0.0
816,1435993175747,0.0
817,1435993175766,0.0
818,1435993175785,0.0
819,1435993175806,0.0
820,1435993175826,0.0
821,1435993175846,0.0
822,1435993175865,0.0
823,1435993175886,0.0
824,1435993175921,0.0
825,1435993175940,0.0
826,1435993175946,0.0
827,1435993175964,0.0
828,1435993175983,0.0
829,1435993176005,0.0
830,1435993176024,0.0
831,1435993176043,0.0
832,1435993176109,0.0
833,1435993176110,0.0
834,1435993176111,0.0
835,1435993176125,0.0
836,1435993176144,0.0
837,1435993176163,0.0
838,1435993176206,0.0
839,1435993176207,0.0
840,1435993176224,0.0
841,1435993176244,0.0
842,1435993176266,0.0
843,1435993176287,0.0
844,1435993176306,0.0
845,1435993176327,0.0
846,1435993176347,0.0
847,1435993176367,0.0
848,1435993176386,0.0
849,1435993176407,0.0
850,1435993176427,0.0
851,1435993176447,0.0
852,1435993176465,0.0
853,1435993176486,0.0
854,1435993176507,0.0
855,1435993176527,0.0
856,1435993176546,0.0
857,1435993176567,0.0
858,1435993176587,0.0
859,1435993176607,0.0
860,1435993176628,0.0
861,1435993176647,0.0
862,1435993176667,0.0
863,1435993176686,0.0
864,1435993176707,0.0
865,1435993176734,0.0
866,1435993176787,0.0
867,1435993176788,0.0
868,1435993176789,0.0
869,1435993176803,0.0
870,1435993176825,0.0
871,1435993176845,0.0
872,1435993176864,0.0
873,1435993176885,0.0
874,1435993176905,0.0
875,1435993176927,0.0
876,1435993176947,0.0
877,1435993176967,0.0
878,1435993176986,0.0
879,1435993177006,0.0
880,1435993177027,0.0
881,1435993177047,0.0
882,1435993177068,0.0
883,1435993177085,0.0
884,1435993177107,0.0
885,1435993177125,0.0
886,1435993177147,0.0
887,1435993177168,0.0
888,1435993177185,0.0
889,1435993177207,0.0
890,1435993177228,0.0
891,1435993177248,0.0
892,1435993177268,0.0
893,1435993177289,0.0
894,1435993177307,0.0
895,1435993177328,0.0
896,1435993177345,0.0
897,1435993177367,0.0
898,1435993177386,0.0
899,1435993177456,0.0
900,1435993177457,0.0
901,1435993177458,0.0
902,1435993177468,0.0
903,1435993177485,0.0
904,1435993177506,0.0
905,1435993177527,0.0
906,1435993177546,0.0
907,1435993177565,0.0
908,1435993177589,0.0
909,1435993177606,0.0
910,1435993177627,0.0
911,1435993177647,0.0
912,1435993177668,0.0
