id,attr_time,attr_x,attr_y,attr_z
1,1436375913620,-0.569,-39.961,-23.356
2,1436375913639,-0.569,-39.961,-23.356
3,1436375913662,-0.569,-39.961,-23.356
4,1436375913676,-0.569,-39.961,-23.356
5,1436375913699,-0.569,-39.961,-23.356
6,1436375913717,-0.569,-39.961,-23.356
7,1436375913740,-0.569,-39.961,-23.356
8,1436375913759,-0.569,-39.961,-23.356
9,1436375913812,-0.569,-39.961,-23.356
10,1436375913813,-0.238,-39.961,-23.356
11,1436375913832,-0.238,-39.961,-23.356
12,1436375913838,-0.238,-39.961,-23.356
13,1436375913857,-0.238,-40.309,-23.356
14,1436375913880,-0.238,-40.309,-23.356
15,1436375913897,-0.238,-40.309,-23.356
16,1436375913920,0.12,-40.309,-23.356
17,1436375913940,0.12,-40.309,-23.356
18,1436375913957,0.12,-40.309,-23.356
19,1436375913988,0.12,-40.309,-23.356
20,1436375914000,0.12,-40.309,-23.356
21,1436375914026,0.12,-40.309,-23.356
22,1436375914038,0.12,-40.309,-23.049
23,1436375914060,0.12,-40.309,-23.049
24,1436375914080,0.12,-40.309,-23.049
25,1436375914101,0.12,-40.309,-23.049
26,1436375914120,0.12,-40.309,-23.049
27,1436375914141,0.43,-40.309,-23.049
28,1436375914160,0.43,-40.309,-23.049
29,1436375914181,0.43,-40.309,-23.049
30,1436375914200,0.43,-40.309,-23.049
31,1436375914221,0.43,-40.309,-23.049
32,1436375914241,0.43,-40.309,-23.049
33,1436375914259,0.43,-40.309,-23.049
34,1436375914278,0.43,-40.309,-23.049
35,1436375914298,0.43,-40.309,-23.049
36,1436375914318,0.43,-40.309,-23.049
37,1436375914341,0.43,-40.309,-23.049
38,1436375914360,0.43,-40.309,-23.049
39,1436375914380,0.43,-40.309,-23.049
40,1436375914400,0.43,-40.309,-23.049
41,1436375914421,0.736,-40.309,-23.049
42,1436375914440,0.736,-40.309,-23.049
43,1436375914460,0.736,-40.309,-23.049
44,1436375914486,0.736,-40.309,-23.049
45,1436375914586,0.736,-40.309,-23.049
46,1436375914587,0.736,-40.309,-23.049
47,1436375914588,0.736,-40.309,-23.049
48,1436375914589,0.736,-40.309,-23.049
49,1436375914590,0.736,-40.309,-23.049
50,1436375914607,0.736,-40.309,-23.049
51,1436375914618,0.736,-40.309,-23.049
52,1436375914638,0.736,-40.309,-23.049
53,1436375914661,0.736,-40.309,-23.049
54,1436375914678,0.736,-40.309,-23.049
55,1436375914698,0.736,-40.309,-23.049
56,1436375914718,0.736,-40.309,-23.049
57,1436375914741,0.736,-40.309,-23.049
58,1436375914763,0.431,-40.309,-23.049
59,1436375914778,0.431,-40.309,-23.049
60,1436375914800,0.431,-40.309,-23.049
61,1436375914821,0.431,-40.309,-23.049
62,1436375914841,0.431,-40.309,-23.049
63,1436375914862,0.431,-40.309,-23.049
64,1436375914881,0.431,-40.309,-23.049
65,1436375914901,0.431,-40.309,-23.049
66,1436375914921,0.431,-40.309,-23.049
67,1436375914941,0.431,-40.309,-23.049
68,1436375914962,0.431,-40.309,-23.049
69,1436375914981,0.431,-40.309,-23.049
70,1436375914998,0.431,-40.309,-23.049
71,1436375915021,0.431,-40.309,-23.049
72,1436375915040,0.431,-40.309,-23.049
73,1436375915062,0.431,-40.309,-23.049
74,1436375915081,0.431,-40.309,-23.049
75,1436375915101,0.431,-40.309,-23.049
76,1436375915121,0.122,-40.309,-23.049
77,1436375915142,0.122,-40.309,-23.049
78,1436375915161,0.122,-40.309,-23.049
79,1436375915182,0.122,-40.309,-23.049
80,1436375915202,0.122,-40.309,-23.049
81,1436375915221,0.122,-40.309,-23.049
82,1436375915239,0.122,-40.309,-23.049
83,1436375915260,0.122,-40.309,-23.049
84,1436375915319,0.122,-40.309,-23.049
85,1436375915320,0.122,-40.309,-23.049
86,1436375915331,0.122,-40.309,-23.049
87,1436375915340,-0.209,-40.309,-23.049
88,1436375915368,-0.209,-40.309,-23.049
89,1436375915382,-0.209,-40.309,-23.049
90,1436375915398,-0.209,-40.309,-23.049
91,1436375915418,-0.209,-40.309,-23.049
92,1436375915439,-0.209,-40.309,-23.049
93,1436375915461,-0.209,-40.309,-23.049
94,1436375915480,-0.209,-40.309,-23.049
95,1436375915504,-0.209,-40.309,-23.049
96,1436375915520,-0.209,-40.309,-23.049
97,1436375915541,-0.209,-40.309,-23.049
98,1436375915559,-0.209,-40.309,-23.049
99,1436375915582,-0.209,-40.309,-23.049
100,1436375915602,-0.209,-40.309,-23.049
101,1436375915622,-0.209,-40.309,-23.049
102,1436375915642,-0.209,-40.309,-23.049
103,1436375915662,-0.209,-40.309,-23.049
104,1436375915682,-0.209,-40.309,-23.049
105,1436375915702,-0.209,-40.309,-23.049
106,1436375915722,-0.209,-40.309,-23.049
107,1436375915739,-0.209,-40.309,-23.049
108,1436375915762,-0.209,-40.309,-23.049
109,1436375915782,-0.209,-40.309,-23.049
110,1436375915801,-0.209,-40.309,-23.049
111,1436375915822,-0.209,-40.309,-23.049
112,1436375915842,-0.209,-40.309,-23.049
113,1436375915862,-0.209,-40.309,-23.049
114,1436375915880,-0.209,-40.309,-23.049
115,1436375915903,-0.209,-40.309,-23.049
116,1436375915924,-0.209,-40.309,-23.049
117,1436375915943,-0.209,-40.309,-23.049
118,1436375915963,-0.209,-40.309,-23.049
119,1436375916066,-0.209,-40.309,-23.049
120,1436375916080,-0.209,-40.309,-23.049
121,1436375916081,-0.209,-40.309,-23.049
122,1436375916082,-0.209,-40.309,-23.049
123,1436375916083,-0.209,-40.309,-23.049
124,1436375916084,-0.209,-40.309,-23.049
125,1436375916103,-0.209,-40.309,-23.049
126,1436375916123,-0.209,-40.309,-23.049
127,1436375916139,-0.209,-40.309,-23.049
128,1436375916164,-0.209,-40.309,-23.049
129,1436375916188,-0.209,-40.309,-23.049
130,1436375916202,-0.209,-40.309,-23.049
131,1436375916231,-0.209,-40.309,-23.049
132,1436375916239,-0.209,-40.309,-23.049
133,1436375916263,-0.209,-40.309,-23.049
134,1436375916282,-0.209,-40.309,-23.049
135,1436375916302,-0.209,-40.309,-23.049
136,1436375916322,-0.209,-40.309,-23.049
137,1436375916342,-0.209,-40.309,-23.049
138,1436375916362,-0.209,-40.309,-23.049
139,1436375916382,-0.209,-40.309,-23.049
140,1436375916399,-0.209,-40.309,-23.356
141,1436375916420,-0.209,-40.309,-23.356
142,1436375916439,-0.209,-40.309,-23.356
143,1436375916469,-0.209,-40.309,-23.356
144,1436375916480,-0.209,-40.309,-23.356
145,1436375916510,-0.209,-40.309,-23.356
146,1436375916520,-0.209,-40.309,-23.356
147,1436375916541,-0.209,-40.309,-23.356
148,1436375916560,-0.209,-40.309,-23.356
149,1436375916584,-0.209,-40.309,-23.356
150,1436375916897,-0.209,-40.309,-23.356
151,1436375916913,-0.209,-40.309,-23.356
152,1436375916914,-0.209,-40.309,-23.356
153,1436375916915,-0.209,-40.309,-23.356
154,1436375916916,-0.209,-40.309,-23.356
155,1436375916917,-0.209,-40.309,-23.356
156,1436375916918,-0.209,-40.309,-23.356
157,1436375916919,0.094,-40.309,-23.356
158,1436375916920,0.094,-40.309,-23.356
159,1436375916921,0.094,-40.309,-23.356
160,1436375916922,0.094,-40.309,-23.356
161,1436375916923,0.094,-40.309,-23.356
162,1436375916924,0.094,-40.309,-23.356
163,1436375916925,0.094,-40.309,-23.356
164,1436375916926,0.094,-40.309,-23.356
165,1436375916927,0.094,-40.309,-23.356
166,1436375916928,0.094,-40.309,-23.356
167,1436375916955,0.094,-40.309,-23.356
168,1436375916970,0.094,-40.309,-23.356
169,1436375916979,0.094,-40.309,-23.356
170,1436375917002,0.094,-40.309,-23.356
171,1436375917020,0.094,-40.309,-23.356
172,1436375917041,0.094,-40.309,-23.356
173,1436375917064,0.094,-40.309,-23.356
174,1436375917085,0.405,-40.309,-23.356
175,1436375917104,0.405,-40.309,-23.356
176,1436375917122,0.405,-40.309,-23.356
177,1436375917140,0.405,-40.309,-23.356
178,1436375917160,0.405,-40.309,-23.356
179,1436375917182,0.405,-40.309,-23.356
180,1436375917206,0.405,-40.309,-23.356
181,1436375917225,0.405,-40.309,-23.356
182,1436375917243,0.405,-40.309,-23.356
183,1436375917264,0.405,-40.309,-23.356
184,1436375917282,0.405,-40.309,-23.356
185,1436375917300,0.405,-40.309,-23.356
186,1436375917322,0.405,-40.309,-23.356
187,1436375917345,0.405,-40.309,-23.356
188,1436375917366,0.405,-40.309,-23.356
189,1436375917386,0.405,-40.309,-23.356
190,1436375917402,0.405,-40.625,-23.356
191,1436375917438,0.405,-40.625,-23.356
192,1436375917447,0.405,-40.625,-23.356
193,1436375917482,0.405,-40.625,-23.356
194,1436375917483,0.405,-40.625,-23.356
195,1436375917501,0.405,-40.625,-23.356
196,1436375917535,0.405,-40.625,-23.356
197,1436375917541,0.405,-40.625,-23.356
198,1436375917561,0.405,-40.625,-23.356
199,1436375917581,0.405,-40.625,-23.356
200,1436375917601,0.405,-40.625,-23.356
201,1436375917624,0.405,-40.625,-23.356
202,1436375917644,0.405,-40.625,-23.356
203,1436375917663,0.405,-40.625,-23.356
204,1436375917683,0.405,-40.625,-23.356
205,1436375917704,0.405,-40.625,-23.356
206,1436375917724,0.405,-40.625,-23.356
207,1436375917744,0.405,-40.625,-23.356
208,1436375917762,0.405,-40.625,-23.356
209,1436375917784,0.405,-40.625,-23.356
210,1436375917805,0.405,-40.625,-23.356
211,1436375917822,0.405,-40.625,-23.356
212,1436375917844,0.405,-40.625,-23.356
213,1436375917864,0.405,-40.625,-23.356
214,1436375917885,0.405,-40.625,-23.356
215,1436375917905,0.405,-40.625,-23.356
216,1436375917924,0.405,-40.625,-23.356
217,1436375917943,0.405,-40.625,-23.356
218,1436375917963,0.405,-40.625,-23.356
219,1436375917983,0.405,-40.625,-23.356
220,1436375918006,0.405,-40.625,-23.356
221,1436375918026,0.405,-40.625,-23.356
222,1436375918046,0.405,-40.625,-23.356
223,1436375918064,0.405,-40.625,-23.356
224,1436375918083,0.405,-40.625,-23.356
225,1436375918136,0.405,-40.625,-23.356
226,1436375918137,0.085,-40.625,-23.356
227,1436375918146,0.085,-40.625,-23.356
228,1436375918161,0.085,-40.625,-23.356
229,1436375918182,0.085,-40.625,-23.356
230,1436375918202,0.085,-40.625,-23.356
231,1436375918221,0.085,-40.625,-23.356
232,1436375918241,0.085,-40.625,-23.356
233,1436375918263,0.085,-40.625,-23.356
234,1436375918282,0.085,-40.625,-23.356
235,1436375918302,0.085,-40.625,-23.356
236,1436375918322,0.085,-40.625,-23.356
237,1436375918343,0.085,-40.625,-23.356
238,1436375918363,0.085,-40.625,-23.356
239,1436375918385,0.085,-40.625,-23.356
240,1436375918405,0.085,-40.625,-23.356
241,1436375918425,-0.218,-40.625,-23.356
242,1436375918444,-0.218,-40.324,-23.356
243,1436375918463,-0.218,-40.324,-23.356
244,1436375918483,-0.218,-40.324,-23.356
245,1436375918505,-0.218,-40.324,-23.356
246,1436375918525,-0.218,-40.324,-23.356
247,1436375918545,-0.218,-40.324,-23.356
248,1436375918564,-0.218,-40.324,-23.356
249,1436375918584,-0.218,-40.324,-23.356
250,1436375918604,-0.218,-40.324,-23.356
251,1436375918625,-0.218,-40.324,-23.356
252,1436375918643,-0.218,-40.324,-23.356
253,1436375918665,-0.218,-40.324,-23.356
254,1436375918685,-0.218,-40.324,-23.356
255,1436375918706,-0.218,-40.324,-23.356
256,1436375918725,-0.218,-40.324,-23.356
257,1436375918744,-0.218,-40.324,-23.356
258,1436375918763,-0.218,-40.324,-23.356
259,1436375918783,-0.218,-40.324,-23.356
260,1436375918802,-0.218,-40.324,-23.687
261,1436375918824,-0.218,-40.324,-23.687
262,1436375918877,-0.218,-40.324,-23.687
263,1436375918878,-0.218,-40.324,-23.687
264,1436375918892,-0.218,-40.324,-23.687
265,1436375918902,-0.218,-40.324,-23.687
266,1436375918926,-0.218,-40.324,-23.687
267,1436375918942,-0.218,-40.324,-23.687
268,1436375918962,-0.218,-40.324,-23.687
269,1436375918983,-0.218,-40.324,-23.687
270,1436375919002,-0.218,-40.324,-23.687
271,1436375919023,-0.218,-40.324,-23.687
272,1436375919048,-0.218,-40.324,-23.687
273,1436375919063,-0.218,-40.324,-23.687
274,1436375919085,-0.218,-40.324,-23.687
275,1436375919105,-0.218,-40.324,-23.687
276,1436375919125,-0.218,-40.324,-23.687
277,1436375919145,-0.218,-40.324,-23.687
278,1436375919165,-0.218,-40.324,-23.687
279,1436375919185,-0.218,-40.324,-23.687
280,1436375919205,-0.218,-40.324,-23.687
281,1436375919225,-0.218,-40.324,-23.687
282,1436375919246,-0.218,-40.324,-23.687
283,1436375919265,-0.218,-40.324,-23.687
284,1436375919283,-0.218,-40.324,-23.687
285,1436375919304,-0.218,-40.324,-23.687
286,1436375919323,-0.218,-40.324,-23.687
287,1436375919345,-0.218,-40.324,-23.687
288,1436375919365,-0.218,-40.324,-23.687
289,1436375919384,-0.218,-40.324,-23.687
290,1436375919404,-0.218,-40.324,-23.687
291,1436375919425,-0.218,-40.324,-23.687
292,1436375919446,-0.218,-40.324,-23.687
293,1436375919463,0.122,-40.324,-23.687
294,1436375919485,0.122,-40.324,-23.687
295,1436375919504,0.122,-40.324,-23.348
296,1436375919524,0.122,-40.324,-23.348
297,1436375919543,0.122,-40.324,-23.348
298,1436375919563,0.122,-40.324,-23.348
299,1436375919617,0.122,-40.324,-23.348
300,1436375919618,0.122,-40.324,-23.348
301,1436375919634,0.122,-40.324,-23.348
302,1436375919643,0.122,-40.324,-23.348
303,1436375919663,0.122,-40.324,-23.348
304,1436375919683,0.122,-40.629,-23.348
305,1436375919718,0.122,-40.629,-23.348
306,1436375919723,0.122,-40.629,-23.348
307,1436375919743,0.122,-40.629,-23.348
308,1436375919793,0.122,-40.629,-23.348
309,1436375919794,0.122,-40.629,-23.348
310,1436375919803,0.122,-40.629,-23.348
311,1436375919825,0.122,-40.629,-23.348
312,1436375919844,0.122,-40.629,-23.348
313,1436375919865,0.122,-40.629,-23.348
314,1436375919885,0.122,-40.629,-23.348
315,1436375919906,0.122,-40.629,-23.348
316,1436375919925,0.122,-40.629,-23.348
317,1436375919945,0.122,-40.629,-23.348
318,1436375919965,0.431,-40.629,-23.348
319,1436375919985,0.431,-40.629,-23.348
320,1436375920007,0.431,-40.629,-23.348
321,1436375920025,0.431,-40.629,-23.348
322,1436375920045,0.431,-40.629,-23.348
323,1436375920067,0.431,-40.629,-23.348
324,1436375920086,0.431,-40.629,-23.348
325,1436375920103,0.431,-40.629,-23.348
326,1436375920123,0.431,-40.629,-23.348
327,1436375920143,0.431,-40.629,-23.348
328,1436375920169,0.431,-40.629,-23.348
329,1436375920185,0.431,-40.629,-23.348
330,1436375920211,0.431,-40.629,-23.348
331,1436375920224,0.431,-40.629,-23.348
332,1436375920244,0.431,-40.629,-23.348
333,1436375920264,0.431,-40.629,-23.348
334,1436375920284,0.431,-40.629,-23.348
335,1436375920304,0.431,-40.629,-23.348
336,1436375920324,0.431,-40.629,-23.348
337,1436375920380,0.431,-40.629,-23.348
338,1436375920381,0.431,-40.629,-23.348
339,1436375920404,0.431,-40.629,-23.348
340,1436375920405,0.431,-40.629,-23.348
341,1436375920424,0.431,-40.629,-23.348
342,1436375920446,0.431,-40.629,-23.348
343,1436375920463,0.431,-40.629,-23.348
344,1436375920483,0.431,-40.629,-23.348
345,1436375920505,0.431,-40.629,-23.348
346,1436375920526,0.125,-40.629,-23.348
347,1436375920545,0.125,-40.629,-23.348
348,1436375920564,0.125,-40.629,-23.348
349,1436375920585,0.125,-40.629,-23.348
350,1436375920605,0.125,-40.629,-23.348
351,1436375920628,0.125,-40.629,-23.348
352,1436375920645,0.125,-40.629,-23.348
353,1436375920667,0.125,-40.629,-23.348
354,1436375920687,0.125,-40.629,-23.348
355,1436375920707,0.125,-40.629,-23.348
356,1436375920727,0.125,-40.629,-23.348
357,1436375920745,0.125,-40.629,-23.348
358,1436375920767,0.125,-40.629,-23.348
359,1436375920785,0.125,-40.629,-23.348
360,1436375920805,0.125,-40.629,-23.348
361,1436375920827,0.125,-40.629,-23.348
362,1436375920844,0.125,-40.629,-23.348
363,1436375920865,0.125,-40.629,-23.348
364,1436375920885,0.125,-40.629,-23.348
365,1436375920908,0.125,-40.629,-23.348
366,1436375920928,0.125,-40.629,-23.348
367,1436375920948,0.125,-40.629,-23.348
368,1436375920965,0.125,-40.629,-23.348
369,1436375920985,0.125,-40.629,-23.348
370,1436375921005,0.125,-40.629,-23.348
371,1436375921025,0.125,-40.629,-23.348
372,1436375921045,0.125,-40.629,-23.348
373,1436375921068,0.125,-40.629,-23.348
374,1436375921118,0.125,-40.629,-23.348
375,1436375921121,0.125,-40.629,-23.348
376,1436375921137,0.125,-40.629,-23.348
377,1436375921144,0.125,-40.629,-23.348
378,1436375921168,0.125,-40.629,-23.348
379,1436375921185,0.125,-40.629,-23.348
380,1436375921204,0.125,-40.629,-23.348
381,1436375921225,0.125,-40.629,-23.348
382,1436375921244,0.125,-40.629,-23.348
383,1436375921265,0.125,-40.629,-23.348
384,1436375921288,0.125,-40.629,-23.348
385,1436375921310,-0.21,-40.324,-23.348
386,1436375921325,-0.21,-40.324,-23.348
387,1436375921344,-0.21,-40.324,-23.348
388,1436375921364,-0.21,-40.324,-23.348
389,1436375921387,-0.21,-40.324,-23.348
390,1436375921405,-0.21,-40.324,-23.348
391,1436375921425,-0.21,-40.324,-23.348
392,1436375921445,-0.21,-40.324,-23.348
393,1436375921465,-0.21,-40.324,-23.348
394,1436375921485,-0.21,-40.324,-23.348
395,1436375921508,-0.21,-40.324,-23.348
396,1436375921528,-0.21,-40.324,-23.348
397,1436375921546,-0.21,-40.324,-23.348
398,1436375921564,-0.21,-40.324,-23.348
399,1436375921585,-0.21,-40.324,-23.348
400,1436375921611,-0.21,-40.324,-23.348
401,1436375921625,-0.21,-40.324,-23.348
402,1436375921646,-0.21,-40.324,-23.045
403,1436375921665,-0.21,-40.324,-23.045
404,1436375921685,-0.21,-40.324,-23.045
405,1436375921711,-0.21,-40.324,-23.045
406,1436375921725,-0.21,-40.324,-23.045
407,1436375921745,-0.21,-40.324,-23.045
408,1436375921766,-0.21,-40.324,-23.045
409,1436375921789,-0.21,-40.324,-23.045
410,1436375921840,-0.21,-40.324,-23.045
411,1436375921841,-0.21,-40.324,-23.045
412,1436375921846,-0.21,-40.324,-23.045
413,1436375921867,-0.21,-40.324,-23.045
414,1436375921886,-0.21,-40.324,-23.045
415,1436375921905,-0.21,-40.324,-23.045
416,1436375921925,-0.21,-40.324,-23.045
417,1436375921945,-0.21,-40.324,-23.045
418,1436375921966,-0.21,-40.324,-23.045
419,1436375921987,0.117,-40.324,-23.045
420,1436375922006,0.117,-40.324,-23.045
421,1436375922028,0.117,-40.324,-23.045
422,1436375922046,0.117,-40.324,-23.045
423,1436375922067,0.117,-40.324,-23.045
424,1436375922088,0.117,-40.324,-23.045
425,1436375922106,0.117,-40.324,-23.045
426,1436375922128,0.117,-40.324,-23.045
427,1436375922148,0.117,-40.324,-23.045
428,1436375922167,0.424,-40.324,-23.045
429,1436375922186,0.424,-40.324,-23.045
430,1436375922208,0.424,-40.324,-23.045
431,1436375922226,0.424,-40.324,-23.045
432,1436375922248,0.424,-40.324,-23.045
433,1436375922272,0.424,-40.324,-23.045
434,1436375922286,0.424,-40.324,-23.045
435,1436375922311,0.424,-40.324,-23.045
436,1436375922332,0.424,-40.324,-23.045
437,1436375922346,0.736,-40.324,-23.045
438,1436375922366,0.736,-40.324,-23.045
439,1436375922385,0.736,-40.324,-22.72
440,1436375922405,0.736,-40.324,-22.72
441,1436375922426,0.736,-40.324,-22.72
442,1436375922447,0.736,-40.324,-22.72
443,1436375922467,0.736,-40.324,-22.72
444,1436375922486,0.736,-40.324,-22.72
445,1436375922507,0.736,-40.324,-22.72
446,1436375922532,0.736,-40.324,-22.72
447,1436375922589,0.736,-40.324,-22.72
448,1436375922590,0.736,-40.324,-22.72
449,1436375922591,0.736,-40.324,-22.72
450,1436375922614,0.736,-40.324,-22.72
451,1436375922625,0.736,-40.324,-22.72
452,1436375922649,0.736,-40.324,-22.72
453,1436375922665,0.736,-40.324,-22.72
454,1436375922686,0.736,-40.324,-22.72
455,1436375922708,0.736,-40.324,-22.72
456,1436375922727,0.736,-40.324,-22.72
457,1436375922746,0.736,-40.324,-22.72
458,1436375922768,0.736,-40.324,-22.72
459,1436375922786,0.736,-40.324,-23.042
460,1436375922806,0.736,-40.324,-23.042
461,1436375922829,0.736,-40.324,-23.042
462,1436375922848,0.736,-40.324,-23.042
463,1436375922869,0.736,-40.324,-23.042
464,1436375922888,0.736,-40.324,-23.042
465,1436375922908,0.736,-40.324,-23.042
466,1436375922929,0.736,-40.324,-23.042
467,1436375922948,0.736,-40.324,-23.042
468,1436375922969,0.736,-40.324,-23.042
469,1436375922986,0.736,-40.324,-23.042
470,1436375923013,0.736,-40.324,-23.042
471,1436375923030,0.736,-40.324,-23.042
472,1436375923048,0.736,-40.324,-23.042
473,1436375923069,0.736,-40.324,-23.042
474,1436375923087,0.736,-40.324,-23.042
475,1436375923120,0.736,-40.324,-23.042
476,1436375923127,0.736,-40.324,-23.042
477,1436375923146,0.736,-40.324,-23.042
478,1436375923166,0.736,-40.324,-23.042
479,1436375923188,0.736,-40.324,-23.042
480,1436375923206,0.433,-40.324,-23.042
481,1436375923229,0.433,-40.324,-23.042
482,1436375923248,0.433,-40.324,-23.042
483,1436375923275,0.433,-40.324,-23.377
484,1436375923334,0.433,-40.324,-23.377
485,1436375923336,0.433,-40.324,-23.377
486,1436375923337,0.433,-40.324,-23.377
487,1436375923349,0.047,-40.324,-23.377
488,1436375923406,0.047,-40.324,-23.377
489,1436375923407,0.047,-40.324,-23.754
490,1436375923408,0.047,-39.952,-23.754
491,1436375923427,-0.292,-39.952,-23.754
492,1436375923446,-0.292,-39.952,-24.171
493,1436375923466,-0.292,-39.952,-24.171
494,1436375923500,-0.292,-39.619,-24.49
495,1436375923518,-0.292,-39.619,-24.49
496,1436375923526,-0.292,-39.619,-25.088
497,1436375923546,-0.63,-39.295,-25.419
498,1436375923566,-0.63,-39.295,-25.985
499,1436375923586,-0.63,-39.295,-25.985
