id,attr_time,attr_light
1,1436966160529,5.0
2,1436966160549,5.0
3,1436966160566,5.0
4,1436966160586,5.0
5,1436966160606,5.0
6,1436966160627,5.0
7,1436966160649,5.0
8,1436966160667,5.0
9,1436966160687,5.0
10,1436966160705,5.0
11,1436966160728,5.0
12,1436966160748,5.0
13,1436966160769,5.0
14,1436966160787,5.0
15,1436966160806,5.0
16,1436966160825,5.0
17,1436966160846,5.0
18,1436966160866,5.0
19,1436966160886,4.0
20,1436966160916,4.0
21,1436966160935,4.0
22,1436966160945,4.0
23,1436966160967,4.0
24,1436966160985,4.0
25,1436966161007,4.0
26,1436966161025,4.0
27,1436966161048,4.0
28,1436966161070,4.0
29,1436966161086,4.0
30,1436966161109,4.0
31,1436966161126,4.0
32,1436966161147,4.0
33,1436966161169,4.0
34,1436966161185,4.0
35,1436966161206,4.0
36,1436966161229,4.0
37,1436966161245,4.0
38,1436966161266,4.0
39,1436966161286,4.0
40,1436966161309,4.0
41,1436966161326,4.0
42,1436966161347,4.0
43,1436966161368,4.0
44,1436966161387,4.0
45,1436966161408,4.0
46,1436966161429,4.0
47,1436966161449,4.0
48,1436966161472,4.0
49,1436966161494,4.0
50,1436966161510,4.0
51,1436966161527,4.0
52,1436966161547,4.0
53,1436966161567,4.0
54,1436966163323,4.0
55,1436966163324,4.0
56,1436966163325,4.0
57,1436966163326,4.0
58,1436966163327,4.0
59,1436966163328,4.0
60,1436966163329,4.0
61,1436966163330,4.0
62,1436966163331,4.0
63,1436966163332,4.0
64,1436966163333,4.0
65,1436966163334,4.0
66,1436966163335,4.0
67,1436966163336,4.0
68,1436966163337,4.0
69,1436966163338,4.0
70,1436966163339,4.0
71,1436966163340,4.0
72,1436966163341,4.0
73,1436966163342,4.0
74,1436966163343,4.0
75,1436966163344,4.0
76,1436966163345,4.0
77,1436966163346,4.0
78,1436966163347,4.0
79,1436966163348,4.0
80,1436966163349,4.0
81,1436966163350,4.0
82,1436966163351,4.0
83,1436966163352,4.0
84,1436966163353,4.0
85,1436966163354,4.0
86,1436966163355,4.0
87,1436966163356,4.0
88,1436966163357,4.0
89,1436966163358,4.0
90,1436966163359,4.0
91,1436966163360,4.0
92,1436966163361,4.0
93,1436966163362,4.0
94,1436966163363,5.0
95,1436966163364,5.0
96,1436966163365,5.0
97,1436966163366,5.0
98,1436966163367,5.0
99,1436966163368,5.0
100,1436966163369,5.0
101,1436966163370,5.0
102,1436966163371,5.0
103,1436966163372,5.0
104,1436966163373,5.0
105,1436966163374,5.0
106,1436966163375,5.0
107,1436966163376,5.0
108,1436966163377,5.0
109,1436966163378,5.0
110,1436966163379,5.0
111,1436966163380,5.0
112,1436966163381,5.0
113,1436966163382,5.0
114,1436966163383,5.0
115,1436966163384,5.0
116,1436966163385,5.0
117,1436966163386,5.0
118,1436966163387,5.0
119,1436966163388,5.0
120,1436966163389,5.0
121,1436966163390,5.0
122,1436966163391,5.0
123,1436966163392,5.0
124,1436966163393,5.0
125,1436966163394,5.0
126,1436966163395,5.0
127,1436966163396,5.0
128,1436966163397,5.0
129,1436966163398,5.0
130,1436966163399,5.0
131,1436966163400,5.0
132,1436966163401,5.0
133,1436966163402,5.0
134,1436966163403,5.0
135,1436966163404,5.0
136,1436966163405,5.0
137,1436966163406,5.0
138,1436966163407,5.0
139,1436966163408,5.0
140,1436966163409,5.0
141,1436966163410,5.0
142,1436966163411,5.0
143,1436966163412,5.0
144,1436966163413,5.0
145,1436966163414,5.0
146,1436966163426,5.0
147,1436966163447,5.0
148,1436966163467,5.0
149,1436966163487,5.0
150,1436966163507,5.0
151,1436966163527,5.0
152,1436966163547,5.0
153,1436966163567,4.0
154,1436966163588,4.0
155,1436966163611,4.0
156,1436966163631,4.0
157,1436966163651,4.0
158,1436966163671,4.0
159,1436966163690,4.0
160,1436966163709,4.0
161,1436966163728,4.0
162,1436966163748,4.0
163,1436966163768,4.0
164,1436966163795,4.0
165,1436966163811,4.0
166,1436966163831,4.0
167,1436966163849,4.0
168,1436966163874,4.0
169,1436966163946,4.0
170,1436966163949,4.0
171,1436966163952,4.0
172,1436966163953,4.0
173,1436966163972,4.0
174,1436966163994,4.0
175,1436966164008,4.0
176,1436966164034,4.0
177,1436966164050,4.0
178,1436966164069,4.0
179,1436966164091,4.0
180,1436966164109,4.0
181,1436966164134,4.0
182,1436966164152,4.0
183,1436966164171,4.0
184,1436966164192,3.0
185,1436966164212,3.0
186,1436966164232,3.0
187,1436966164253,3.0
188,1436966164271,3.0
189,1436966164292,3.0
190,1436966164312,3.0
191,1436966164333,3.0
192,1436966164349,3.0
193,1436966164372,3.0
194,1436966164392,3.0
195,1436966164412,3.0
196,1436966164433,3.0
197,1436966164449,3.0
198,1436966164471,3.0
199,1436966164492,3.0
200,1436966164510,3.0
201,1436966164536,3.0
202,1436966164553,3.0
203,1436966164573,3.0
204,1436966164594,3.0
205,1436966164613,3.0
206,1436966164673,3.0
207,1436966164674,2.0
208,1436966164675,2.0
209,1436966164695,2.0
210,1436966164710,2.0
211,1436966164729,2.0
212,1436966164749,2.0
213,1436966164776,3.0
214,1436966164790,3.0
215,1436966164810,3.0
216,1436966164832,3.0
217,1436966164853,3.0
218,1436966164869,3.0
219,1436966164903,4.0
220,1436966164909,4.0
221,1436966164932,4.0
222,1436966164953,4.0
223,1436966164972,4.0
224,1436966164990,4.0
225,1436966165012,4.0
226,1436966165032,4.0
227,1436966165053,4.0
228,1436966165070,4.0
229,1436966165091,4.0
230,1436966165113,4.0
231,1436966165129,4.0
232,1436966165153,4.0
233,1436966165172,4.0
234,1436966165194,4.0
235,1436966165212,4.0
236,1436966165233,4.0
237,1436966165253,4.0
238,1436966165273,4.0
239,1436966165293,4.0
240,1436966165313,4.0
241,1436966165333,4.0
242,1436966165354,4.0
243,1436966165372,4.0
244,1436966165391,4.0
245,1436966165472,4.0
246,1436966165473,3.0
247,1436966165474,3.0
248,1436966165475,3.0
249,1436966165505,3.0
250,1436966165579,3.0
251,1436966165580,3.0
252,1436966165581,4.0
253,1436966165582,4.0
254,1436966165602,4.0
255,1436966165610,4.0
256,1436966165637,4.0
257,1436966165655,3.0
258,1436966165673,3.0
259,1436966165693,3.0
260,1436966165710,3.0
261,1436966165733,3.0
262,1436966165753,3.0
263,1436966165773,3.0
264,1436966165793,3.0
265,1436966165813,4.0
266,1436966165833,4.0
267,1436966165853,4.0
268,1436966165872,4.0
269,1436966165893,4.0
270,1436966165914,4.0
271,1436966165933,5.0
272,1436966165953,5.0
273,1436966165973,5.0
274,1436966165993,5.0
275,1436966166013,5.0
276,1436966166034,5.0
277,1436966166053,5.0
278,1436966166071,5.0
279,1436966166092,5.0
280,1436966166112,5.0
281,1436966166140,5.0
282,1436966166191,4.0
283,1436966166192,4.0
284,1436966166193,4.0
285,1436966166210,4.0
286,1436966166235,3.0
287,1436966166272,3.0
288,1436966166273,3.0
289,1436966166314,3.0
290,1436966166315,4.0
291,1436966166331,4.0
292,1436966166359,4.0
293,1436966166382,4.0
294,1436966166393,4.0
295,1436966166410,4.0
296,1436966166430,3.0
297,1436966166453,3.0
298,1436966166473,3.0
299,1436966166493,3.0
300,1436966166513,3.0
301,1436966166533,3.0
302,1436966166552,3.0
303,1436966166574,3.0
304,1436966166597,4.0
305,1436966166614,4.0
306,1436966166632,4.0
307,1436966166654,5.0
308,1436966166674,5.0
309,1436966166694,6.0
310,1436966166714,6.0
311,1436966166731,6.0
312,1436966166753,6.0
313,1436966166774,6.0
314,1436966166794,6.0
315,1436966166814,6.0
316,1436966166833,6.0
317,1436966166854,7.0
318,1436966166872,7.0
319,1436966166900,6.0
320,1436966166955,6.0
321,1436966166956,5.0
322,1436966166957,5.0
323,1436966166976,5.0
324,1436966166992,5.0
325,1436966167019,5.0
326,1436966167033,5.0
327,1436966167053,5.0
328,1436966167073,5.0
329,1436966167092,5.0
330,1436966167112,5.0
331,1436966167132,5.0
332,1436966167152,5.0
333,1436966167171,5.0
334,1436966167194,5.0
335,1436966167214,5.0
336,1436966167234,5.0
337,1436966167253,5.0
338,1436966167274,5.0
339,1436966167295,5.0
340,1436966167315,5.0
341,1436966167334,5.0
342,1436966167352,4.0
343,1436966167373,4.0
344,1436966167395,5.0
345,1436966167414,5.0
346,1436966167433,7.0
347,1436966167455,7.0
348,1436966167473,8.0
349,1436966167494,8.0
350,1436966167512,8.0
351,1436966167534,8.0
352,1436966167558,8.0
353,1436966167574,8.0
354,1436966167592,9.0
355,1436966167613,9.0
356,1436966167632,9.0
357,1436966167718,9.0
358,1436966167719,9.0
359,1436966167720,8.0
360,1436966167721,8.0
361,1436966167733,8.0
362,1436966167752,8.0
363,1436966167773,8.0
364,1436966167792,8.0
365,1436966167814,7.0
366,1436966167832,7.0
367,1436966167853,7.0
368,1436966167872,7.0
369,1436966167893,7.0
370,1436966167913,7.0
371,1436966167932,8.0
372,1436966167956,8.0
373,1436966167974,8.0
374,1436966167995,8.0
375,1436966168013,8.0
376,1436966168035,8.0
377,1436966168055,8.0
378,1436966168074,8.0
379,1436966168093,7.0
380,1436966168115,7.0
381,1436966168133,7.0
382,1436966168152,7.0
383,1436966168174,8.0
384,1436966168198,8.0
385,1436966168218,8.0
386,1436966168238,9.0
387,1436966168255,9.0
388,1436966168275,10.0
389,1436966168292,10.0
390,1436966168313,10.0
391,1436966168334,10.0
392,1436966168353,10.0
393,1436966168404,10.0
394,1436966168405,11.0
395,1436966168415,11.0
396,1436966168433,10.0
397,1436966168455,10.0
398,1436966168488,10.0
399,1436966168496,10.0
400,1436966168513,10.0
401,1436966168533,10.0
402,1436966168552,9.0
403,1436966168573,9.0
404,1436966168593,8.0
405,1436966168646,8.0
406,1436966168647,8.0
407,1436966168655,8.0
408,1436966168673,8.0
409,1436966168693,8.0
410,1436966168759,8.0
411,1436966168760,8.0
412,1436966168761,8.0
413,1436966168772,8.0
414,1436966168792,8.0
415,1436966168815,8.0
416,1436966168834,8.0
417,1436966168856,7.0
418,1436966168875,7.0
419,1436966168895,6.0
420,1436966168913,6.0
421,1436966170242,7.0
422,1436966170243,7.0
423,1436966170244,9.0
424,1436966170245,9.0
425,1436966170246,10.0
426,1436966170247,10.0
427,1436966170248,10.0
428,1436966170249,10.0
429,1436966170250,10.0
430,1436966170251,10.0
431,1436966170252,11.0
432,1436966170253,11.0
433,1436966170254,10.0
434,1436966170255,10.0
435,1436966170256,9.0
436,1436966170257,9.0
437,1436966170258,9.0
438,1436966170259,9.0
439,1436966170260,9.0
440,1436966170261,9.0
441,1436966170262,9.0
442,1436966170263,8.0
443,1436966170264,8.0
444,1436966170265,7.0
445,1436966170266,7.0
446,1436966170267,7.0
447,1436966170268,7.0
448,1436966170269,7.0
449,1436966170270,7.0
450,1436966170271,7.0
451,1436966170272,7.0
452,1436966170273,7.0
453,1436966170274,7.0
454,1436966170275,7.0
455,1436966170276,7.0
456,1436966170277,5.0
457,1436966170278,5.0
458,1436966170279,6.0
459,1436966170280,6.0
460,1436966170281,8.0
461,1436966170282,8.0
462,1436966170283,8.0
463,1436966170284,10.0
464,1436966170285,10.0
465,1436966170286,10.0
466,1436966170287,10.0
467,1436966170288,10.0
468,1436966170289,10.0
469,1436966170290,10.0
470,1436966170291,10.0
471,1436966170292,10.0
472,1436966170293,10.0
473,1436966170294,9.0
474,1436966170295,9.0
475,1436966170296,10.0
476,1436966170297,10.0
477,1436966170298,9.0
478,1436966170299,9.0
479,1436966170300,8.0
480,1436966170301,8.0
481,1436966170302,7.0
482,1436966170303,7.0
483,1436966170304,7.0
484,1436966170305,7.0
485,1436966170306,7.0
486,1436966170307,7.0
487,1436966170308,7.0
488,1436966170309,7.0
489,1436966170310,7.0
490,1436966170313,7.0
491,1436966170333,7.0
492,1436966170353,7.0
493,1436966170373,7.0
494,1436966170393,7.0
495,1436966170413,7.0
496,1436966170433,7.0
497,1436966170453,7.0
498,1436966170473,7.0
499,1436966170493,7.0
500,1436966170513,8.0
501,1436966170535,8.0
502,1436966170556,9.0
503,1436966170574,9.0
504,1436966170594,9.0
505,1436966170616,9.0
506,1436966170634,9.0
507,1436966170655,9.0
508,1436966170675,9.0
509,1436966170695,9.0
510,1436966170716,8.0
511,1436966170736,8.0
512,1436966170757,8.0
513,1436966170777,8.0
514,1436966170862,8.0
515,1436966170863,8.0
516,1436966170864,8.0
517,1436966170865,7.0
518,1436966170878,7.0
519,1436966170895,6.0
520,1436966170915,6.0
521,1436966170935,6.0
522,1436966170955,6.0
523,1436966170977,6.0
524,1436966170996,6.0
525,1436966171016,5.0
526,1436966171037,5.0
527,1436966171058,6.0
528,1436966171075,6.0
529,1436966171097,6.0
530,1436966171116,6.0
531,1436966171136,5.0
532,1436966171158,5.0
533,1436966171178,5.0
534,1436966171198,5.0
535,1436966171216,6.0
536,1436966171241,6.0
537,1436966171258,6.0
538,1436966171278,6.0
539,1436966171296,7.0
540,1436966171316,7.0
541,1436966171338,7.0
542,1436966171357,7.0
543,1436966171377,7.0
544,1436966171397,6.0
545,1436966171415,6.0
546,1436966171436,6.0
547,1436966171455,6.0
548,1436966171478,6.0
549,1436966171570,6.0
550,1436966171571,6.0
551,1436966171582,6.0
552,1436966171583,6.0
553,1436966171584,6.0
554,1436966171595,5.0
555,1436966171620,5.0
556,1436966171635,5.0
557,1436966171661,5.0
558,1436966171675,4.0
559,1436966171697,4.0
560,1436966171720,4.0
561,1436966171737,4.0
562,1436966171757,4.0
563,1436966171779,4.0
564,1436966171799,4.0
565,1436966171819,4.0
566,1436966171839,4.0
567,1436966171856,4.0
568,1436966171877,4.0
569,1436966171899,3.0
570,1436966171919,3.0
571,1436966171939,3.0
572,1436966171957,3.0
573,1436966171979,4.0
574,1436966171999,4.0
575,1436966172019,4.0
576,1436966172039,4.0
577,1436966172057,5.0
578,1436966172076,5.0
579,1436966172097,4.0
580,1436966172116,4.0
581,1436966172139,4.0
582,1436966172156,4.0
583,1436966172176,4.0
584,1436966172197,4.0
585,1436966172221,4.0
586,1436966172294,4.0
587,1436966172296,3.0
588,1436966172297,3.0
589,1436966172298,3.0
590,1436966172317,3.0
591,1436966172338,3.0
592,1436966172356,3.0
593,1436966172381,3.0
594,1436966172396,3.0
595,1436966172417,3.0
596,1436966172439,3.0
597,1436966172457,3.0
598,1436966172479,3.0
599,1436966172499,3.0
600,1436966172519,3.0
601,1436966172536,3.0
602,1436966172556,3.0
603,1436966172577,3.0
604,1436966172599,3.0
605,1436966172617,3.0
606,1436966172639,2.0
607,1436966172656,2.0
608,1436966172677,3.0
609,1436966172701,3.0
610,1436966172719,3.0
611,1436966172740,3.0
612,1436966172756,4.0
613,1436966172777,4.0
614,1436966172800,4.0
615,1436966172817,4.0
616,1436966172838,4.0
617,1436966172858,4.0
618,1436966172879,4.0
619,1436966172897,4.0
620,1436966172918,4.0
621,1436966172938,4.0
622,1436966172967,4.0
623,1436966173022,3.0
624,1436966173023,3.0
625,1436966173024,3.0
626,1436966173041,3.0
627,1436966173058,3.0
628,1436966173079,3.0
629,1436966173097,3.0
630,1436966173117,3.0
631,1436966173141,3.0
632,1436966173157,3.0
633,1436966173181,3.0
634,1436966173197,3.0
635,1436966173220,3.0
636,1436966173240,3.0
637,1436966173258,3.0
638,1436966173281,3.0
639,1436966173298,3.0
640,1436966173319,3.0
641,1436966173340,2.0
642,1436966173358,2.0
643,1436966173392,2.0
644,1436966173397,2.0
645,1436966173417,2.0
646,1436966173437,3.0
647,1436966173460,3.0
648,1436966173478,3.0
649,1436966173498,3.0
650,1436966173518,3.0
651,1436966173539,3.0
652,1436966173561,4.0
653,1436966173581,4.0
654,1436966173600,4.0
655,1436966173617,4.0
656,1436966173639,4.0
657,1436966173657,4.0
658,1436966173678,4.0
659,1436966173701,4.0
660,1436966173770,3.0
661,1436966173771,3.0
662,1436966173772,2.0
663,1436966173779,2.0
664,1436966173798,3.0
665,1436966173820,3.0
666,1436966173837,3.0
667,1436966173858,3.0
668,1436966173877,4.0
669,1436966173905,4.0
670,1436966173920,4.0
671,1436966173938,4.0
672,1436966173957,4.0
673,1436966173980,3.0
674,1436966174002,3.0
675,1436966174020,3.0
676,1436966174041,3.0
677,1436966174058,3.0
678,1436966174078,3.0
679,1436966174102,2.0
680,1436966174121,2.0
681,1436966174141,2.0
682,1436966174158,2.0
683,1436966174181,3.0
684,1436966174201,3.0
685,1436966174221,3.0
686,1436966174241,3.0
687,1436966174258,3.0
688,1436966174278,3.0
689,1436966174301,4.0
690,1436966174321,4.0
691,1436966174342,4.0
692,1436966174361,4.0
693,1436966174381,4.0
694,1436966174401,4.0
695,1436966174419,4.0
696,1436966174504,4.0
697,1436966174505,4.0
698,1436966174506,3.0
699,1436966174507,3.0
700,1436966174543,3.0
701,1436966174544,3.0
702,1436966174558,3.0
703,1436966174579,3.0
704,1436966174598,3.0
705,1436966174619,3.0
706,1436966174665,3.0
707,1436966174666,3.0
708,1436966174685,3.0
709,1436966174698,3.0
710,1436966174723,3.0
711,1436966174741,3.0
712,1436966174761,3.0
713,1436966174782,3.0
714,1436966174802,3.0
715,1436966174823,3.0
716,1436966174841,2.0
717,1436966174862,2.0
718,1436966174878,2.0
719,1436966174899,2.0
720,1436966174918,3.0
721,1436966174939,3.0
722,1436966174959,3.0
723,1436966174978,3.0
724,1436966174998,3.0
725,1436966175025,4.0
726,1436966175044,4.0
727,1436966176688,4.0
728,1436966176689,4.0
729,1436966176690,4.0
730,1436966176691,4.0
731,1436966176692,4.0
732,1436966176693,4.0
733,1436966176694,3.0
734,1436966176695,3.0
735,1436966176696,3.0
736,1436966176697,3.0
737,1436966176698,3.0
738,1436966176699,3.0
739,1436966176700,3.0
740,1436966176701,3.0
741,1436966176702,3.0
742,1436966176703,3.0
743,1436966176704,3.0
744,1436966176705,3.0
745,1436966176706,4.0
746,1436966176707,4.0
747,1436966176708,4.0
748,1436966176709,4.0
749,1436966176710,4.0
750,1436966176711,3.0
751,1436966176712,3.0
752,1436966176713,3.0
753,1436966176714,3.0
754,1436966176715,2.0
755,1436966176716,2.0
756,1436966176717,1.0
757,1436966176718,1.0
758,1436966176719,1.0
759,1436966176720,1.0
760,1436966176721,2.0
761,1436966176722,2.0
762,1436966176723,3.0
763,1436966176724,3.0
764,1436966176725,4.0
765,1436966176726,4.0
766,1436966176727,4.0
767,1436966176728,4.0
768,1436966176729,4.0
769,1436966176730,4.0
770,1436966176731,3.0
771,1436966176732,3.0
772,1436966176733,3.0
773,1436966176734,3.0
774,1436966176735,3.0
775,1436966176736,3.0
776,1436966176737,3.0
777,1436966176738,2.0
778,1436966176739,2.0
779,1436966176740,3.0
780,1436966176741,3.0
781,1436966176742,3.0
782,1436966176743,3.0
783,1436966176744,3.0
784,1436966176745,3.0
785,1436966176746,3.0
786,1436966176747,3.0
787,1436966176748,3.0
788,1436966176749,3.0
789,1436966176750,3.0
790,1436966176751,3.0
791,1436966176752,3.0
792,1436966176753,3.0
793,1436966176754,3.0
794,1436966176755,3.0
795,1436966176756,3.0
796,1436966176757,3.0
797,1436966176758,4.0
798,1436966176759,4.0
799,1436966176760,4.0
800,1436966176761,4.0
801,1436966176762,4.0
802,1436966176763,4.0
803,1436966176764,4.0
804,1436966176765,4.0
805,1436966176766,4.0
806,1436966176767,4.0
807,1436966176768,4.0
808,1436966176769,3.0
809,1436966176770,3.0
810,1436966176771,3.0
811,1436966176772,3.0
812,1436966176773,3.0
813,1436966176779,3.0
814,1436966176799,3.0
815,1436966176819,3.0
816,1436966176839,3.0
817,1436966176859,3.0
818,1436966176879,3.0
819,1436966176899,3.0
820,1436966176919,3.0
821,1436966176943,3.0
822,1436966176965,3.0
823,1436966176980,3.0
824,1436966177004,3.0
825,1436966177023,3.0
826,1436966177042,3.0
827,1436966177063,2.0
828,1436966177081,2.0
829,1436966177104,2.0
830,1436966177124,2.0
831,1436966177144,2.0
832,1436966177162,2.0
833,1436966177180,2.0
834,1436966177205,2.0
835,1436966177224,3.0
836,1436966177246,3.0
837,1436966177308,4.0
838,1436966177318,4.0
839,1436966177320,4.0
840,1436966177321,4.0
841,1436966177343,4.0
842,1436966177365,4.0
843,1436966177382,4.0
844,1436966177401,4.0
845,1436966177424,3.0
846,1436966177442,3.0
847,1436966177462,3.0
848,1436966177483,3.0
849,1436966177505,3.0
850,1436966177524,3.0
851,1436966177544,3.0
852,1436966177564,3.0
853,1436966177585,3.0
854,1436966177604,3.0
855,1436966177624,3.0
856,1436966177644,3.0
857,1436966177664,3.0
858,1436966177686,3.0
859,1436966177703,3.0
860,1436966177723,3.0
861,1436966177743,3.0
862,1436966177778,3.0
863,1436966177782,3.0
864,1436966177813,3.0
865,1436966177821,3.0
866,1436966177841,3.0
867,1436966177865,3.0
868,1436966177881,3.0
869,1436966177901,3.0
870,1436966177921,3.0
871,1436966177943,3.0
872,1436966177968,3.0
873,1436966177981,3.0
874,1436966178045,3.0
875,1436966178046,3.0
876,1436966178047,4.0
877,1436966178062,4.0
878,1436966178082,4.0
879,1436966178102,4.0
880,1436966178122,4.0
881,1436966178150,4.0
882,1436966178162,4.0
883,1436966178181,3.0
884,1436966178202,3.0
885,1436966178221,3.0
886,1436966178241,3.0
887,1436966178262,3.0
888,1436966178286,3.0
889,1436966178304,2.0
890,1436966178326,2.0
891,1436966178346,2.0
892,1436966178366,2.0
893,1436966178386,2.0
894,1436966178405,2.0
895,1436966178422,3.0
896,1436966178446,3.0
897,1436966178466,2.0
898,1436966178486,2.0
899,1436966178505,2.0
900,1436966178525,2.0
901,1436966178545,2.0
902,1436966178565,2.0
903,1436966178585,2.0
904,1436966178606,3.0
905,1436966178626,3.0
906,1436966178646,3.0
907,1436966178661,3.0
908,1436966178683,3.0
909,1436966178790,3.0
910,1436966178791,3.0
911,1436966178792,3.0
