id,attr_time,attr_light
1,1436966160528,350.0
2,1436966160549,350.0
3,1436966160570,350.0
4,1436966160588,349.0
5,1436966160609,349.0
6,1436966160631,348.0
7,1436966160647,348.0
8,1436966160669,348.0
9,1436966160691,347.0
10,1436966160710,347.0
11,1436966160730,347.0
12,1436966160748,347.0
13,1436966160766,347.0
14,1436966160787,347.0
15,1436966160807,346.0
16,1436966160830,346.0
17,1436966160851,343.0
18,1436966160870,343.0
19,1436966160889,344.0
20,1436966160921,345.0
21,1436966161001,345.0
22,1436966161002,345.0
23,1436966161003,345.0
24,1436966161006,346.0
25,1436966161007,346.0
26,1436966161040,349.0
27,1436966161068,349.0
28,1436966161069,350.0
29,1436966161086,350.0
30,1436966161114,351.0
31,1436966161137,353.0
32,1436966161146,353.0
33,1436966161166,353.0
34,1436966161187,353.0
35,1436966161206,353.0
36,1436966161230,353.0
37,1436966161250,354.0
38,1436966161270,354.0
39,1436966161290,354.0
40,1436966161310,354.0
41,1436966161330,353.0
42,1436966161350,354.0
43,1436966161370,354.0
44,1436966161388,355.0
45,1436966161408,355.0
46,1436966161431,356.0
47,1436966161446,356.0
48,1436966161467,357.0
49,1436966161494,357.0
50,1436966161529,359.0
51,1436966161530,360.0
52,1436966161547,360.0
53,1436966161567,361.0
54,1436966161587,361.0
55,1436966161607,361.0
56,1436966161627,361.0
57,1436966161647,364.0
58,1436966161715,364.0
59,1436966161716,367.0
60,1436966161717,367.0
61,1436966161739,368.0
62,1436966161747,367.0
63,1436966161771,367.0
64,1436966161788,364.0
65,1436966161808,364.0
66,1436966161828,364.0
67,1436966161847,364.0
68,1436966161870,364.0
69,1436966161888,364.0
70,1436966161910,365.0
71,1436966161927,365.0
72,1436966161950,366.0
73,1436966161970,368.0
74,1436966161990,368.0
75,1436966162010,370.0
76,1436966162030,370.0
77,1436966162051,371.0
78,1436966162071,371.0
79,1436966162091,374.0
80,1436966162112,374.0
81,1436966162132,376.0
82,1436966162147,376.0
83,1436966162172,376.0
84,1436966162193,375.0
85,1436966162213,375.0
86,1436966162230,375.0
87,1436966162247,375.0
88,1436966162267,374.0
89,1436966162288,374.0
90,1436966162313,373.0
91,1436966162334,373.0
92,1436966162354,372.0
93,1436966162370,372.0
94,1436966162395,371.0
95,1436966162458,370.0
96,1436966162459,370.0
97,1436966162460,371.0
98,1436966162468,371.0
99,1436966162493,371.0
100,1436966162511,371.0
101,1436966162527,372.0
102,1436966162552,372.0
103,1436966162568,373.0
104,1436966162590,375.0
105,1436966162608,375.0
106,1436966162630,378.0
107,1436966162648,378.0
108,1436966162671,381.0
109,1436966162691,381.0
110,1436966162711,384.0
111,1436966162731,384.0
112,1436966162751,385.0
113,1436966162772,385.0
114,1436966162791,384.0
115,1436966162811,382.0
116,1436966162832,382.0
117,1436966162848,380.0
118,1436966162871,380.0
119,1436966162892,378.0
120,1436966162911,378.0
121,1436966162932,377.0
122,1436966162951,377.0
123,1436966162971,377.0
124,1436966162990,377.0
125,1436966163010,376.0
126,1436966163033,375.0
127,1436966163053,375.0
128,1436966163073,375.0
129,1436966163095,375.0
130,1436966163176,377.0
131,1436966163177,377.0
132,1436966163178,379.0
133,1436966163182,379.0
134,1436966163198,379.0
135,1436966163208,379.0
136,1436966163236,379.0
137,1436966163249,378.0
138,1436966163268,378.0
139,1436966163290,377.0
140,1436966163310,377.0
141,1436966163329,377.0
142,1436966163350,377.0
143,1436966163370,377.0
144,1436966163389,377.0
145,1436966163411,377.0
146,1436966163431,377.0
147,1436966163452,377.0
148,1436966163472,379.0
149,1436966163492,379.0
150,1436966163512,379.0
151,1436966163532,379.0
152,1436966163548,381.0
153,1436966163572,381.0
154,1436966163590,381.0
155,1436966163612,381.0
156,1436966163635,380.0
157,1436966163682,377.0
158,1436966163683,377.0
159,1436966163689,376.0
160,1436966163709,376.0
161,1436966163730,376.0
162,1436966163752,376.0
163,1436966163772,377.0
164,1436966163789,377.0
165,1436966163810,376.0
166,1436966163830,376.0
167,1436966163855,377.0
168,1436966163881,378.0
169,1436966163892,378.0
170,1436966163909,380.0
171,1436966163930,380.0
172,1436966163950,381.0
173,1436966163983,381.0
174,1436966164002,381.0
175,1436966164009,381.0
176,1436966164033,383.0
177,1436966164050,383.0
178,1436966164069,383.0
179,1436966164089,381.0
180,1436966164110,381.0
181,1436966164130,380.0
182,1436966164150,380.0
183,1436966164169,380.0
184,1436966164191,380.0
185,1436966164213,379.0
186,1436966164257,379.0
187,1436966164258,379.0
188,1436966164270,380.0
189,1436966164293,380.0
190,1436966164312,381.0
191,1436966164332,381.0
192,1436966164350,382.0
193,1436966164369,382.0
194,1436966164390,382.0
195,1436966164412,382.0
196,1436966164433,382.0
197,1436966164453,382.0
198,1436966164472,384.0
199,1436966164492,383.0
200,1436966164510,383.0
201,1436966164538,383.0
202,1436966164553,383.0
203,1436966164571,382.0
204,1436966164591,382.0
205,1436966164611,381.0
206,1436966164634,381.0
207,1436966164650,381.0
208,1436966164670,381.0
209,1436966164690,380.0
210,1436966164713,379.0
211,1436966164733,379.0
212,1436966164750,379.0
213,1436966164775,379.0
214,1436966164793,380.0
215,1436966164813,380.0
216,1436966164833,380.0
217,1436966164853,380.0
218,1436966164873,381.0
219,1436966164894,381.0
220,1436966164910,382.0
221,1436966164933,383.0
222,1436966164950,383.0
223,1436966164971,388.0
224,1436966164992,388.0
225,1436966165015,392.0
226,1436966165035,392.0
227,1436966165053,397.0
228,1436966165072,397.0
229,1436966165092,399.0
230,1436966165112,399.0
231,1436966165133,393.0
232,1436966165302,379.0
233,1436966165303,379.0
234,1436966165304,363.0
235,1436966165305,363.0
236,1436966165306,350.0
237,1436966165307,350.0
238,1436966165308,337.0
239,1436966165309,337.0
240,1436966165323,330.0
241,1436966165345,327.0
242,1436966165358,327.0
243,1436966165382,323.0
244,1436966165392,323.0
245,1436966165412,319.0
246,1436966165436,319.0
247,1436966165452,316.0
248,1436966165473,316.0
249,1436966165491,308.0
250,1436966165514,308.0
251,1436966165534,299.0
252,1436966165554,294.0
253,1436966165574,294.0
254,1436966165594,290.0
255,1436966165614,290.0
256,1436966165634,286.0
257,1436966165653,286.0
258,1436966165673,280.0
259,1436966165694,280.0
260,1436966165714,276.0
261,1436966165733,276.0
262,1436966165753,268.0
263,1436966165774,258.0
264,1436966165793,258.0
265,1436966165814,297.0
266,1436966165834,297.0
267,1436966165854,337.0
268,1436966165873,337.0
269,1436966165893,246.0
270,1436966165912,246.0
271,1436966165931,300.0
272,1436966165995,300.0
273,1436966165996,253.0
274,1436966165997,230.0
275,1436966166017,230.0
276,1436966166032,291.0
277,1436966166060,291.0
278,1436966166071,458.0
279,1436966166091,458.0
280,1436966166113,483.0
281,1436966166131,483.0
282,1436966166152,292.0
283,1436966166171,311.0
284,1436966166192,311.0
285,1436966166212,319.0
286,1436966166234,319.0
287,1436966166255,329.0
288,1436966166275,329.0
289,1436966166294,271.0
290,1436966166314,271.0
291,1436966166334,451.0
292,1436966166355,451.0
293,1436966166375,701.0
294,1436966166395,1013.0
295,1436966166414,1013.0
296,1436966166432,1029.0
297,1436966166456,1029.0
298,1436966166475,833.0
299,1436966166495,833.0
300,1436966166514,633.0
301,1436966166533,633.0
302,1436966166555,466.0
303,1436966166574,466.0
304,1436966166597,361.0
305,1436966166665,322.0
306,1436966166666,322.0
307,1436966166667,384.0
308,1436966166672,384.0
309,1436966166692,397.0
310,1436966166754,397.0
311,1436966166755,453.0
312,1436966166756,453.0
313,1436966166772,512.0
314,1436966166792,512.0
315,1436966166813,603.0
316,1436966166832,591.0
317,1436966166852,591.0
318,1436966166885,546.0
319,1436966166903,546.0
320,1436966166912,422.0
321,1436966166932,422.0
322,1436966166954,243.0
323,1436966166975,243.0
324,1436966166995,237.0
325,1436966167015,237.0
326,1436966167036,244.0
327,1436966167053,259.0
328,1436966167072,259.0
329,1436966167094,277.0
330,1436966167112,277.0
331,1436966167134,297.0
332,1436966167157,297.0
333,1436966167172,453.0
334,1436966167208,453.0
335,1436966167215,721.0
336,1436966167232,336.0
337,1436966167374,336.0
338,1436966167375,243.0
339,1436966167376,243.0
340,1436966167377,228.0
341,1436966167378,228.0
342,1436966167379,347.0
343,1436966167380,347.0
344,1436966167396,272.0
345,1436966167423,272.0
346,1436966167432,291.0
347,1436966167452,302.0
348,1436966167472,302.0
349,1436966167494,377.0
350,1436966167512,377.0
351,1436966167535,348.0
352,1436966167553,348.0
353,1436966167576,401.0
354,1436966167594,401.0
355,1436966167613,494.0
356,1436966167633,494.0
357,1436966167653,322.0
358,1436966167674,279.0
359,1436966167693,279.0
360,1436966167715,256.0
361,1436966167735,256.0
362,1436966167754,252.0
363,1436966167776,252.0
364,1436966167796,256.0
365,1436966167816,256.0
366,1436966167836,248.0
367,1436966167856,248.0
368,1436966167874,269.0
369,1436966167893,302.0
370,1436966167916,302.0
371,1436966167932,259.0
372,1436966167952,259.0
373,1436966167973,260.0
374,1436966167996,260.0
375,1436966168017,306.0
376,1436966168037,306.0
377,1436966168056,276.0
378,1436966168072,255.0
379,1436966168092,255.0
380,1436966168112,248.0
381,1436966168133,248.0
382,1436966168174,244.0
383,1436966168175,244.0
384,1436966168192,236.0
385,1436966168212,236.0
386,1436966168232,330.0
387,1436966168255,330.0
388,1436966168275,363.0
389,1436966168294,360.0
390,1436966168313,360.0
391,1436966168334,349.0
392,1436966168356,349.0
393,1436966168376,404.0
394,1436966168394,404.0
395,1436966168416,396.0
396,1436966168437,396.0
397,1436966168455,374.0
398,1436966168477,374.0
399,1436966168494,342.0
400,1436966168515,343.0
401,1436966168536,343.0
402,1436966168555,323.0
403,1436966168577,323.0
404,1436966168597,355.0
405,1436966168614,355.0
406,1436966168635,796.0
407,1436966168654,796.0
408,1436966168678,584.0
409,1436966168697,584.0
410,1436966168718,605.0
411,1436966168737,484.0
412,1436966168754,484.0
413,1436966168775,496.0
414,1436966168794,496.0
415,1436966168815,509.0
416,1436966168877,509.0
417,1436966168878,421.0
418,1436966168879,421.0
419,1436966168903,376.0
420,1436966168914,376.0
421,1436966168937,432.0
422,1436966168954,620.0
423,1436966168975,620.0
424,1436966168994,695.0
425,1436966169017,695.0
426,1436966169035,770.0
427,1436966169057,770.0
428,1436966169075,833.0
429,1436966169095,833.0
430,1436966169117,770.0
431,1436966169137,865.0
432,1436966169154,865.0
433,1436966169175,765.0
434,1436966169197,765.0
435,1436966169217,694.0
436,1436966169237,694.0
437,1436966169257,709.0
438,1436966169277,709.0
439,1436966169296,782.0
440,1436966169318,782.0
441,1436966169338,804.0
442,1436966169358,645.0
443,1436966169377,645.0
444,1436966169395,1139.0
445,1436966169417,1139.0
446,1436966169437,1167.0
447,1436966169457,1167.0
448,1436966169478,983.0
449,1436966169498,983.0
450,1436966169515,1010.0
451,1436966169536,1010.0
452,1436966169555,1212.0
453,1436966169619,1211.0
454,1436966169620,1211.0
455,1436966169621,1034.0
456,1436966169643,1034.0
457,1436966169654,937.0
458,1436966169675,937.0
459,1436966169696,862.0
460,1436966169716,862.0
461,1436966169737,777.0
462,1436966169756,777.0
463,1436966169776,732.0
464,1436966169796,913.0
465,1436966169816,913.0
466,1436966169835,957.0
467,1436966169856,957.0
468,1436966169878,805.0
469,1436966169898,805.0
470,1436966169918,909.0
471,1436966169936,909.0
472,1436966169958,912.0
473,1436966169975,875.0
474,1436966169996,875.0
475,1436966170018,762.0
476,1436966170036,762.0
477,1436966170058,764.0
478,1436966170078,764.0
479,1436966170096,828.0
480,1436966170118,828.0
481,1436966170138,965.0
482,1436966170155,965.0
483,1436966170178,1261.0
484,1436966170198,1382.0
485,1436966170218,1382.0
486,1436966170236,1377.0
487,1436966170256,1377.0
488,1436966170276,1376.0
489,1436966170308,1376.0
490,1436966170407,1324.0
491,1436966170408,1324.0
492,1436966170409,1187.0
493,1436966170410,1187.0
494,1436966170411,1027.0
495,1436966170427,987.0
496,1436966170435,987.0
497,1436966170455,911.0
498,1436966170478,911.0
499,1436966170497,795.0
500,1436966170518,795.0
501,1436966170536,746.0
502,1436966170557,746.0
503,1436966170577,902.0
504,1436966170597,902.0
505,1436966170616,995.0
506,1436966170638,869.0
507,1436966170659,869.0
508,1436966170678,990.0
509,1436966170699,990.0
510,1436966170719,971.0
511,1436966170737,971.0
512,1436966170758,891.0
513,1436966170782,891.0
514,1436966170798,831.0
515,1436966170817,831.0
516,1436966170840,862.0
517,1436966170858,945.0
518,1436966170879,945.0
519,1436966170900,1095.0
520,1436966170918,1095.0
521,1436966170938,1319.0
522,1436966170958,1319.0
523,1436966170985,1459.0
524,1436966170998,1459.0
525,1436966171020,1408.0
526,1436966171038,1370.0
527,1436966171058,1370.0
528,1436966171078,1254.0
529,1436966171097,1254.0
530,1436966171143,1088.0
531,1436966171144,1088.0
532,1436966171164,983.0
533,1436966171176,983.0
534,1436966171197,897.0
535,1436966171218,897.0
536,1436966171236,808.0
537,1436966171261,759.0
538,1436966171276,759.0
539,1436966171297,832.0
540,1436966171317,832.0
541,1436966171338,979.0
542,1436966171359,979.0
543,1436966171380,906.0
544,1436966171400,906.0
545,1436966171419,919.0
546,1436966171440,919.0
547,1436966171460,977.0
548,1436966171479,968.0
549,1436966171500,968.0
550,1436966171520,841.0
551,1436966171540,841.0
552,1436966171558,808.0
553,1436966171580,808.0
554,1436966171597,865.0
555,1436966171616,865.0
556,1436966171639,934.0
557,1436966171656,934.0
558,1436966171677,1072.0
559,1436966171697,1324.0
560,1436966171717,1324.0
561,1436966171738,1324.0
562,1436966171757,1324.0
563,1436966171777,1289.0
564,1436966171797,1289.0
565,1436966171817,1222.0
566,1436966171847,1222.0
567,1436966171882,1124.0
568,1436966171883,967.0
569,1436966171897,967.0
570,1436966171917,836.0
571,1436966171937,836.0
572,1436966171960,752.0
573,1436966171978,752.0
574,1436966171997,667.0
575,1436966172017,667.0
576,1436966172037,589.0
577,1436966172057,589.0
578,1436966172077,599.0
579,1436966172097,826.0
580,1436966172134,826.0
581,1436966172137,847.0
582,1436966172157,847.0
583,1436966172177,716.0
584,1436966172201,716.0
585,1436966172217,828.0
586,1436966172237,828.0
587,1436966172257,769.0
588,1436966172277,769.0
589,1436966172300,679.0
590,1436966172320,581.0
591,1436966172344,581.0
592,1436966172359,560.0
593,1436966172376,560.0
594,1436966172396,584.0
595,1436966172420,584.0
596,1436966172440,792.0
597,1436966172461,792.0
598,1436966172481,1126.0
599,1436966172500,1126.0
600,1436966172520,1060.0
601,1436966172540,1010.0
602,1436966172560,1010.0
603,1436966172577,948.0
604,1436966172596,948.0
605,1436966172618,878.0
606,1436966172636,878.0
607,1436966172656,802.0
608,1436966172681,802.0
609,1436966172697,729.0
610,1436966172716,729.0
611,1436966172738,674.0
612,1436966172760,600.0
613,1436966172782,600.0
614,1436966172801,559.0
615,1436966172821,559.0
616,1436966172841,685.0
617,1436966172857,685.0
618,1436966172881,862.0
619,1436966172901,862.0
620,1436966172921,750.0
621,1436966172941,646.0
622,1436966172958,646.0
623,1436966172982,698.0
624,1436966173000,698.0
625,1436966173020,607.0
626,1436966173039,607.0
627,1436966173062,560.0
628,1436966173082,560.0
629,1436966173102,533.0
630,1436966173122,533.0
631,1436966173140,544.0
632,1436966173158,666.0
633,1436966173179,666.0
634,1436966173201,1109.0
635,1436966173218,1109.0
636,1436966173253,1205.0
637,1436966173258,1205.0
638,1436966173277,1149.0
639,1436966173298,1149.0
640,1436966173321,1153.0
641,1436966173340,1153.0
642,1436966173358,1139.0
643,1436966173379,1116.0
644,1436966173401,1116.0
645,1436966173422,914.0
646,1436966173441,914.0
647,1436966173463,784.0
648,1436966173481,784.0
649,1436966173501,715.0
650,1436966173521,715.0
651,1436966173541,632.0
652,1436966173561,632.0
653,1436966173581,617.0
654,1436966173601,685.0
655,1436966173621,685.0
656,1436966173641,521.0
657,1436966173658,521.0
658,1436966173682,540.0
659,1436966173702,540.0
660,1436966173721,487.0
661,1436966173740,487.0
662,1436966173762,280.0
663,1436966173782,223.0
664,1436966173802,223.0
665,1436966173820,186.0
666,1436966173842,186.0
667,1436966173863,174.0
668,1436966173882,174.0
669,1436966173902,172.0
670,1436966173921,172.0
671,1436966173991,212.0
672,1436966173992,212.0
673,1436966173993,261.0
674,1436966173999,259.0
675,1436966174021,259.0
676,1436966174041,228.0
677,1436966174059,228.0
678,1436966174081,227.0
679,1436966174099,227.0
680,1436966174122,206.0
681,1436966174139,206.0
682,1436966174160,180.0
683,1436966174187,180.0
684,1436966174212,190.0
685,1436966174220,337.0
686,1436966174259,337.0
687,1436966174261,284.0
688,1436966174280,284.0
689,1436966174299,256.0
690,1436966174320,256.0
691,1436966174339,513.0
692,1436966174361,513.0
693,1436966174378,501.0
694,1436966174398,501.0
695,1436966174418,339.0
696,1436966174438,455.0
697,1436966174459,455.0
698,1436966174482,364.0
699,1436966174502,364.0
700,1436966174522,246.0
701,1436966174542,246.0
702,1436966174562,180.0
703,1436966174580,180.0
704,1436966174599,166.0
705,1436966174625,166.0
706,1436966174655,166.0
707,1436966174660,197.0
708,1436966174680,197.0
709,1436966174700,363.0
710,1436966174720,363.0
711,1436966174740,301.0
712,1436966174760,301.0
713,1436966174778,594.0
714,1436966174801,594.0
715,1436966174822,494.0
716,1436966174842,291.0
717,1436966174862,291.0
718,1436966174883,201.0
719,1436966174903,201.0
720,1436966174923,184.0
721,1436966174943,184.0
722,1436966174963,188.0
723,1436966174983,188.0
724,1436966175000,195.0
725,1436966175023,195.0
726,1436966175043,222.0
727,1436966175062,260.0
728,1436966175081,260.0
729,1436966175101,273.0
730,1436966175123,273.0
731,1436966175143,259.0
732,1436966175162,259.0
733,1436966175184,283.0
734,1436966175205,283.0
735,1436966175219,282.0
736,1436966175239,282.0
737,1436966175266,196.0
738,1436966175313,159.0
739,1436966175314,159.0
740,1436966175334,140.0
741,1436966175339,140.0
742,1436966175361,142.0
743,1436966175380,142.0
744,1436966175400,162.0
745,1436966175422,162.0
746,1436966175442,244.0
747,1436966175461,244.0
748,1436966175481,591.0
749,1436966175504,303.0
750,1436966175520,303.0
751,1436966175543,222.0
752,1436966175563,222.0
753,1436966175583,209.0
754,1436966175604,209.0
755,1436966175623,193.0
756,1436966175643,193.0
757,1436966175663,186.0
758,1436966175683,168.0
759,1436966175702,168.0
760,1436966175724,186.0
761,1436966175743,186.0
762,1436966175761,190.0
763,1436966175780,190.0
764,1436966175801,239.0
765,1436966175826,239.0
766,1436966175846,285.0
767,1436966175866,285.0
768,1436966175883,294.0
769,1436966175900,280.0
770,1436966175921,280.0
771,1436966175942,317.0
772,1436966175960,317.0
773,1436966175981,262.0
774,1436966176052,262.0
775,1436966176053,195.0
776,1436966176054,195.0
777,1436966176060,161.0
778,1436966176091,161.0
779,1436966176102,185.0
780,1436966176122,156.0
781,1436966176143,156.0
782,1436966176163,215.0
783,1436966176182,215.0
784,1436966176201,273.0
785,1436966176224,273.0
786,1436966176244,269.0
787,1436966176264,269.0
788,1436966176283,256.0
789,1436966176304,256.0
790,1436966176322,258.0
791,1436966176344,254.0
792,1436966176362,254.0
793,1436966176383,204.0
794,1436966176403,204.0
795,1436966176426,195.0
796,1436966176442,195.0
797,1436966176464,210.0
798,1436966176481,210.0
799,1436966176501,215.0
800,1436966176522,226.0
801,1436966176546,226.0
802,1436966176566,258.0
803,1436966176587,258.0
804,1436966176604,278.0
805,1436966176622,278.0
806,1436966176642,263.0
807,1436966176662,263.0
808,1436966176683,315.0
809,1436966176705,315.0
810,1436966176749,308.0
811,1436966176752,163.0
812,1436966176768,163.0
813,1436966176782,134.0
814,1436966176805,134.0
815,1436966176821,160.0
816,1436966176841,160.0
817,1436966176865,203.0
818,1436966176883,203.0
819,1436966176903,174.0
820,1436966176923,174.0
821,1436966176945,225.0
822,1436966176963,270.0
823,1436966176985,270.0
824,1436966177005,238.0
825,1436966177025,238.0
826,1436966177045,217.0
827,1436966177065,217.0
828,1436966177085,210.0
829,1436966177105,210.0
830,1436966177125,208.0
831,1436966177146,208.0
832,1436966177162,185.0
833,1436966177185,189.0
834,1436966177205,189.0
