id,attr_time,attr_db
1,1436985153748,48.232042510005
2,1436985154479,14.2244118844184
3,1436985155191,63.4745994321655
4,1436985155926,42.9797155335046
5,1436985156652,44.8798951152664
6,1436985157330,51.196124291566
7,1436985157997,46.0973045228119
8,1436985158733,40.4780943282229
9,1436985159477,15.6241353298421
10,1436985160194,55.6388786068521
11,1436985160921,45.7340047949497
12,1436985161654,32.6561460266516
13,1436985162347,27.521942298512
14,1436985162944,43.2963587779208
15,1436985163619,56.8557523371406
16,1436985164368,59.9092302425238
17,1436985165094,44.1622334324937
18,1436985165829,47.8665410917879
19,1436985166543,47.7251479173305
20,1436985167307,66.8164618805004
21,1436985168011,51.6771469697226
22,1436985168689,48.8664723091151
23,1436985169433,21.5229186617208
24,1436985170209,24.8531009132854
25,1436985170922,40.4907089635278
26,1436985171660,26.5128853150696
27,1436985172359,24.7878004436781
28,1436985173062,47.6294975252452
29,1436985173808,26.2173109704768
30,1436985174532,40.918286629907
31,1436985175252,51.1340216145318
32,1436985175984,28.4974255871311
33,1436985176710,47.4168148876699
34,1436985177447,46.9927160520701
35,1436985178161,40.5450980140407
36,1436985178859,56.2195743835586
37,1436985179607,42.7908879395792
38,1436985180322,41.19975004874
39,1436985181042,58.7012285620582
40,1436985181772,32.350320523121
41,1436985182473,28.9032890397865
42,1436985183071,53.0346225509523
43,1436985183752,38.8776501431599
44,1436985184474,62.0529162251146
45,1436985185202,45.7167967666181
46,1436985185931,49.8707753903444
47,1436985186658,50.6509830063516
48,1436985187416,43.3874926425091
49,1436985188120,53.8630005034649
50,1436985188816,45.3552669966829
51,1436985189547,56.7645793788505
52,1436985190281,30.3782003027042
53,1436985191001,43.6644998554273
54,1436985191804,45.9133840969353
55,1436985192539,45.3862029178967
56,1436985193284,50.6856158562207
57,1436985193991,37.1663586597653
58,1436985194726,54.3209561201099
59,1436985195464,47.8657644129557
60,1436985196189,60.6476670976365
61,1436985196902,37.4167135009819
62,1436985197645,53.071498757279
63,1436985198299,40.0763928420951
64,1436985198949,44.7245221376635
65,1436985199681,33.0670981974306
66,1436985200417,48.828964932531
67,1436985201134,54.1296176142436
68,1436985201818,35.4959581596781
69,1436985202561,63.4535387800941
70,1436985203265,63.6245884737524
71,1436985204017,23.8553937737954
72,1436985204742,58.639131250627
73,1436985205479,42.9161635187908
74,1436985206217,55.1396392867335
75,1436985206955,45.6102271898363
76,1436985207681,50.5344779358813
77,1436985208375,57.8449001878746
78,1436985209045,44.4060221645665
79,1436985209766,57.7772413008206
80,1436985210509,49.3612651461473
81,1436985211233,23.3556618036147
82,1436985211972,46.9620222764367
83,1436985212733,44.2589846408855
84,1436985213418,45.141404848457
85,1436985214156,32.8731787352239
86,1436985214879,58.8897566805821
87,1436985215628,59.8114609482221
88,1436985216351,43.7415366208916
89,1436985217080,33.3137873731307
90,1436985217803,66.3853199836325
91,1436985218526,45.5586625590327
92,1436985219211,41.5771962377836
93,1436985219907,62.7217128542279
94,1436985220652,53.8498683534591
95,1436985221369,14.6713967029848
96,1436985222145,56.3661013168956
97,1436985222842,50.7646660004362
98,1436985223571,54.7537509709842
99,1436985224294,58.5838612142612
100,1436985225019,40.4243529432584
101,1436985225684,60.8031788147899
102,1436985226324,54.5022104455
103,1436985228175,46.6039575533578
104,1436985228794,40.198614179765
105,1436985229455,54.9767675647587
106,1436985230175,46.6115286032122
107,1436985230935,42.8070867119339
108,1436985231649,39.3572985894894
109,1436985232401,63.0045029501667
110,1436985233066,47.4238275014079
111,1436985233799,45.0544038018118
112,1436985234532,45.1870004838162
113,1436985235273,49.4491016633596
114,1436985235993,47.0291902727719
115,1436985236711,43.3381029194573
116,1436985237446,41.8608861055379
117,1436985238285,51.7250110367597
118,1436985238960,53.4327555634199
119,1436985239649,44.7074652877215
120,1436985241061,53.3941569070141
121,1436985241777,72.1910604142938
122,1436985242496,71.7683360107859
123,1436985243095,30.6317624301874
124,1436985243771,66.083846308223
125,1436985244493,58.2194614879242
126,1436985245196,57.0593430364367
127,1436985245924,50.3518942642874
128,1436985246678,58.6671758364224
129,1436985247406,50.8902347634867
130,1436985248124,37.5545972812463
131,1436985248854,30.3434931032257
132,1436985249582,40.8357327721609
133,1436985250269,34.5402974853269
134,1436985250975,50.3719946126459
135,1436985251728,45.4383233643671
136,1436985252471,48.0723692353813
137,1436985253198,46.682319570908
138,1436985253819,41.9748792598907
139,1436985254453,72.6472886741481
140,1436985255962,48.5796704617641
141,1436985256638,46.6378365725852
142,1436985257367,29.9244887593255
143,1436985258083,52.836096784872
144,1436985258838,58.3124303852102
145,1436985259557,38.5812672905517
146,1436985260232,37.2474176463
147,1436985260914,32.1685005054164
148,1436985261638,44.8020508408124
149,1436985262378,45.8465248756362
150,1436985263100,49.0096680414227
151,1436985264554,41.6168647241056
152,1436985265276,46.8059294630781
153,1436985265983,49.7847832398613
154,1436985266714,25.5184120725409
155,1436985267422,33.9324353591804
156,1436985268159,47.0523352496826
157,1436985268898,36.2852092785804
158,1436985269597,34.2003539202199
159,1436985270261,52.930801108791
160,1436985270986,26.3822863306903
161,1436985271702,31.2054323909748
162,1436985272423,47.0115178603107
163,1436985273191,41.2358161265556
164,1436985273870,30.4063212985426
165,1436985274542,47.3250203408485
166,1436985275266,43.0700264689733
167,1436985275986,28.4731541830026
168,1436985276703,24.5950773186545
169,1436985277433,55.7982871840168
170,1436985278218,50.8981601702767
171,1436985278970,39.2463491660903
172,1436985279704,19.2784834596347
173,1436985280435,31.5980263659416
174,1436985281091,34.5201473396778
175,1436985281827,30.4499393660532
176,1436985282647,29.9745428285202
177,1436985283373,26.2992492643252
178,1436985284102,30.5459238064514
179,1436985284855,58.7200096764841
180,1436985285610,30.4023323599359
181,1436985286278,28.1969927911473
182,1436985287050,29.3476056838187
183,1436985287781,37.5452764802946
184,1436985288526,35.7969074689181
185,1436985289259,30.378116806945
186,1436985289994,47.711107013608
187,1436985290714,31.9324191900851
188,1436985291358,34.1858817401239
189,1436985292055,38.536207042145
190,1436985292748,44.4436339644271
191,1436985293480,53.3297112510109
192,1436985294169,27.0958148691328
193,1436985294923,44.515197262539
194,1436985295646,28.3296280903636
195,1436985296341,40.2467088716039
196,1436985297056,26.5624952019983
197,1436985297807,24.966032693908
198,1436985298568,42.8614690593414
199,1436985299309,39.8907489791533
200,1436985300048,30.6279696321187
201,1436985300778,27.8495052543522
202,1436985301469,36.65765217916
203,1436985302246,31.0509989858761
204,1436985302967,44.8449658213305
205,1436985303635,46.175511226108
206,1436985304201,47.576805527499
207,1436985304868,39.637828319416
208,1436985305636,36.699727460804
209,1436985306310,47.4157496248032
210,1436985307015,29.405984846619
211,1436985307734,29.4458717691904
212,1436985308459,46.2071676669365
213,1436985309187,25.5373488026192
214,1436985309904,45.7251310182994
215,1436985310611,44.5523505756818
216,1436985311258,57.0669568957462
217,1436985311945,41.6301175561179
218,1436985312677,40.4428169724112
219,1436985313383,28.9053015013869
220,1436985314108,46.7843477318207
221,1436985314844,32.6972147597373
222,1436985315639,36.1805062641927
223,1436985316364,29.3052549152147
224,1436985317105,53.3745512376662
225,1436985317907,29.0349917978411
226,1436985318608,51.758855144413
227,1436985319328,56.3553499486285
228,1436985320070,58.5655089194123
229,1436985320798,57.7863087556563
230,1436985321539,51.3952578651098
231,1436985322208,28.59979282061
232,1436985322977,63.1309955220352
233,1436985323692,56.9310356843494
234,1436985324363,56.8321567931314
235,1436985325021,57.0321239869846
236,1436985325749,65.5729593445074
237,1436985326477,61.3411426123793
238,1436985327186,53.9308339989872
239,1436985327962,58.9802151443295
240,1436985328692,62.5855382247331
241,1436985329409,53.3621834433241
242,1436985330128,56.173334365788
243,1436985330850,62.9365278121421
244,1436985331599,40.0936141087792
245,1436985332342,28.3361418640943
246,1436985333126,38.2259603371261
247,1436985333863,45.743681806206
248,1436985334606,33.2298711316505
249,1436985335304,74.5804193663995
250,1436985336019,53.11825473623
251,1436985336742,64.8866085094373
252,1436985337491,53.8548885416898
253,1436985338205,38.553246891096
254,1436985338937,66.5142182345389
255,1436985339671,61.5142233645552
256,1436985340398,59.0338346752619
257,1436985341102,61.8823970336921
258,1436985341729,32.6347877034594
259,1436985342432,36.9707212689537
260,1436985343259,45.8342260808889
261,1436985343983,67.1375849537806
262,1436985344690,60.2963341084462
263,1436985345405,61.4543441709927
264,1436985346150,59.8632301300584
265,1436985346862,51.9231184510565
266,1436985347613,53.6225190570013
267,1436985348351,38.4983414763674
268,1436985349052,40.1942915280432
269,1436985349762,65.5625069708765
270,1436985350558,46.2641012352701
271,1436985351297,74.6083514341542
272,1436985352005,53.1768085369103
273,1436985352704,61.5539856594824
274,1436985353486,40.3294797913709
275,1436985354243,64.7175914538876
276,1436985354962,53.1905131856484
277,1436985355708,55.1008451833655
278,1436985356319,58.3120624298477
279,1436985356985,53.1378650085501
280,1436985357691,39.763417431192
281,1436985358426,66.8089275698342
282,1436985359142,53.3421504904971
283,1436985359863,48.0628240344032
284,1436985360576,50.1494414311779
285,1436985361303,50.8563704313289
286,1436985362013,43.2881668487136
287,1436985362687,56.5346405171049
288,1436985363381,68.0090741108127
289,1436985364063,55.6376210581417
290,1436985364706,62.0690112289233
291,1436985365411,45.4829422084815
292,1436985366120,47.5867129010877
293,1436985366795,35.9908263038848
294,1436985367476,54.8091658337253
295,1436985368294,49.4049493819785
296,1436985368994,54.1341726539767
297,1436985369701,37.6986933339074
298,1436985370428,55.2941652620674
299,1436985371141,36.9428227575411
300,1436985371882,56.7644721020256
301,1436985372580,46.9352112936884
302,1436985373259,64.2535089554951
303,1436985373995,53.4811297792614
304,1436985374708,58.4526520166333
305,1436985375450,36.5141161178462
306,1436985376183,38.7665757333929
307,1436985376899,39.7896709786135
308,1436985377602,45.6733869706701
309,1436985378365,47.4109604965736
310,1436985379089,49.0265276563999
311,1436985379828,54.2024070660045
312,1436985380592,45.7910540772691
313,1436985381253,34.5212438455815
314,1436985381992,61.7747998134855
315,1436985382745,29.4748740721515
316,1436985383556,44.649191152108
317,1436985384268,46.1604933179018
318,1436985384942,43.0926456777046
319,1436985385687,46.8516408008197
320,1436985386412,34.2575481487971
321,1436985387131,54.5387451725397
322,1436985387874,47.9390885472027
323,1436985388594,67.4292453498298
324,1436985389312,49.7544614396487
325,1436985390052,36.8372907134679
326,1436985390794,29.3693402070923
327,1436985391527,46.4594809806529
328,1436985392244,64.8545872682165
329,1436985392984,55.2599560270304
330,1436985393635,69.6323224998235
331,1436985394343,64.4389253796643
332,1436985395086,52.3619295528658
333,1436985395814,47.5933518562956
334,1436985396602,30.572156536755
335,1436985397292,55.7489432813334
336,1436985397896,65.896164854056
337,1436985398619,60.1105798074578
338,1436985399356,43.2583837377018
339,1436985400094,50.2078834796735
340,1436985400826,32.8514222102776
341,1436985401551,68.4451615598488
342,1436985402290,52.0671447930112
343,1436985403013,63.0797128666004
344,1436985403714,46.9456141643568
345,1436985404392,67.6540249186897
346,1436985405123,60.4636066270147
347,1436985405868,34.1076051082985
348,1436985406627,55.2010664132804
349,1436985407329,52.6577987064642
350,1436985407980,53.037826280161
351,1436985408672,69.1912737488206
352,1436985409424,68.3799471214486
353,1436985410184,21.8349928166106
354,1436985410932,66.0617018050824
355,1436985411683,65.0054196136259
356,1436985412429,38.166718987034
357,1436985413195,47.3268995921426
358,1436985413844,53.8910475695619
359,1436985414526,50.6857569158296
360,1436985415268,34.1038188987196
361,1436985415991,53.470416187927
362,1436985416733,42.5194359435014
363,1436985417493,41.4288221480505
364,1436985418227,69.113028002615
365,1436985418904,69.0467637702951
366,1436985419627,61.9330256914377
367,1436985420321,68.7332967772514
368,1436985421051,49.8457267970821
369,1436985421775,57.2909887627683
370,1436985422491,47.7308059596965
371,1436985423213,50.8131093617396
372,1436985423956,44.0050161676752
373,1436985424664,36.0863195209038
374,1436985425286,17.8445675530225
375,1436985425973,15.9531264729038
376,1436985426677,56.7057932705678
377,1436985427399,44.5098668806656
378,1436985428091,47.4892005203687
379,1436985428717,49.210723049816
380,1436985429404,43.3011364235188
381,1436985430135,49.2128814820342
382,1436985430801,38.8548538793961
383,1436985432219,57.5684172728746
384,1436985432928,55.9354505509491
385,1436985433660,54.0204849210671
386,1436985434338,64.6042505897388
387,1436985435002,54.9290511533862
388,1436985435693,61.5239336336018
389,1436985436409,65.7417127792569
390,1436985437141,63.7028851847386
391,1436985437920,63.5240107741288
392,1436985438674,68.1479904516482
393,1436985439394,46.6976298219077
394,1436985440139,48.3169486419367
395,1436985440885,53.1092907585352
396,1436985441621,39.063301384359
397,1436985442423,63.6297926218635
398,1436985443163,63.588679748822
399,1436985443877,62.3901345968401
400,1436985444578,36.3586081805746
401,1436985445214,60.7795521957412
402,1436985445914,64.627882702574
403,1436985446635,59.1879688872915
404,1436985447389,58.5051329818204
405,1436985449376,48.3062605619516
406,1436985450076,57.8418024724071
407,1436985450795,67.2912308340345
408,1436985451514,38.3081034203222
409,1436985452222,64.3824675984398
410,1436985453017,61.0266393832286
411,1436985453759,52.5073742920567
412,1436985454525,43.8768399889038
413,1436985455234,63.5690530239006
414,1436985455979,43.0327928070518
415,1436985456691,20.0043087477328
416,1436985457445,47.776553452307
417,1436985458161,42.3319541697892
418,1436985458877,33.2849827452731
419,1436985459604,47.2248421898206
420,1436985460350,36.1368441919199
421,1436985461085,66.3712972885585
422,1436985461816,55.0830339475854
423,1436985462584,55.4813143407526
424,1436985463299,48.4452723730395
425,1436985464016,61.8176408880084
426,1436985464699,51.4714341802051
427,1436985465375,67.1624420471032
428,1436985466099,59.1097117119931
429,1436985466827,37.1231477028045
430,1436985467557,70.6313402227278
431,1436985468270,51.1697843545744
432,1436985468908,26.8348653222536
433,1436985469616,64.1246082567144
434,1436985470337,47.7123350894563
435,1436985472334,62.4316921523078
436,1436985473098,57.7397265550138
437,1436985473834,55.1134845642957
438,1436985474540,40.3588712043021
439,1436985475240,47.5125007148498
440,1436985475888,67.0028366818898
441,1436985476646,24.1367064941351
442,1436985477353,39.8628612163497
443,1436985478142,51.3335585624728
444,1436985478893,60.7953234884234
445,1436985479653,47.7226821142305
446,1436985480382,25.0456035901679
447,1436985481099,38.0245194215158
448,1436985481802,48.8240255067368
449,1436985482592,28.4506452936265
450,1436985483307,34.5981339833401
451,1436985485165,16.1930521678301
452,1436985485857,69.8437077753294
453,1436985486596,57.9717136517157
454,1436985487323,44.0408567681382
455,1436985488060,50.917153464788
456,1436985488772,24.1641901709899
457,1436985489505,49.5661126654925
458,1436985490236,30.4915425921189
459,1436985490962,64.8919434609395
460,1436985491674,52.2663083992539
461,1436985492412,67.7174909910746
462,1436985493151,64.4285546731141
463,1436985493869,43.1421093404814
464,1436985494583,31.3472714908066
465,1436985495272,25.1140600339404
466,1436985495915,51.2008545940027
467,1436985496657,39.6307730760081
468,1436985497361,49.9695592983031
469,1436985498088,56.9042089586514
470,1436985498851,59.8186760254842
471,1436985499608,52.3166013792222
472,1436985500278,51.5657785674448
473,1436985501001,62.2739986890554
474,1436985501724,61.4593503517069
475,1436985502418,62.1948567132522
476,1436985503097,40.7958614499887
477,1436985503825,40.7701357474375
478,1436985504571,64.825445402576
479,1436985505290,59.4747327323399
480,1436985505896,61.2239382612138
481,1436985506591,56.8982727276083
482,1436985507322,61.8639291370679
483,1436985508042,60.1395350908866
484,1436985508763,61.7841617559812
485,1436985509441,27.4334524480205
486,1436985510174,45.7017577648344
487,1436985510899,51.2693907340303
488,1436985511631,60.3777112472694
489,1436985512361,57.8603843071142
490,1436985513087,45.7717561528127
491,1436985513819,58.1865583616997
492,1436985514549,30.0968877635488
493,1436985515272,54.3095595996088
494,1436985515985,60.2036150528373
495,1436985516636,45.5208277570234
496,1436985517381,32.0968155147943
497,1436985518075,47.1360604107965
498,1436985518755,39.31356835051
499,1436985519480,45.5890654245204
500,1436985520194,52.1439705066117
501,1436985520910,39.3044317116292
502,1436985521618,32.9425881522801
503,1436985522367,44.8467196790015
504,1436985523108,45.3844393040379
505,1436985523850,54.8333840116592
506,1436985524582,54.8218246401735
507,1436985525282,46.2736157950929
508,1436985525971,62.3814445606115
509,1436985526641,65.8000664435955
510,1436985527377,62.7869710177745
511,1436985528115,50.9110602890644
512,1436985528866,25.2874217442513
513,1436985529592,50.2872533042664
514,1436985530341,36.6723226628164
515,1436985531010,40.6988119602056
516,1436985531713,46.6008220701056
517,1436985532441,52.5083691459183
518,1436985533171,40.7531500957714
519,1436985533894,39.5730363047853
520,1436985534628,60.1609928641681
521,1436985535338,56.0461870736532
522,1436985536013,45.3299719260653
523,1436985536736,63.4169423759561
524,1436985537518,53.6237614310391
525,1436985538262,57.9106573489144
526,1436985538995,52.5339546706312
527,1436985539774,46.5434345502988
528,1436985540430,52.2767834601631
529,1436985541166,44.9219929151912
530,1436985541911,38.4367510677877
531,1436985542645,54.304057968745
532,1436985543385,28.1617459897719
533,1436985544131,55.8491400849962
534,1436985544859,63.0086029669232
535,1436985545599,54.9519580491723
536,1436985546217,41.9514311303998
537,1436985546886,39.7138838303082
538,1436985547626,60.8762329112407
539,1436985548350,54.5198965437041
540,1436985549061,49.5332425172634
541,1436985549780,47.0807834751885
542,1436985550527,62.8752599326705
543,1436985551230,32.008822167986
544,1436985551975,43.2918044361374
545,1436985552692,39.9100847972936
546,1436985553424,40.6181872709126
547,1436985554152,57.6921065030849
548,1436985554882,62.1736480903133
549,1436985555608,29.7831820136056
550,1436985556341,65.7287940795817
551,1436985557054,65.8438551494149
552,1436985557744,68.0126457598172
553,1436985558482,69.4237759839256
554,1436985559220,66.0636467311302
555,1436985559929,69.3147666957015
556,1436985560643,43.8486620083232
557,1436985561347,60.4575085668518
558,1436985562061,17.3541324909145
559,1436985562781,71.974185010748
560,1436985563527,64.8255670379936
561,1436985564266,67.9728190584499
562,1436985564972,56.8076828648486
563,1436985565683,67.8214208304739
564,1436985566385,57.6356723189832
565,1436985567064,53.2999358864823
566,1436985567809,66.5359911516642
567,1436985568566,53.556011594484
568,1436985569250,52.3784727613359
569,1436985569884,55.927799728553
570,1436985570582,48.0285870479465
571,1436985571323,40.8087888689797
572,1436985572050,71.0331114764966
573,1436985572774,58.8841525245455
574,1436985573494,36.7901375064705
575,1436985574226,56.0434760020782
