id,attr_time,attr_db
1,1436985153622,33.1586504188697
2,1436985154317,36.5924407745115
3,1436985155058,34.8621848926978
4,1436985155730,41.2077514528638
5,1436985156473,41.4505218888817
6,1436985157227,37.2596752874633
7,1436985157918,44.8382963304369
8,1436985158622,32.9200870084807
9,1436985159330,58.2935926097936
10,1436985160069,50.9289556989658
11,1436985160784,45.3159871626433
12,1436985161509,54.7210849239531
13,1436985162256,42.827655562925
14,1436985162921,61.0135615305806
15,1436985163656,57.5611035115352
16,1436985164371,58.2950467991846
17,1436985165085,69.5332164194236
18,1436985165781,49.0646910630435
19,1436985166447,67.3398370169417
20,1436985167159,65.357269612915
21,1436985168455,65.0757692789334
22,1436985169119,62.7414606161704
23,1436985169836,62.5257675949091
24,1436985170585,56.4812262357839
25,1436985171308,60.0835731212736
26,1436985172046,55.5371164190364
27,1436985172817,55.7756930965599
28,1436985173561,55.4946810707601
29,1436985174262,60.9283499883126
30,1436985174973,49.1890433130613
31,1436985175647,60.2885429372023
32,1436985177396,65.9901770679878
33,1436985178080,73.5439332272621
34,1436985178770,56.6244714172731
35,1436985179496,63.9890212455798
36,1436985180219,62.2858746397061
37,1436985180949,61.7577452756827
38,1436985181631,52.3295380457411
39,1436985182286,47.8016455103881
40,1436985182988,66.5631983033686
41,1436985183701,67.638885790625
42,1436985184432,56.2675893696651
43,1436985185172,69.0183608997448
44,1436985185947,66.7779949563519
45,1436985186666,59.9004418050765
46,1436985188316,61.0016442413037
47,1436985189045,45.5207806718314
48,1436985189734,70.4327024975674
49,1436985190451,73.1323534883468
50,1436985191221,48.5380983741759
51,1436985191941,67.3954640907804
52,1436985192664,71.9961842695468
53,1436985193381,47.066853690392
54,1436985194116,67.8652509083674
55,1436985194842,64.7370807153032
56,1436985195578,62.8299464070442
57,1436985196269,62.9723545974643
58,1436985196990,58.7485465915482
59,1436985197719,66.0017723289378
60,1436985198436,65.5291660994436
61,1436985199221,45.9281830581219
62,1436985199943,72.6973736195889
63,1436985200783,60.9311512866377
64,1436985201519,45.4423028091015
65,1436985202251,72.5620990477798
66,1436985202910,68.7529341296324
67,1436985203629,59.2920334546689
68,1436985204345,55.6261201725861
69,1436985205072,49.5360285891408
70,1436985205795,71.1119054188671
71,1436985206533,69.3639923440563
72,1436985207193,62.9760526198369
73,1436985207872,59.7156032572514
74,1436985208501,61.3027045618806
75,1436985209270,62.2094217961085
76,1436985210010,65.2080231909267
77,1436985210700,66.3625366510789
78,1436985211305,61.2011118914607
79,1436985211946,65.6149266713855
80,1436985212631,70.20704985734
81,1436985213359,60.586507545797
82,1436985214102,50.3545892969418
83,1436985214851,47.4065162387443
84,1436985215601,67.6002549181994
85,1436985216335,65.7536277501349
86,1436985216984,53.8832432656245
87,1436985217724,64.5867039177938
88,1436985218439,54.0589801358899
89,1436985219197,68.3213383205628
90,1436985219926,55.1016399210535
91,1436985220643,62.2522828253943
92,1436985221379,60.3970012010721
93,1436985222104,56.4850498444148
94,1436985222816,70.0774572547612
95,1436985223538,55.8733348236222
96,1436985224195,66.4190926901702
97,1436985224935,73.214597015806
98,1436985225688,51.9248216756124
99,1436985226401,62.7492815511703
100,1436985227099,59.3124451578455
101,1436985227896,69.7941262887958
102,1436985228596,71.2100157154863
103,1436985229326,56.0977887986773
104,1436985230049,68.2228439476355
105,1436985230800,71.7996519901318
106,1436985231511,50.5865603518075
107,1436985232178,64.6135965035448
108,1436985232901,65.5574864125488
109,1436985233657,67.2442401726563
110,1436985234403,58.0183706805926
111,1436985235147,62.4772171981204
112,1436985235867,69.0268542626085
113,1436985236592,65.9748731908521
114,1436985237249,47.3587581635976
115,1436985237925,65.0292469384199
116,1436985238644,59.3199712440508
117,1436985239410,66.1221367562642
118,1436985240177,56.0403037327772
119,1436985240916,68.5964240947554
120,1436985241653,67.5394016736421
121,1436985242376,63.1294414936575
122,1436985243112,47.9519149158667
123,1436985243865,62.4891490477261
124,1436985244580,62.5136025145643
125,1436985245313,63.0520325624381
126,1436985246052,66.0346801595358
127,1436985246778,61.2552461282047
128,1436985247479,65.7158867441465
129,1436985248090,71.324825223935
130,1436985248793,57.8722707216548
131,1436985249505,63.9196002848439
132,1436985250256,61.9200309520808
133,1436985250964,68.9869220891309
134,1436985251677,62.8330477758027
135,1436985252410,55.6996819480064
136,1436985253110,67.0496127725647
137,1436985253818,69.5949345277851
138,1436985254534,62.4182428852076
139,1436985255281,72.2010690038856
140,1436985255997,56.5119969571107
141,1436985256730,62.0055844251298
142,1436985257411,53.0487728431999
143,1436985258071,45.1608000052251
144,1436985258789,65.5431890432249
145,1436985259492,61.7719339866354
146,1436985260240,62.3455016266667
147,1436985260871,49.5768579640148
148,1436985261536,58.3009820311919
149,1436985262222,61.9118704247222
150,1436985262936,59.1115567868714
151,1436985263698,64.0194765749792
152,1436985264419,54.3173949544963
153,1436985265187,49.6873613725248
154,1436985265914,71.9621775482148
155,1436985266653,62.7482399766235
156,1436985267342,55.3482215798109
157,1436985267972,66.6470704822874
158,1436985268667,59.0346091540525
159,1436985269379,49.7519167869243
160,1436985270099,64.4765759115228
161,1436985270811,58.5220308494861
162,1436985271554,54.9281572350834
163,1436985272180,59.710307167223
164,1436985272872,55.7865774688626
165,1436985273605,72.7520572283307
166,1436985274312,63.1692348335673
167,1436985275033,40.6852361915062
168,1436985275746,70.8344100207765
169,1436985276447,69.7812728650005
170,1436985277192,48.6263992353901
171,1436985277897,67.5163191157294
172,1436985278584,73.1300438087845
173,1436985279298,53.9736888034416
174,1436985280025,64.4308474855006
175,1436985280750,67.9059164786179
176,1436985281481,63.7135311104913
177,1436985282211,65.7741814648648
178,1436985282930,71.493653804538
179,1436985283663,50.0254654584451
180,1436985284368,66.9229336865281
181,1436985285059,65.314610509407
182,1436985285775,52.9029070272666
183,1436985286505,66.9296212286921
184,1436985287237,70.1623373467832
185,1436985287976,53.2909630464948
186,1436985288604,62.5452111523757
187,1436985289292,51.113212546444
188,1436985290014,67.8807878290229
189,1436985290682,54.4286998607155
190,1436985291326,56.0160654158578
191,1436985292033,66.1406915419358
192,1436985292758,71.3314056862344
193,1436985293487,54.285104125203
194,1436985294224,68.1949220414533
195,1436985294960,72.6957507776355
196,1436985295687,52.5556287407122
197,1436985296426,70.8094430858176
198,1436985297167,74.2010834275876
199,1436985297876,48.2809184318389
200,1436985298545,67.091134752648
201,1436985299227,54.0265338499421
202,1436985299949,67.883948564432
203,1436985300662,45.2127015167734
204,1436985301389,59.9823846240909
205,1436985302101,69.9871744920797
206,1436985302821,51.3514620309294
207,1436985303550,53.5492117177811
208,1436985304302,67.4900474366769
209,1436985304996,57.2041706143538
210,1436985305713,54.5590763929855
211,1436985306416,72.4210577863681
212,1436985307141,62.9246391608333
213,1436985307871,55.7837541520205
214,1436985308582,67.7784646977514
215,1436985309210,66.8797021376216
216,1436985309914,64.8954679907549
217,1436985310644,51.4680801072013
218,1436985311375,54.7640239499115
219,1436985312078,65.0612735928631
220,1436985312711,68.3070732018834
221,1436985313415,55.8775590178195
222,1436985314141,70.3008480393483
223,1436985314873,67.8855351108486
224,1436985315590,51.657395496352
225,1436985316329,65.0643747799623
226,1436985317054,62.2675975895749
227,1436985317781,58.9421205320557
228,1436985318484,53.8321856149371
229,1436985319161,47.2059519988303
230,1436985319881,67.0835033843308
231,1436985320605,72.8698728985561
232,1436985321324,59.9201803195595
233,1436985322069,64.087191138697
234,1436985322804,52.8052490819327
235,1436985323525,69.9142752953478
236,1436985324224,69.9889674471961
237,1436985324963,53.5557218904933
238,1436985325674,63.4841389733241
239,1436985326428,62.612436064595
240,1436985327105,70.745311263925
241,1436985327832,71.0820893789206
242,1436985328542,54.5937626664914
243,1436985329182,43.3308959279098
244,1436985329915,60.7385058852767
245,1436985330637,71.6537150163
246,1436985331372,66.8142411428629
247,1436985332099,47.9326631558003
248,1436985332826,65.4461364680539
249,1436985333542,72.1856955775283
250,1436985334205,50.4437185820786
251,1436985334879,60.3371906758581
252,1436985335613,58.2751506690104
253,1436985336333,68.2743942458367
254,1436985337069,67.686504917947
255,1436985337804,55.8956760858878
256,1436985338572,53.4182004877632
257,1436985339300,55.0459601570871
258,1436985339954,64.1192270747204
259,1436985340697,72.0793441428316
260,1436985341404,57.2386196093111
261,1436985342125,61.4299147499588
262,1436985342844,50.9602322048956
263,1436985343581,71.7720808160451
264,1436985344343,58.9377792177259
265,1436985345061,58.1031940926733
266,1436985345759,66.9144260784802
267,1436985346480,67.4278197499588
268,1436985347207,58.895215340401
269,1436985347936,55.4334736813011
270,1436985348669,47.9717618266031
271,1436985349339,66.5753544727527
272,1436985349965,70.0417221636198
273,1436985351545,65.1031218009589
274,1436985352256,69.6184669410794
275,1436985352975,65.0104075383271
276,1436985353654,54.5175257706126
277,1436985354320,62.884319058874
278,1436985355039,66.5592997217494
279,1436985355764,65.3778062454852
280,1436985356471,53.4078757274323
281,1436985357230,62.9758859725471
282,1436985357911,47.3792245260119
283,1436985358682,64.9181422152669
284,1436985359402,72.2626676630085
285,1436985360151,52.1731371069403
286,1436985360811,48.627149094034
287,1436985361547,58.8951712891954
288,1436985362281,70.0277070586403
289,1436985362989,67.2452735830178
290,1436985363718,60.2949097089893
291,1436985364516,64.9045586076438
292,1436985365157,56.7377213356882
293,1436985365863,70.9326994362072
294,1436985366582,71.6990224394397
295,1436985367307,57.8432767686703
296,1436985368049,66.4539690190695
297,1436985368737,65.898759085286
298,1436985369373,73.8884192757906
299,1436985370059,72.8727884431359
300,1436985370787,62.0138410616363
301,1436985371456,64.9308470439802
302,1436985373056,54.7343914355845
303,1436985373760,51.9193131773747
304,1436985374480,50.5354843280554
305,1436985375247,71.7444378970027
306,1436985375938,70.0225893023838
307,1436985376634,58.8800143393556
308,1436985377364,65.7400473818921
309,1436985378070,50.8425005543914
310,1436985378814,63.9984664936956
311,1436985379555,55.7067117340887
312,1436985380284,54.2384797486254
313,1436985381005,67.1371865679911
314,1436985381601,60.8068882420683
315,1436985382313,62.7435975597772
316,1436985383044,46.9305320428265
317,1436985383788,56.084684874312
318,1436985384442,69.9745042787397
319,1436985385945,62.4130313698563
320,1436985386652,65.7308840971001
321,1436985387393,62.0139881390349
322,1436985388135,58.6126004689162
323,1436985388857,55.6942383299788
324,1436985389608,60.3677360473015
325,1436985390335,71.7846264587418
326,1436985391072,69.6861372018377
327,1436985391772,53.1215889115207
328,1436985392484,53.2653147495135
329,1436985393305,48.1391662060429
330,1436985393990,69.9315375083274
331,1436985394670,71.8914326767934
332,1436985395415,46.2890422506665
333,1436985396112,66.1047980867077
334,1436985396840,64.4415363848943
335,1436985397587,69.7057331071015
336,1436985398426,50.6528850302327
337,1436985399153,59.0478923233862
338,1436985399929,66.323354643028
339,1436985400652,70.4173889765868
340,1436985401375,54.7157661080826
341,1436985402090,62.4208066600766
342,1436985402757,57.4895457198468
343,1436985403499,68.2002522561775
344,1436985404242,73.2881752517808
345,1436985404898,53.9555404395478
346,1436985405644,62.9115763221963
347,1436985406429,47.5475284078197
348,1436985407104,68.5749795316884
349,1436985408619,60.7223943814123
350,1436985409261,58.0680880747556
351,1436985409984,48.3619259677533
352,1436985410716,65.9795591445041
353,1436985411421,64.2551439001003
354,1436985412119,61.4083333848451
355,1436985412809,66.3178486706993
356,1436985413529,57.6169298706393
357,1436985414348,69.0251983653458
358,1436985415075,70.6714209251156
359,1436985415799,55.8154514071722
360,1436985416504,62.5762837012773
361,1436985417268,47.6594897971741
362,1436985417941,72.20653766427
363,1436985418668,63.5198560326939
364,1436985419390,51.4051990076118
365,1436985420109,64.6081756267626
366,1436985420827,55.5682543989045
367,1436985421566,70.3485671628653
368,1436985422282,68.9075023780462
369,1436985422927,47.1278980364781
370,1436985423656,44.7264120271058
371,1436985424389,53.8876016087817
372,1436985425124,69.6683001757915
373,1436985425842,72.2471865788062
374,1436985426521,49.5996739606233
375,1436985427202,57.4531122269399
376,1436985427957,51.6798089137625
377,1436985428686,70.3617873627085
378,1436985429398,67.6573636063052
379,1436985430061,62.0943670134525
380,1436985430750,64.1999600839475
381,1436985431469,50.7541761396626
382,1436985432187,68.4627149537733
383,1436985432930,71.6395396547323
384,1436985433574,65.4995598735494
385,1436985434279,67.6085149752392
386,1436985435014,59.9414790083558
387,1436985435732,65.4339917333776
388,1436985436451,49.6961341737175
389,1436985437211,65.572427177734
390,1436985437939,56.907707206609
391,1436985438639,56.2968068265395
392,1436985439287,62.2005712591118
393,1436985440000,58.1938046687693
394,1436985440733,72.755455367931
395,1436985441456,69.0184598614058
396,1436985442210,68.933152138287
397,1436985442948,63.315969129684
398,1436985443600,67.886620416692
399,1436985444319,57.3410007936171
400,1436985445006,54.007579704342
401,1436985445728,61.5673001620475
402,1436985446465,57.6259311174072
403,1436985447162,56.6323972547194
404,1436985447840,64.0150621944058
405,1436985448653,46.6000013457562
406,1436985449365,66.2400372912337
407,1436985450057,60.8573946667592
408,1436985450783,71.251147250631
409,1436985451509,59.0126547526634
410,1436985452217,53.3533588942849
411,1436985452982,63.8442274640932
412,1436985453666,58.3738621137663
413,1436985454338,58.850682164255
414,1436985455036,47.7848851772821
415,1436985455681,45.7814555473022
416,1436985456412,59.3397153132615
417,1436985457106,58.2113913365214
418,1436985457832,64.3816154114787
419,1436985458583,61.079810822099
420,1436985459314,55.018694551161
421,1436985460102,61.1477187625665
422,1436985460835,45.897502716455
423,1436985461572,72.9944457568425
424,1436985462293,56.1066587928581
425,1436985462984,71.6916400869142
426,1436985463663,69.1727447636091
427,1436985464403,49.2708692051017
428,1436985465133,58.9135857318522
429,1436985465857,47.9631985362591
430,1436985466600,44.2320132865482
431,1436985467330,63.1566482061198
432,1436985468089,59.1461051180985
433,1436985468812,64.8286805549499
434,1436985469538,67.1720269860238
435,1436985470212,55.454968841804
436,1436985470890,67.6309162113299
437,1436985471577,59.4386751351747
438,1436985472311,70.9436197664154
439,1436985473067,73.1281971110619
440,1436985473731,57.8065575636535
441,1436985474388,62.6405618280881
442,1436985475126,57.6304736247553
443,1436985475861,63.5684707534713
444,1436985476551,53.921118136593
445,1436985477240,68.0314910344736
446,1436985477978,53.9728932193317
447,1436985478750,68.2444121125615
448,1436985479477,62.5386408139625
449,1436985480201,49.0816679344309
450,1436985480936,69.7649350368479
451,1436985481685,70.7325516082536
452,1436985482417,50.7165211714059
453,1436985483144,62.3552188883155
454,1436985483835,57.1512039508145
455,1436985484507,69.860694318006
456,1436985485181,66.6914358460333
457,1436985485865,60.5439252637462
458,1436985486622,60.2689410211495
459,1436985487345,59.403884575999
460,1436985488109,65.8150069781561
461,1436985488870,56.2993190644998
462,1436985489530,68.5190425640156
463,1436985490212,61.7691487670666
464,1436985490943,51.5566511236061
465,1436985491678,66.2868837265122
466,1436985492399,52.3478047428639
467,1436985493111,64.9150337660721
468,1436985493813,50.7731919573617
469,1436985494460,66.9246670900913
470,1436985495056,45.8129976740736
471,1436985495758,62.3045796253487
472,1436985496494,57.238007757981
473,1436985497239,68.3145937362277
474,1436985497977,49.658052670756
475,1436985498771,63.2554647655911
476,1436985499495,70.0570535549828
477,1436985500140,60.8766064761411
478,1436985500893,72.0982890153567
479,1436985501623,54.3220584440986
480,1436985502356,61.3395445268294
481,1436985503083,58.9259681796689
482,1436985503802,63.2812227026569
483,1436985504484,50.5680674957943
484,1436985505174,53.3447414282371
485,1436985505893,65.7017181654442
486,1436985506622,68.3675990458931
487,1436985507367,70.3798398249732
488,1436985508089,55.5881228125268
489,1436985508871,62.8232901275029
490,1436985509575,57.5837969941279
491,1436985510342,66.2258673254209
492,1436985511061,62.9654324989394
493,1436985511792,68.2394789390405
494,1436985512523,73.1452493592207
495,1436985513272,47.1148814468314
496,1436985513984,65.0606275321914
497,1436985514661,57.4411726907869
498,1436985515298,58.7239215072643
499,1436985515995,69.8202385208436
500,1436985516666,63.7483039599852
501,1436985517374,48.9938103475435
502,1436985518103,45.0984937740525
503,1436985518825,69.9657418614393
504,1436985519529,68.1088670123698
505,1436985520216,59.4090799369986
506,1436985520959,69.5216572935342
507,1436985521695,54.7820640324756
508,1436985522366,60.9026814850394
509,1436985522968,67.4209781815669
510,1436985523624,49.5607780849424
511,1436985524331,61.5205999308794
512,1436985525067,56.2870629128711
513,1436985525725,68.8498833608371
514,1436985526441,71.4188156954821
515,1436985527172,52.6939148038398
516,1436985527900,52.9763869397275
517,1436985528618,55.5595322409915
518,1436985529426,71.1336730969034
519,1436985530075,59.7061391568029
520,1436985530652,68.9286718162586
521,1436985531344,59.5323828392593
522,1436985532082,69.7623722210613
523,1436985532799,73.4599588609543
524,1436985533514,54.1960883848032
525,1436985534224,44.465785325685
526,1436985534912,59.0633070663881
527,1436985535585,61.8241044890491
528,1436985536319,50.0578590154251
529,1436985537096,68.4430082187973
530,1436985537819,56.7825163356049
531,1436985538594,69.6227943215983
532,1436985539331,69.6332571696454
533,1436985540031,55.8389441183377
534,1436985540695,65.3875236228379
535,1436985541391,47.7351766905198
536,1436985542101,50.9969934317946
537,1436985542824,61.1923055803853
538,1436985543546,66.1161565111005
539,1436985544265,48.5290090326489
540,1436985544927,72.1286867645868
541,1436985545598,64.6332289842173
542,1436985546319,64.0411684083007
543,1436985547052,47.9403695018102
544,1436985547780,54.6235295930008
545,1436985548502,50.5134154393642
546,1436985549209,49.7769484473556
547,1436985549825,66.5128403440516
548,1436985550473,54.2385222189878
549,1436985551215,67.466617950781
550,1436985551943,53.3571477273043
551,1436985552686,70.6395265214554
552,1436985553442,64.9494113297882
553,1436985554169,62.2409011424258
554,1436985554883,55.1840224282855
555,1436985555518,61.0725280238869
556,1436985556232,71.0242291429619
557,1436985556950,61.408733208113
558,1436985557677,60.8449038044815
559,1436985558459,71.1773427244193
560,1436985559195,62.184186896455
561,1436985559897,68.9914671142276
562,1436985560574,52.7577434114067
563,1436985561267,67.3972037190694
564,1436985561983,58.4261191826462
565,1436985562713,57.1917392652762
566,1436985563485,61.7179494154482
567,1436985564229,60.3455379393333
568,1436985564953,64.2345507214274
569,1436985565656,44.5059962995473
570,1436985566279,60.9773230745515
571,1436985567652,51.4819277077242
572,1436985568367,54.1454049813739
573,1436985569109,67.6000169753999
574,1436985569834,62.6239447861832
575,1436985570524,49.9697732553382
