id,attr_time,attr_db
1,1436985154121,37.2807944015513
2,1436985154843,25.185636514699
3,1436985155572,33.3908371483138
4,1436985156336,55.3369196311869
5,1436985157066,58.62178985489
6,1436985157789,44.1990307036822
7,1436985158501,42.8904482599709
8,1436985159275,38.0565631101828
9,1436985160002,63.3560504440225
10,1436985160776,40.2341566885956
11,1436985161487,63.9500448404792
12,1436985162230,28.3723914977876
13,1436985162977,43.7606376581615
14,1436985163716,39.9402003529858
15,1436985164441,50.3350881447206
16,1436985165125,57.6938901389468
17,1436985165797,40.9805656295824
18,1436985166492,58.3082246367493
19,1436985167233,41.4487519769931
20,1436985167955,48.7246801640797
21,1436985168702,42.4763506354833
22,1436985169425,39.257717579161
23,1436985170132,27.9617912795531
24,1436985170774,61.058260081447
25,1436985171453,41.7719078490498
26,1436985172169,33.1077994885034
27,1436985172880,33.1247317194147
28,1436985173571,55.7319154446908
29,1436985174317,51.7193362713734
30,1436985175060,40.7854345002528
31,1436985175796,54.5224889038136
32,1436985176540,30.5606679167053
33,1436985177244,53.9681221829523
34,1436985177913,43.7265827954737
35,1436985178659,45.1255654833404
36,1436985179386,57.2135223255518
37,1436985180081,38.9147856764075
38,1436985180732,54.2780522843427
39,1436985181462,40.3829830206732
40,1436985182194,39.9623527941296
41,1436985182934,41.4333818481375
42,1436985183672,52.7227747928717
43,1436985184401,40.9837984893359
44,1436985185136,61.9139126046471
45,1436985185862,55.4431780599349
46,1436985186614,51.2158469097644
47,1436985187342,56.7228056003835
48,1436985188026,51.7845562459004
49,1436985188773,42.3818848607368
50,1436985189504,55.8478440382423
51,1436985190223,50.0511892117526
52,1436985190875,48.5104050013402
53,1436985191564,43.5933994647905
54,1436985192285,59.9458240780136
55,1436985193001,38.8086300605532
56,1436985193751,62.0715119489026
57,1436985194509,56.8371864704334
58,1436985195261,38.4070591352196
59,1436985195994,49.1795134969528
60,1436985196724,51.1237926973201
61,1436985197443,53.0066547598709
62,1436985198130,29.3447252269019
63,1436985198855,44.9251417473463
64,1436985199581,44.7755795041991
65,1436985200437,26.1864004331441
66,1436985201152,41.2186157634833
67,1436985201909,39.3681997056078
68,1436985202633,39.5707499867025
69,1436985203366,59.6236048129173
70,1436985204049,52.1422178547558
71,1436985204745,43.9674531141535
72,1436985205469,41.2462514933234
73,1436985206176,57.127803659349
74,1436985206899,43.0232429590709
75,1436985207562,43.3790423999715
76,1436985208235,53.8228710080605
77,1436985208955,50.3541901226612
78,1436985209700,48.2478627411693
79,1436985210515,53.765575356287
80,1436985211203,49.3037355379008
81,1436985211887,41.029698433599
82,1436985212609,39.2353215380495
83,1436985213348,37.049346072908
84,1436985214086,31.8684417072273
85,1436985214817,30.3678100630965
86,1436985215547,54.526245903496
87,1436985216298,50.848853346936
88,1436985217039,43.6963993628666
89,1436985217729,63.9664683748986
90,1436985218377,28.8063300204181
91,1436985219058,59.9545733232272
92,1436985219773,44.9892798205407
93,1436985220495,47.3639878998624
94,1436985221212,54.7759543659336
95,1436985221927,33.2101973039655
96,1436985222626,57.7958200205544
97,1436985223359,46.4707570257455
98,1436985224107,44.0196447577044
99,1436985224914,51.2217043069885
100,1436985225621,34.9704413785683
101,1436985226376,56.5735994024767
102,1436985227103,49.3666048157036
103,1436985227824,53.0632315593734
104,1436985228518,49.0669224007405
105,1436985229166,45.3037170933987
106,1436985229871,60.0698231982039
107,1436985230646,55.232796298664
108,1436985231358,42.1015308218493
109,1436985232063,42.5309502747833
110,1436985232799,62.5974029044867
111,1436985233549,62.9799531607163
112,1436985234285,39.2766337693215
113,1436985235018,55.020781859593
114,1436985235827,48.7146919101106
115,1436985236558,41.585139890549
116,1436985237297,38.4143714897832
117,1436985238058,60.3103177218079
118,1436985238718,54.6478788776007
119,1436985239451,41.7175993572324
120,1436985240193,55.4020939293103
121,1436985240926,47.5851153125845
122,1436985241668,59.352753612119
123,1436985242487,64.0900793108628
124,1436985243217,51.7017939322402
125,1436985243954,52.4742922969194
126,1436985244680,44.4576921818104
127,1436985245399,51.260270162703
128,1436985246207,62.1348208208148
129,1436985246936,55.8340217927203
130,1436985247670,55.5962478369317
131,1436985248406,49.4032188043535
132,1436985249091,56.5981174680038
133,1436985249815,43.6125666504881
134,1436985250664,46.1246296943861
135,1436985251485,41.6629096513358
136,1436985252121,42.3525606270199
137,1436985252716,55.523379052909
138,1436985253407,41.1773001684372
139,1436985254139,40.5082608760004
140,1436985254885,48.1115759673036
141,1436985255669,55.9189892566225
142,1436985256385,42.414241954784
143,1436985257116,59.2022720418113
144,1436985257836,45.8128654678408
145,1436985258536,48.0560185505921
146,1436985259229,41.4152757333726
147,1436985259990,42.1154334008209
148,1436985260765,44.5935253220525
149,1436985261496,37.9827932709676
150,1436985262222,35.589362016469
151,1436985262981,49.2037428673221
152,1436985263717,44.6040580013534
153,1436985264450,56.219631226204
154,1436985265147,39.5896100831104
155,1436985265806,55.2421163536612
156,1436985266532,46.4429435244358
157,1436985267262,36.3201827984918
158,1436985268004,36.4799175077666
159,1436985268742,44.220542966199
160,1436985269439,43.1629413827779
161,1436985270106,56.4655445856444
162,1436985270825,60.6310092593019
163,1436985271492,47.7188782013982
164,1436985272152,41.9867516213096
165,1436985272887,49.9602683757007
166,1436985273610,49.4504651156776
167,1436985274343,53.3349530031278
168,1436985275064,34.901214359588
169,1436985275801,46.086414600376
170,1436985276546,53.8921825015343
171,1436985277285,29.2823917063423
172,1436985278003,42.4621233988111
173,1436985278779,56.6682048963321
174,1436985279458,45.5620008744823
175,1436985280150,46.6483403314597
176,1436985280866,48.7698704403233
177,1436985281620,53.8172771424514
178,1436985282394,51.7954785323326
179,1436985283115,42.5869082060546
180,1436985283849,50.299326916822
181,1436985284572,35.7954051989082
182,1436985285307,37.9486028994402
183,1436985286015,53.1317449578481
184,1436985286705,40.3149004086893
185,1436985287448,57.5431501918381
186,1436985288168,46.0064682599654
187,1436985288843,54.5619349092008
188,1436985289454,49.972106742127
189,1436985290190,39.3283411548777
190,1436985290911,43.109937574163
191,1436985291652,51.3862063714098
192,1436985292377,42.0878139978139
193,1436985293129,34.0781486966362
194,1436985293858,43.6558516327059
195,1436985294589,52.156340864026
196,1436985295331,39.2134076012567
197,1436985296073,44.6281939295454
198,1436985296784,40.1579639730228
199,1436985297525,38.7578431382746
200,1436985298310,49.3752455061057
201,1436985299050,40.2933181109471
202,1436985299774,61.8323091776727
203,1436985300445,47.3515894901611
204,1436985301254,32.5462903892535
205,1436985301982,60.8104348725525
206,1436985302734,41.2202806674545
207,1436985303441,36.4431085811924
208,1436985304091,37.8487307054102
209,1436985304782,51.9243334220555
210,1436985305512,36.3173400802252
211,1436985306183,54.9385622228008
212,1436985306930,47.3907845422806
213,1436985307663,53.2245021405458
214,1436985308397,60.3870815664609
215,1436985309129,50.6573541099654
216,1436985309861,47.949828516693
217,1436985310528,42.0569232830905
218,1436985311255,36.7374343297949
219,1436985312006,54.4416144495428
220,1436985312581,49.0052625709903
221,1436985313237,49.6554624062156
222,1436985313918,41.2813840828908
223,1436985314666,43.7020396299448
224,1436985315429,56.0292200430714
225,1436985316266,53.4229384746333
226,1436985316967,33.2925643455719
227,1436985317700,50.7742090686068
228,1436985318439,49.6375111331303
229,1436985319181,39.3571170887253
230,1436985319912,56.3356818324802
231,1436985320661,59.7281167015888
232,1436985321402,43.7007153141339
233,1436985322125,55.1412268382016
234,1436985322855,49.7006600959223
235,1436985323609,60.775276700367
236,1436985324354,54.5010281611796
237,1436985325055,47.6085782446282
238,1436985325865,44.1289262454017
239,1436985326596,56.8951109930776
240,1436985327323,49.984882952937
241,1436985328060,50.7914715272018
242,1436985328794,55.7032261478456
243,1436985329528,45.6440234515254
244,1436985330235,53.837272348215
245,1436985330885,51.5017869011682
246,1436985331646,60.490510760339
247,1436985332375,49.6768747021559
248,1436985333050,49.7659444300653
249,1436985333764,56.258357669668
250,1436985334490,44.5762240852191
251,1436985335293,51.0011594036583
252,1436985336027,63.7530599517869
253,1436985336697,39.641353315627
254,1436985338166,56.0931076812041
255,1436985338855,51.978841451894
256,1436985339605,55.6077460127543
257,1436985340359,40.1865991347198
258,1436985341031,44.8693475773121
259,1436985341660,55.8809651038667
260,1436985342361,63.0338781827533
261,1436985343102,43.3047321674129
262,1436985343815,48.0376002004693
263,1436985344547,52.3492320229415
264,1436985345228,53.9979606934592
265,1436985346003,46.8501569702713
266,1436985348164,54.138915087002
267,1436985348848,57.6778715623797
268,1436985349540,40.9538971814712
269,1436985350197,57.4751724231067
270,1436985350952,45.7323992817931
271,1436985351617,61.251894686596
272,1436985352362,62.218261658095
273,1436985353007,67.6223904704205
274,1436985353712,52.1096985033055
275,1436985354432,36.0898690429397
276,1436985355168,51.5289021960599
277,1436985355858,54.6702598915775
278,1436985356587,47.0446896461549
279,1436985357317,48.530181572596
280,1436985358063,51.5355343399093
281,1436985358797,46.2301659453541
282,1436985359545,54.9908730362364
283,1436985360273,38.6814424672467
284,1436985361043,59.6185465621803
285,1436985362976,41.2611425063293
286,1436985363669,45.1544006215686
287,1436985364394,63.4436820970234
288,1436985365122,57.865273065135
289,1436985365845,61.7040715890383
290,1436985366509,55.569657767921
291,1436985367110,47.1676024558752
292,1436985367835,45.2115258668615
293,1436985368564,52.0536306918366
294,1436985369301,59.3925090713302
295,1436985370028,52.7577477767076
296,1436985370752,37.4300685253165
297,1436985372366,48.2583155428706
298,1436985373131,44.2201074985431
299,1436985373797,63.7362761150813
300,1436985374540,32.4537822955541
301,1436985375223,59.3633046932563
302,1436985375974,45.7639064086888
303,1436985376695,49.8337202916416
304,1436985377402,33.02585906236
305,1436985378150,49.6034997774274
306,1436985378842,44.4886113953993
307,1436985379529,60.9488579454795
308,1436985380254,49.387377760109
309,1436985381038,45.9926544653843
310,1436985381746,47.4465461940814
311,1436985382412,48.1320633277286
312,1436985383154,38.605081948629
313,1436985383871,47.0502454341205
314,1436985384592,53.0537374101736
315,1436985385372,61.3464028303336
316,1436985386151,35.34330955594
317,1436985386893,57.9076123929395
318,1436985387628,55.1120364238817
319,1436985388360,59.8962502173417
320,1436985389030,54.2136352898877
321,1436985389774,57.2422367515775
322,1436985390560,53.6765644972184
323,1436985391289,55.1931375342159
324,1436985392007,49.306330599103
325,1436985392657,65.7965616257625
326,1436985393341,47.7135140274829
327,1436985394066,61.8431292819167
328,1436985394810,63.2499207748114
329,1436985395552,44.7889025440342
330,1436985396374,50.2855958438337
331,1436985397111,42.925128930603
332,1436985397846,35.1870552568259
333,1436985398611,65.1123413237185
334,1436985399342,60.1329190870233
335,1436985400079,52.8914765602057
336,1436985400827,58.8039265740267
337,1436985401566,34.8707098131618
338,1436985402374,66.1991762288593
339,1436985403137,42.9912342341889
340,1436985403874,57.7122246818153
341,1436985404623,43.3697151598793
342,1436985405440,46.5182270012693
343,1436985406214,58.2336736803841
344,1436985406930,62.3046435452676
345,1436985407664,48.9807336390609
346,1436985408398,57.0282474374442
347,1436985409135,40.6840613416394
348,1436985409874,59.8976362859633
349,1436985410689,41.9665227755802
350,1436985411427,53.3543431171849
351,1436985412114,61.654097944394
352,1436985412771,51.6266341639665
353,1436985413506,50.691637191209
354,1436985414304,54.3741781564367
355,1436985415024,40.3171099103698
356,1436985415816,42.1170789812144
357,1436985416548,49.0479491412244
358,1436985417308,49.185693254232
359,1436985418052,51.0506460277
360,1436985418793,68.4544237992588
361,1436985419512,39.0426812835788
362,1436985420259,55.3325752960055
363,1436985420985,41.68450983043
364,1436985421726,65.813942741008
365,1436985422448,57.4874276344331
366,1436985423135,47.0221410479769
367,1436985423838,47.2183937354573
368,1436985424568,50.2305930442762
369,1436985425322,42.8834558029436
370,1436985426049,55.2461618634873
371,1436985426739,39.8582974336981
372,1436985427435,56.1625922822463
373,1436985428171,53.110195689952
374,1436985428886,47.1478017582071
375,1436985429619,52.5299207391192
376,1436985430344,49.9566812790356
377,1436985431051,54.1077769692336
378,1436985431736,51.396684682114
379,1436985432465,49.9451216291728
380,1436985433131,58.4916315297341
381,1436985433696,56.7966616935055
382,1436985434425,63.2276061703257
383,1436985435170,58.4765285680522
384,1436985435903,53.4568231441108
385,1436985436660,53.3220940155216
386,1436985437460,37.4039298521778
387,1436985438147,44.9067491744092
388,1436985438844,69.4647307645844
389,1436985439572,62.3251446451146
390,1436985440336,49.0517763407273
391,1436985441065,61.2236242826176
392,1436985441800,63.2787402205701
393,1436985442526,54.4567827750026
394,1436985443286,48.018206981266
395,1436985444028,70.1908844315461
396,1436985444755,53.2435381864787
397,1436985445535,35.3014105158049
398,1436985446281,44.7640245332799
399,1436985447017,59.0658815021065
400,1436985447752,41.1082726045887
401,1436985448495,60.6674051292111
402,1436985449229,44.3710174324865
403,1436985449963,36.9095010602224
404,1436985450703,50.9196269245498
405,1436985451444,54.0140681596507
406,1436985452163,45.8684277397469
407,1436985452888,66.4276024752364
408,1436985453586,56.5730020342942
409,1436985454247,54.498535437873
410,1436985455009,34.8467403283795
411,1436985455742,53.8349518376082
412,1436985456547,51.1789391687906
413,1436985457284,59.2122211086438
414,1436985457988,40.5249138938608
415,1436985458671,63.9185281384306
416,1436985459405,51.5851406135638
417,1436985460134,45.7053772535369
418,1436985460888,38.8202153296595
419,1436985461625,68.8711271481311
420,1436985462358,56.4731092551292
421,1436985463088,47.5439150772088
422,1436985463702,49.0127396337744
423,1436985464398,37.1687942923669
424,1436985465144,61.8925803517536
425,1436985465854,59.1587432759222
426,1436985466576,36.9393198513694
427,1436985467318,61.6897270850922
428,1436985468056,55.3448838150251
429,1436985468796,63.4198336510187
430,1436985469530,57.5062470481146
431,1436985470296,56.5738073696569
432,1436985471030,52.593603570591
433,1436985471749,41.2997462877807
434,1436985472473,61.8922863872186
435,1436985473224,62.2743021492073
436,1436985473987,53.9406263205869
437,1436985474616,45.6241475708869
438,1436985475319,43.8857510560664
439,1436985476037,45.9241949715794
440,1436985476772,51.2188087887754
441,1436985477503,44.0197812820754
442,1436985478279,48.3197647185576
443,1436985478903,41.4792572909023
444,1436985479581,54.8750086858872
445,1436985480291,51.6420511872164
446,1436985481027,47.9497647842269
447,1436985481754,42.413270233642
448,1436985482446,44.1409212834115
449,1436985483191,41.9445509500582
450,1436985483911,44.9375861022011
451,1436985484639,48.6203149963788
452,1436985485377,43.401579653234
453,1436985486114,55.6398829898948
454,1436985486847,59.8638362203362
455,1436985487575,52.8053898222165
456,1436985488316,43.9753175047104
457,1436985489038,44.7588871862285
458,1436985489761,36.0853449304539
459,1436985490478,59.786551588683
460,1436985491213,33.4183044034433
461,1436985491954,57.4092667473789
462,1436985492694,57.7354885889541
463,1436985493435,57.2890908477204
464,1436985494201,57.1462253744454
465,1436985494784,59.0214290303165
466,1436985495482,50.9276197830238
467,1436985496236,35.3637934322087
468,1436985496968,59.2761126346741
469,1436985497714,57.7944489595306
470,1436985498469,41.9066215908961
471,1436985499162,54.7922000586492
472,1436985499889,47.8815665328404
473,1436985500611,43.6320218200834
474,1436985501331,55.1311078266331
475,1436985502058,40.9948746568864
476,1436985502802,59.9514337775075
477,1436985503550,44.8679707164836
478,1436985504273,36.3544637922974
479,1436985504957,56.4703990723758
480,1436985505701,38.043698950717
481,1436985506428,64.0547723267872
482,1436985507163,29.0320044413631
483,1436985507988,45.74451893373
484,1436985508668,59.8992691621901
485,1436985509396,65.0444117690705
486,1436985510127,58.2000435069857
487,1436985510936,38.6727809437156
488,1436985511676,52.5156947832254
489,1436985512410,50.5067484575904
490,1436985513130,56.1774007921257
491,1436985513875,60.2403814786442
492,1436985514608,56.8059692157828
493,1436985515291,50.3986172763051
494,1436985516097,43.2943945635944
495,1436985516823,50.7870866769644
496,1436985517542,43.2346060755905
497,1436985518351,40.2590182096643
498,1436985519081,41.6777779859046
499,1436985519786,63.2944289789271
500,1436985520506,46.2062329032357
501,1436985521245,40.98010982808
502,1436985521987,60.6544662455861
503,1436985522718,37.9013540706713
504,1436985523459,48.5941800668486
505,1436985524251,39.3354140997481
506,1436985524951,33.3648562074407
507,1436985525661,42.8983991660812
508,1436985526415,55.4380346265453
509,1436985527163,62.7623067086517
510,1436985527886,64.2662003451338
511,1436985528651,48.084962120265
512,1436985529383,60.5758576661965
513,1436985530050,54.4924077796118
514,1436985530696,53.0905659033581
515,1436985531399,56.300650348076
516,1436985532125,54.7780851274997
517,1436985532842,51.0045011467242
518,1436985533573,38.9716919754174
519,1436985534321,45.7411217354403
520,1436985534969,61.5938098429247
521,1436985535578,58.0455714463781
522,1436985536291,58.1528374052805
523,1436985537031,52.9236643987944
524,1436985537736,56.2921799457577
525,1436985538483,58.7303489438961
526,1436985539246,43.0418277278705
527,1436985540027,54.5589255267719
528,1436985540766,58.1891408843094
529,1436985542068,43.7376411635435
530,1436985542767,39.3445550740424
531,1436985543459,62.6890106410612
532,1436985544109,35.6312204307466
533,1436985544799,45.4436420990199
534,1436985545524,55.7044135627023
535,1436985546163,62.2944424765395
536,1436985546858,39.4016328637672
537,1436985547589,41.8499771914324
538,1436985548295,53.3101337735851
539,1436985548965,55.0766934365837
540,1436985549694,58.3087424984982
541,1436985550415,37.0971263977581
542,1436985551212,38.1887521561375
543,1436985551894,34.7648397575272
544,1436985552637,45.5220672113431
545,1436985553372,49.3131531060575
546,1436985554102,53.3859649016885
547,1436985554934,58.9693325039355
548,1436985556251,40.3838667665404
549,1436985556965,46.5466213858238
550,1436985557657,64.0927839430277
551,1436985558408,65.9496707879425
552,1436985559144,51.3377367711285
553,1436985559839,45.5037983629558
554,1436985560605,55.4321945788997
555,1436985561350,62.543923107457
556,1436985562077,51.9361084848612
557,1436985562829,46.9686753152206
558,1436985563561,66.3252630877933
559,1436985564309,60.1388127181648
560,1436985565036,62.1179928710004
561,1436985565765,45.1535163555928
562,1436985566446,69.644215746856
563,1436985567197,57.4190005568881
564,1436985567937,57.6296951528151
565,1436985568710,49.5102732145395
566,1436985569481,58.4506598841361
567,1436985570201,51.0077986807232
568,1436985570929,51.069873752726
569,1436985571661,56.1075467987566
570,1436985572406,60.8462201388656
571,1436985573137,55.8949303439371
572,1436985573888,58.8879340729512
573,1436985574575,43.0721151700093
574,1436985575307,64.8765985443029
575,1436985575984,55.9973261914506
576,1436985576655,58.549130378075
