id,attr_time,attr_db
1,1436985153811,59.5362742576242
2,1436985154543,49.7406969323279
3,1436985155272,57.5605991916665
4,1436985156033,57.2109279654147
5,1436985156762,59.1801113276912
6,1436985157493,39.0465036044308
7,1436985158215,64.9313726236983
8,1436985158976,36.0002061197898
9,1436985159706,51.350730898318
10,1436985160428,46.7587182820403
11,1436985161162,54.6831923289063
12,1436985161902,67.0236388693556
13,1436985162600,71.0513463629506
14,1436985163268,40.7635200617874
15,1436985163981,40.2873963135117
16,1436985164687,66.1496251278221
17,1436985165416,51.4768734798968
18,1436985166133,35.0722348087621
19,1436985166917,27.3076753667948
20,1436985167679,39.7315284596148
21,1436985168396,39.4473047162588
22,1436985169133,23.9145437799346
23,1436985169878,40.5874340516267
24,1436985170615,35.4331999522258
25,1436985171327,30.6566142346392
26,1436985172062,44.4251748479293
27,1436985172799,54.635718276217
28,1436985173561,34.1697232756137
29,1436985174234,44.2533555173106
30,1436985174912,44.7067988778273
31,1436985175636,45.2396490661638
32,1436985176387,34.1698636756994
33,1436985177116,41.0539976243427
34,1436985177853,35.2931535878009
35,1436985178606,63.3137650849339
36,1436985179351,49.6319436955101
37,1436985180074,45.7137947327451
38,1436985180751,37.5625942619238
39,1436985181472,52.3063427145033
40,1436985182209,35.7300196445324
41,1436985182942,44.2891026003835
42,1436985183698,39.6846946977094
43,1436985184393,43.9898936961489
44,1436985185092,40.4954131528604
45,1436985185762,34.0778892395397
46,1436985186482,41.9121933570362
47,1436985187226,39.6288457315008
48,1436985188038,34.9586282952795
49,1436985188785,45.1916403910866
50,1436985189499,38.2635915150892
51,1436985190176,33.6143807514169
52,1436985190822,38.8065862450042
53,1436985191507,36.8422317830397
54,1436985192222,55.6802638353217
55,1436985192957,44.1502336873103
56,1436985193684,61.8753768856769
57,1436985194412,40.965503620831
58,1436985195095,29.4715575411151
59,1436985195729,35.7393475767532
60,1436985196422,36.4887854319046
61,1436985197151,35.5176650428954
62,1436985197860,42.9987046837749
63,1436985198605,30.9798524773826
64,1436985199341,27.8536359299953
65,1436985200088,61.9833638759954
66,1436985200917,66.6909317291413
67,1436985201656,53.417632081296
68,1436985202385,53.6012426713581
69,1436985203142,46.426022632986
70,1436985203902,58.4175236575732
71,1436985204620,46.5464540415171
72,1436985205362,52.4640494625511
73,1436985206106,40.4906389272183
74,1436985206894,40.3649888035557
75,1436985207624,40.9597390049616
76,1436985208322,28.660918887591
77,1436985208980,27.5042000755087
78,1436985209731,25.2333316609639
79,1436985210474,44.5214496658287
80,1436985211198,32.4071395745708
81,1436985212015,49.8498152465497
82,1436985212745,54.4616263716892
83,1436985213496,68.6380989364703
84,1436985214240,58.3839750534976
85,1436985214931,36.3216390748994
86,1436985215590,62.7302538594013
87,1436985216333,36.6498637997511
88,1436985217072,27.5420554733615
89,1436985217836,62.968731499131
90,1436985218542,44.3617869624611
91,1436985219224,61.4949967528142
92,1436985219882,62.5447112017626
93,1436985220577,60.5207717790351
94,1436985221330,61.7482176462396
95,1436985222059,31.9714881674236
96,1436985222831,65.9264741237116
97,1436985223569,64.2244604674452
98,1436985224309,65.3925277409835
99,1436985225068,50.1943762787678
100,1436985225804,48.395072839463
101,1436985226536,44.0233424181614
102,1436985227261,47.0986283969674
103,1436985228071,43.7378483185994
104,1436985228755,39.338442343272
105,1436985229437,68.4561466320688
106,1436985230114,65.3356154758355
107,1436985230850,44.2465413061473
108,1436985231515,53.4727959255844
109,1436985232189,37.4709445844755
110,1436985232966,32.2812040203553
111,1436985233698,40.5071430738825
112,1436985234448,46.4684364938423
113,1436985235217,31.5735594371852
114,1436985235933,40.3533228892564
115,1436985236659,38.640752249738
116,1436985237400,43.9185483366446
117,1436985238179,66.5411431055231
118,1436985238884,53.9609174164664
119,1436985239583,66.6908710390611
120,1436985240261,44.6354823731825
121,1436985241024,36.698241059333
122,1436985241694,68.0035620006991
123,1436985242438,60.4215202556422
124,1436985243187,37.9876198524775
125,1436985243953,53.5603852156252
126,1436985244684,46.5059300473006
127,1436985245442,32.0091384958859
128,1436985246117,37.7319348873279
129,1436985246843,34.238309235037
130,1436985247571,47.4455083638842
131,1436985248346,40.4336193289099
132,1436985249086,46.3973013636466
133,1436985249835,44.7379934119989
134,1436985250470,43.2105558765884
135,1436985251157,40.8875200747948
136,1436985251893,70.7276844688535
137,1436985252625,69.8738903883752
138,1436985253404,47.677520608333
139,1436985254136,39.0505689975638
140,1436985254883,37.6966854865912
141,1436985255599,43.4742831984753
142,1436985256351,53.5680282831365
143,1436985257099,37.9501693417215
144,1436985257818,34.4333406376915
145,1436985258555,45.037531988364
146,1436985259310,35.5163156215053
147,1436985260068,39.5849956705239
148,1436985260786,40.5583651487097
149,1436985261478,45.2633913488242
150,1436985262131,34.4790488022215
151,1436985262807,40.6716711999495
152,1436985263446,38.5870230556353
153,1436985264136,35.0952117445326
154,1436985264872,42.328901307211
155,1436985265600,40.0129190007421
156,1436985266329,40.3592365614331
157,1436985267052,47.9664009250195
158,1436985267748,42.5491553115455
159,1436985268405,38.4842520072278
160,1436985269053,39.4893044217487
161,1436985269696,38.5585487897055
162,1436985270375,49.9089687527726
163,1436985271106,42.495023507046
164,1436985271861,37.9506048204664
165,1436985272550,42.9450859933858
166,1436985273247,40.9528504552871
167,1436985274013,39.4355613665911
168,1436985274744,44.8689720948723
169,1436985275475,39.6042486115921
170,1436985276171,31.7266463215655
171,1436985277697,35.6781062946118
172,1436985278435,40.9173698127363
173,1436985279170,44.284965375651
174,1436985279911,40.1666600552595
175,1436985280639,39.1066632863525
176,1436985281306,36.4752965872445
177,1436985281973,34.7729168622341
178,1436985282657,34.6617738703062
179,1436985283398,43.3424258657386
180,1436985284105,46.936095228143
181,1436985284837,47.8092047005483
182,1436985285558,40.5575877459712
183,1436985286298,36.8803056405585
184,1436985287079,38.2708479777029
185,1436985288884,44.3413210622848
186,1436985289551,36.0858645918994
187,1436985290282,39.7540526274353
188,1436985291030,39.4286874920563
189,1436985291749,34.1526483112658
190,1436985292436,41.3334194350151
191,1436985293171,41.0962045681794
192,1436985293923,36.0231089931967
193,1436985294664,39.7692320839608
194,1436985295396,37.5796168430297
195,1436985296144,33.7219930379349
196,1436985296882,38.3994013692914
197,1436985297593,38.6508390648868
198,1436985298342,37.4751230585485
199,1436985299093,30.4744765270445
200,1436985299811,40.4653316629518
201,1436985300542,36.2446644228221
202,1436985301249,34.46695705824
203,1436985301842,29.9246798347103
204,1436985303259,42.2021886641289
205,1436985304016,41.5887850079844
206,1436985304742,40.9205622557827
207,1436985305490,41.8278731884034
208,1436985306214,43.2508243172963
209,1436985306980,37.0350476708227
210,1436985307716,46.4869791226865
211,1436985308452,42.741760421909
212,1436985309189,40.7484202295467
213,1436985309932,45.1437605559153
214,1436985310654,40.6157141110867
215,1436985312225,43.1778382508372
216,1436985312925,40.472360683974
217,1436985313497,39.1289127438476
218,1436985314180,35.1174460870303
219,1436985314924,36.4525615011424
220,1436985315636,37.9118053159983
221,1436985316370,66.5101809235266
222,1436985317094,61.1207144348089
223,1436985317863,39.9407797407838
224,1436985318606,54.426157316151
225,1436985319354,42.0414436208651
226,1436985320099,51.8822486151692
227,1436985320832,61.8767672929861
228,1436985321588,60.2569352429182
229,1436985322308,43.5619007335994
230,1436985323052,62.3223884723508
231,1436985323741,27.6179585566889
232,1436985324428,41.3170816220612
233,1436985325155,70.1552641182335
234,1436985325822,42.5562768553848
235,1436985326536,64.3887762734394
236,1436985327267,44.5128578602656
237,1436985328048,39.7630551305818
238,1436985328774,39.612030936911
239,1436985329572,39.2059199292918
240,1436985330306,47.4787890118748
241,1436985331047,39.3898513379789
242,1436985331782,41.3207983607746
243,1436985332552,66.8584155973981
244,1436985333293,40.1572087305471
245,1436985334076,71.6823734082123
246,1436985334799,67.2861595377683
247,1436985335504,62.505429515981
248,1436985336168,40.047275975713
249,1436985336906,57.3861235333137
250,1436985337674,56.2721726168639
251,1436985338395,63.6592597419465
252,1436985339191,44.2578180660982
253,1436985339924,41.6960088030584
254,1436985340654,48.9188341792959
255,1436985341337,60.9176555423087
256,1436985342005,65.906125534337
257,1436985342759,37.8482574141719
258,1436985343486,57.0265641619692
259,1436985344214,68.7516092953863
260,1436985344990,52.6119052218769
261,1436985345731,49.2652098966283
262,1436985346488,39.2954458910492
263,1436985347278,69.9288565416804
264,1436985348065,43.7118063255056
265,1436985348773,78.5924516750981
266,1436985349499,53.8060589679898
267,1436985350228,52.5101205130828
268,1436985350985,42.2918899925875
269,1436985351724,66.2983601956571
270,1436985352400,46.5302160469699
271,1436985353090,66.3642424363988
272,1436985353834,44.6130434060043
273,1436985354554,54.1912326926671
274,1436985355299,42.9992988946407
275,1436985356064,66.7965626167232
276,1436985356802,43.6705664517483
277,1436985357573,41.1135230927425
278,1436985358302,62.6167192389577
279,1436985359055,49.8695827515411
280,1436985359765,36.3002622344299
281,1436985360458,40.4313742548947
282,1436985361158,43.778443738163
283,1436985361900,70.141177521882
284,1436985362635,44.485272773633
285,1436985363370,44.6924229136787
286,1436985364119,43.4309970222802
287,1436985364870,46.5313954997046
288,1436985365594,43.3380472332519
289,1436985366347,46.3742769033564
290,1436985367112,38.1927859587019
291,1436985367836,41.7223961238726
292,1436985368563,39.3692348529187
293,1436985369304,42.0810641716295
294,1436985370051,38.6979034091881
295,1436985370782,44.6370642509379
296,1436985371516,41.5644505156285
297,1436985372251,37.4765384828003
298,1436985372843,40.0882197806744
299,1436985373515,49.7214411551213
300,1436985374230,36.7286556445284
301,1436985374995,37.9649583908397
302,1436985375719,41.3273815995606
303,1436985376445,30.9324634240732
304,1436985377174,44.0696912139539
305,1436985377930,47.0177380283091
306,1436985378677,42.8626743352422
307,1436985379418,70.630101366196
308,1436985380148,45.4224288239839
309,1436985380886,52.4976300561947
310,1436985381664,58.0400010519056
311,1436985382465,45.1087797988093
312,1436985383772,37.1570811292126
313,1436985384413,43.2200815429865
314,1436985385059,69.6568708810708
315,1436985385759,67.7703360481831
316,1436985386488,71.3051390303831
317,1436985387214,61.1767887645984
318,1436985388001,65.4969985125831
319,1436985388718,38.1440098547897
320,1436985389445,70.9870405852751
321,1436985390108,41.071994699316
322,1436985390837,67.7487926934278
323,1436985391551,66.1486467196178
324,1436985392261,66.6463965655289
325,1436985392971,42.3893867125049
326,1436985393700,71.5541840065953
327,1436985394428,47.129906709751
328,1436985395170,47.8729236488752
329,1436985395948,67.1792184305343
330,1436985396675,56.9569099235947
331,1436985397425,65.6199706939726
332,1436985398167,39.88224820105
333,1436985398890,68.5057711582373
334,1436985399630,64.8791471893638
335,1436985400374,61.4454051872424
336,1436985401117,63.9284410301435
337,1436985401866,74.20606037769
338,1436985402657,68.2544406540207
339,1436985403398,44.3944343158297
340,1436985404146,48.4689084290035
341,1436985404871,47.9060972911496
342,1436985405578,44.2463808463293
343,1436985406311,68.0474242872893
344,1436985406980,63.2686855727807
345,1436985407708,32.8480058893532
346,1436985408453,67.5231048900358
347,1436985409178,68.7952905881658
348,1436985409921,43.60135711933
349,1436985410647,44.0976420664393
350,1436985411383,48.7251296074585
351,1436985412136,42.2539935313691
352,1436985412877,44.5726219349393
353,1436985413543,69.6445469265659
354,1436985414235,42.7716868632189
355,1436985414999,41.2221341982526
356,1436985415749,55.3137561446037
357,1436985416465,40.8936849323608
358,1436985417254,61.205145096942
359,1436985418016,61.9550379093105
360,1436985418739,75.7857128986274
361,1436985419440,69.2989395173434
362,1436985420168,52.1282754796466
363,1436985420901,45.8006638394811
364,1436985421598,26.2289400411591
365,1436985422259,31.2101910905455
366,1436985422847,25.1898400493851
367,1436985423538,37.5518898918456
368,1436985424304,63.0458464262454
369,1436985425062,32.1441021172488
370,1436985425789,35.2008422734553
371,1436985426509,31.0739507789536
372,1436985427206,41.5206172311077
373,1436985427977,37.4732644474864
374,1436985428656,66.4149134817321
375,1436985429401,51.7595558625204
376,1436985430141,62.491932652883
377,1436985430870,66.1570525759129
378,1436985431607,63.5007328204223
379,1436985432339,66.5608639007032
380,1436985432995,73.3903192125169
381,1436985433581,43.8737996979692
382,1436985434307,39.5414635335006
383,1436985435074,23.7258041406293
384,1436985435812,74.7617692730008
385,1436985436540,57.8863854460443
386,1436985437251,58.0673268799235
387,1436985438049,62.9561296273569
388,1436985438715,35.3820473318025
389,1436985439446,61.6211936447986
390,1436985440184,63.0682784576598
391,1436985440883,70.4298538510449
392,1436985441626,65.5636251546459
393,1436985442358,42.9574189131395
394,1436985443128,71.0421733698865
395,1436985443804,63.6267847509522
396,1436985444539,26.3114721070548
397,1436985445249,49.858582537107
398,1436985446030,69.7697343457837
399,1436985446749,40.5475611929784
400,1436985447466,70.3208846892821
401,1436985448178,73.9343038889491
402,1436985448906,38.8583638312843
403,1436985449574,72.580349810116
404,1436985450319,66.9022188104216
405,1436985451011,60.8512681120296
406,1436985451658,39.0770972705765
407,1436985452370,72.4385257189807
408,1436985453083,63.0455124561093
409,1436985453713,61.9417996536402
410,1436985454409,30.9929082125092
411,1436985455136,73.0999585387377
412,1436985455889,74.6360546572004
413,1436985456618,38.9141743669659
414,1436985457303,26.2711486620703
415,1436985458108,74.1137455156639
416,1436985458827,39.8029167421353
417,1436985459513,67.0790698069982
418,1436985460247,44.8222918521032
419,1436985460985,36.8304955163327
420,1436985461718,65.1884641056852
421,1436985462466,73.9443311248217
422,1436985463180,40.7593370132229
423,1436985463816,72.6972135391186
424,1436985464535,57.1898801237099
425,1436985465254,59.7070598514136
426,1436985466013,48.2694901280062
427,1436985466738,37.3148819014973
428,1436985467461,34.230894368127
429,1436985468227,38.9942277862569
430,1436985469017,72.1322314687749
431,1436985469746,58.4905838642121
432,1436985470478,68.6688247270162
433,1436985471214,43.6881418982033
434,1436985471952,62.8465865316487
435,1436985472696,58.3777147445177
436,1436985473448,68.0686509105902
437,1436985474062,39.3857400590728
438,1436985474768,34.1287575184875
439,1436985475506,43.6967426307885
440,1436985476235,59.8054083796173
441,1436985476995,56.3985206125123
442,1436985477715,34.3273537750843
443,1436985478430,29.5031837882894
444,1436985479151,40.720919844537
445,1436985479879,36.5490008426751
446,1436985481478,44.360466390861
447,1436985482154,43.1916448279892
448,1436985482885,77.9394715571589
449,1436985483593,71.2836662868388
450,1436985484297,36.3958380846537
451,1436985484958,36.8395929384569
452,1436985485671,37.6729490595503
453,1436985486408,37.3632058985651
454,1436985487185,42.9060422676454
455,1436985487970,34.6899679911527
456,1436985488704,67.9218417567973
457,1436985489420,69.0154328216158
458,1436985490135,65.9718059256924
459,1436985490877,62.2111378105051
460,1436985491647,41.7306623322616
461,1436985492390,65.9000005630153
462,1436985493119,67.2580253894701
463,1436985493806,69.1259326636848
464,1436985494399,58.2121591073063
465,1436985495055,54.9306203588014
466,1436985496819,39.2017429810074
467,1436985497533,54.5353369307656
468,1436985498257,63.573335317613
469,1436985499002,38.29930100476
470,1436985499664,56.4767145305469
471,1436985500393,55.0238036857806
472,1436985501109,68.7382631702578
473,1436985501848,60.2679854595465
474,1436985502584,68.3868045891963
475,1436985503346,63.5688131728498
476,1436985504086,37.229971985852
477,1436985504806,65.7580442796158
478,1436985505532,62.315760863871
479,1436985506251,66.6461108111979
480,1436985506973,48.860011727564
481,1436985507677,57.2827463273025
482,1436985508433,61.3272377849846
483,1436985509158,57.5597338711716
484,1436985509986,62.7076592927306
485,1436985510720,45.3428575882696
486,1436985511441,47.7751672403148
487,1436985512182,46.1384295733541
488,1436985512932,64.0244346754986
489,1436985513674,49.6210147555221
490,1436985514374,67.3381649566749
491,1436985515103,34.7680247090487
492,1436985515715,46.6465122856552
493,1436985516452,53.9180631142232
494,1436985517195,44.8442689452972
495,1436985517908,39.7314659760672
496,1436985519430,39.970434752276
497,1436985520195,43.1068994394142
498,1436985520914,40.5705740260045
499,1436985521657,35.6670181703783
500,1436985522425,66.1235962106984
501,1436985523169,72.4946414264515
502,1436985523903,63.4848059558996
503,1436985524648,66.06307803981
504,1436985525383,45.3878212402207
505,1436985526098,45.0088332794809
506,1436985526775,67.6299819585405
507,1436985527567,47.7324738439324
508,1436985528292,44.8155342962301
509,1436985529108,38.8252504513721
510,1436985529847,40.9403376788054
511,1436985530585,46.1702461744715
512,1436985531286,42.9199910394046
513,1436985532851,47.3564282383673
514,1436985533563,41.8735439042401
515,1436985534266,65.8990648052897
516,1436985534964,58.4158244896824
517,1436985535715,59.4993387148477
518,1436985536432,45.6335264571577
519,1436985537170,40.6770957608041
520,1436985537854,37.4335366290578
521,1436985538605,38.5024907976354
522,1436985539383,39.1649539355193
523,1436985540132,46.1916787783844
524,1436985540868,35.0967947551108
525,1436985541543,59.1531750074689
526,1436985542172,33.7894525781504
527,1436985542906,64.1596403425467
528,1436985543632,39.2018776449453
529,1436985544351,43.0153530538346
530,1436985545089,61.7521422893433
531,1436985545830,54.1238960897711
532,1436985546569,34.5264969718815
533,1436985547309,43.2779638686146
534,1436985548033,66.5193503333546
535,1436985548649,34.2720644863808
536,1436985549359,36.7387960680025
537,1436985550080,59.4242888326936
538,1436985550809,62.0137584651234
539,1436985551534,68.9013119950933
540,1436985552270,67.6131940546383
541,1436985553028,35.6257177789652
542,1436985553763,54.8481375664254
543,1436985554453,58.4606286051597
544,1436985555144,70.6910049674
545,1436985555879,62.1359668733315
546,1436985556606,66.6279032021955
547,1436985557345,67.3843479014594
548,1436985558030,59.2831821903872
549,1436985558680,62.5308003248419
550,1436985559382,33.7267943224089
551,1436985560109,73.4352425516894
552,1436985560849,66.9098104718062
553,1436985561557,52.0289181452284
554,1436985562308,39.2682314290462
555,1436985563058,70.8752421484921
556,1436985563768,49.6239393189939
557,1436985564435,67.6300825184234
558,1436985565158,67.3986018889684
559,1436985565879,51.4751817106801
560,1436985566620,69.5053515063522
561,1436985567348,59.6053871098811
562,1436985568064,57.2883332651482
563,1436985568726,36.020592053458
564,1436985569466,75.0754105168792
565,1436985570212,63.8825917169078
566,1436985570996,51.1179853381971
567,1436985571722,71.8210320687826
568,1436985572445,66.1289841088806
569,1436985573105,48.5485731408348
570,1436985573845,73.2734630168252
571,1436985574581,60.1052629225655
572,1436985575308,38.2001943367635
573,1436985576037,34.9038585276809
574,1436985576765,63.9390304807779
575,1436985577508,64.0957577355815
