id,attr_time,attr_db
1,1437139316476,33.3837491850829
2,1437139317063,33.9307485424606
3,1437139317733,31.7704921991383
4,1437139318468,35.0887798164836
5,1437139319217,31.894090383066
6,1437139319941,28.8285740443698
7,1437139320689,28.4904706309878
8,1437139321380,31.9342534913279
9,1437139322106,30.6477267866073
10,1437139322841,31.704190255906
11,1437139323562,30.4053212444266
12,1437139324303,27.7210648708332
13,1437139325094,33.2422982405188
14,1437139325820,28.5544066854233
15,1437139326559,30.9743549157046
16,1437139327281,32.1794683080944
17,1437139327884,29.9527784311873
18,1437139328572,28.2916378318019
19,1437139329340,31.9464711829533
20,1437139330062,35.8683747159916
21,1437139330790,36.1484496105292
22,1437139331535,34.0172416933002
23,1437139332305,33.0018147849061
24,1437139332971,35.7563102624365
25,1437139333658,34.9770384458766
26,1437139334404,31.7092373611114
27,1437139335169,34.9305927432329
28,1437139335897,31.3446302550308
29,1437139336625,31.0410723188445
30,1437139337318,32.0482072610492
31,1437139337986,32.5981267566449
32,1437139338710,35.0494678527303
33,1437139339461,33.6311101330686
34,1437139340197,33.3939418367323
35,1437139340924,34.7036260630464
36,1437139341618,34.0492424965529
37,1437139342292,35.4911826409423
38,1437139343037,40.1494194518872
39,1437139343770,37.8294314894765
40,1437139344508,31.2418925750778
41,1437139345251,46.7446681276804
42,1437139346001,30.3286671452433
43,1437139346733,40.9267566550496
44,1437139347445,37.7178566163847
45,1437139348096,40.255279543718
46,1437139348823,41.987832099479
47,1437139349551,35.7883267706855
48,1437139350309,36.6503129282684
49,1437139350999,37.5191490761529
50,1437139351653,39.8079219671858
51,1437139352332,41.0914177496414
52,1437139353031,41.3893700529154
53,1437139353663,38.3242204590682
54,1437139354349,37.5555525969774
55,1437139355075,39.2629669200781
56,1437139355869,38.608612355508
57,1437139356627,39.9522895058326
58,1437139357353,39.8067651966942
59,1437139357985,36.9844225390481
60,1437139358688,39.8605784438569
61,1437139359900,40.3342587789073
62,1437139360616,36.9655961203062
63,1437139361197,37.525001874627
64,1437139361776,37.417771159989
65,1437139362354,38.177462781551
66,1437139362935,40.5266485835199
67,1437139363563,44.6220430414383
68,1437139364154,44.1284715446089
69,1437139364730,42.3330327062597
70,1437139365293,49.1194913552021
71,1437139365862,56.907409398925
72,1437139366426,40.7632322975745
73,1437139366989,42.9431125967249
74,1437139367543,57.6989406137737
75,1437139368122,43.7043859579376
76,1437139368758,43.3997006010661
77,1437139369820,41.5572176081398
78,1437139370412,42.3183160841364
79,1437139371067,43.256612849393
80,1437139371776,42.0414964063208
81,1437139372498,44.1682136770244
82,1437139373331,45.6175418584954
83,1437139373931,50.0507808884993
84,1437139374648,47.7990036497887
85,1437139375257,38.7551126402956
86,1437139375913,40.2887570558308
87,1437139376704,41.8252623087002
88,1437139377597,39.6461710713778
89,1437139378258,38.6674787540632
90,1437139379225,38.5627190738687
91,1437139379777,36.3543269362184
92,1437139380379,37.2153076546409
93,1437139380963,35.8319777372304
94,1437139381543,39.1015078641654
95,1437139382256,39.2904370311745
96,1437139383036,35.802817549579
97,1437139383722,40.3668278951253
98,1437139384460,40.8921087318914
99,1437139385045,38.3710001240915
100,1437139385762,38.0715145384169
101,1437139386496,38.5218171020915
102,1437139387239,38.8146828722348
103,1437139387959,37.4306240108052
104,1437139388671,36.8364129357141
105,1437139389402,37.979596162251
106,1437139390181,37.2965509817794
107,1437139390900,37.9719363373695
108,1437139391646,38.6820459435391
109,1437139392411,38.5221670590121
110,1437139393080,39.1436943544519
111,1437139393781,40.1159426949467
112,1437139394398,35.3309773363125
113,1437139395076,39.0228744471765
114,1437139395845,39.2048446204654
115,1437139396584,38.0227796000417
116,1437139397330,38.2146322193086
117,1437139398033,37.6342374480124
118,1437139398720,38.4285994908249
119,1437139399384,36.4275766963982
120,1437139400227,40.0295886914112
121,1437139400916,35.1100918291799
122,1437139402561,46.2873582794397
123,1437139403401,47.8544698278373
124,1437139404121,41.5566758917114
125,1437139404863,41.5915455940723
126,1437139405588,40.2372555153044
127,1437139406320,39.9039862992708
128,1437139407070,41.3140498752035
129,1437139407801,47.8455020494959
130,1437139408527,40.9541559075216
131,1437139409224,40.5203521447713
132,1437139409960,40.4359221905424
133,1437139410650,43.3888631978606
134,1437139411344,43.8167110615049
135,1437139412038,48.2168382569201
136,1437139412769,55.0637365693661
137,1437139413489,51.8972263033664
138,1437139414123,48.4682389198178
139,1437139414768,44.5481311147223
140,1437139415460,45.6966770856914
141,1437139416182,43.6375496351984
142,1437139416910,44.8571143368879
143,1437139417694,43.2642676427995
144,1437139418372,43.2661994928382
145,1437139419035,45.9932854619019
146,1437139420137,39.8870471826392
147,1437139420854,45.6166982746441
148,1437139421441,43.6734874812703
149,1437139422101,43.2786297184039
150,1437139422811,42.005295795428
151,1437139423578,44.5064559437003
152,1437139424130,43.1261126961171
153,1437139424700,44.5005503606751
154,1437139425280,42.9836135669486
155,1437139425893,44.3754177437238
156,1437139426584,45.1864542735928
157,1437139427314,43.7081826164735
158,1437139428049,48.5872979400744
159,1437139428778,48.2378542014427
160,1437139429385,46.1023826935693
161,1437139430069,47.7737053028049
162,1437139430730,45.3122224462958
163,1437139432518,45.3594727458362
164,1437139433078,47.2223586750758
165,1437139433658,44.7092758580827
166,1437139434280,48.0874719802533
167,1437139435055,44.7763160554621
168,1437139435665,43.6631672444974
169,1437139436316,42.4299092964509
170,1437139436932,43.7817427528277
171,1437139437601,48.48874248302
172,1437139438334,49.8910986208853
173,1437139439065,47.916013597053
174,1437139439768,48.831191424733
175,1437139440356,50.2940706180329
176,1437139441039,48.5271936569662
177,1437139441770,49.6481259355817
178,1437139442488,56.0563949325925
179,1437139443136,51.9727694935181
180,1437139443877,53.7973695041535
181,1437139444594,53.7134235700226
182,1437139445380,55.6714500230185
183,1437139445957,51.3061304638179
184,1437139446600,57.1665786296196
185,1437139447315,46.4857123274276
186,1437139448049,55.0325606721448
187,1437139448780,49.1709751612043
188,1437139449512,48.2891239418022
189,1437139450120,44.1665619584749
190,1437139451705,46.2426219731556
191,1437139452439,44.589301085515
192,1437139453096,42.1170808029975
193,1437139453808,42.8335639409439
194,1437139454485,43.1589363500435
195,1437139455151,46.2176249124621
196,1437139455904,47.9667964915819
197,1437139456633,48.917953087505
198,1437139457373,50.983714681248
199,1437139458113,46.1655734591745
200,1437139458830,47.434698586788
201,1437139459571,42.2641114521954
202,1437139460235,45.5788536154895
203,1437139460901,54.203691320584
204,1437139461642,47.5047225546406
205,1437139462372,58.1474210045604
206,1437139463026,47.5426060573014
207,1437139463750,47.5230003480097
208,1437139464617,39.6971109866302
209,1437139465297,47.1161896909444
210,1437139466041,45.2006313788356
211,1437139466775,38.3140232778268
212,1437139467459,40.7341090518348
213,1437139469288,43.2199933419665
214,1437139469964,42.4135280654203
215,1437139470720,61.6067591624388
216,1437139471373,59.775121278485
217,1437139472099,49.604953953858
218,1437139472828,47.9974416339951
219,1437139473486,63.8712227314083
220,1437139474101,61.3415026983194
221,1437139474911,48.0295778603058
222,1437139475635,66.2595447806774
223,1437139476367,56.4723967163954
224,1437139477088,72.9634960307951
225,1437139477821,50.3852169823216
226,1437139478554,47.0102427850298
227,1437139479292,69.0129955857468
228,1437139480033,63.1782180158182
229,1437139480709,45.8925830029284
230,1437139481384,46.2018605942727
231,1437139482106,55.5752700851853
232,1437139482826,72.3416657038266
233,1437139483565,58.3451024056809
234,1437139484347,72.8217700116432
235,1437139485087,55.8351407769241
236,1437139485825,55.0346902676354
237,1437139486521,73.7631445452625
238,1437139487268,68.1537011576902
239,1437139487994,54.5827745284424
240,1437139488730,53.9803536880989
241,1437139489604,67.4920203115092
242,1437139490282,56.5173823768072
243,1437139490978,48.9323064399493
244,1437139491702,54.2870683908839
245,1437139492431,58.1918085150013
246,1437139493143,45.8591825604432
247,1437139493885,58.7001697390557
248,1437139494670,63.2955220363749
249,1437139495417,46.7452010936539
250,1437139496251,44.7693009386664
251,1437139496894,53.7710165019029
252,1437139497560,45.4444108132836
253,1437139498258,46.988290103907
254,1437139498971,47.4239233722424
255,1437139499726,46.6418231129088
256,1437139500495,43.8583881676863
257,1437139501138,47.1462234510879
258,1437139501866,45.7332091112401
259,1437139502606,44.3441736714315
260,1437139503359,44.5127368274451
261,1437139504089,46.4653361866059
262,1437139504834,44.7750206614147
263,1437139505574,42.3266997372613
264,1437139506323,44.9456299528388
265,1437139507059,47.2727834106485
266,1437139507793,45.5717628396598
267,1437139508520,44.5893018921925
268,1437139509179,51.3148521363858
269,1437139509981,47.1815537958636
270,1437139510728,47.5471970775765
271,1437139511436,50.1882130667377
272,1437139512127,51.2722182328753
273,1437139512778,46.9533300816218
274,1437139513514,44.3673563150092
275,1437139514249,43.9789510102668
276,1437139515056,48.8476560706353
277,1437139515790,46.7927472770149
278,1437139516474,46.3172556015754
279,1437139517092,41.0926878817864
280,1437139517828,42.68314533744
281,1437139518568,43.8609179621469
282,1437139519261,46.7214213653954
283,1437139519922,43.0414180669441
284,1437139520625,41.8267523897465
285,1437139521402,41.0270880225315
286,1437139522125,47.5001118485955
287,1437139522846,46.0796081391977
288,1437139523547,42.7018524968677
289,1437139524266,42.5610356560657
290,1437139525000,43.5934040268348
291,1437139525731,44.3109494920806
292,1437139526456,45.0809016662912
293,1437139527111,45.5533316279175
294,1437139527839,46.8405055032327
295,1437139528563,45.2521524364623
296,1437139529271,44.6324666276132
297,1437139529915,45.1159008471593
298,1437139530626,42.8347262319656
299,1437139531370,44.1532109898702
300,1437139532088,42.608103828975
301,1437139532808,42.9542841634224
302,1437139533527,45.6946785437948
303,1437139534253,43.2456478044827
304,1437139534990,45.0654590314434
305,1437139535725,45.2240056442672
306,1437139536453,45.4173128166985
307,1437139537161,44.6215640488077
308,1437139537849,43.8052879711222
309,1437139538581,44.0059841532084
310,1437139539309,44.0064979990913
311,1437139539940,44.112181175273
312,1437139540655,44.5197101703604
313,1437139541385,42.7126406281992
314,1437139542111,43.7720527167394
315,1437139542857,43.2333745897618
316,1437139543592,41.5603897344472
317,1437139544359,43.1674371691128
318,1437139545110,42.4076889758196
319,1437139545838,43.2981147124235
320,1437139546567,42.5804479888876
321,1437139547300,43.6017480964349
322,1437139548033,44.3517663059419
323,1437139548764,45.9502707745308
324,1437139549478,43.6299892367722
325,1437139550115,43.9342205496049
326,1437139550804,42.9009621934634
327,1437139551528,41.4978995599945
328,1437139552223,41.8683921324854
329,1437139552870,43.3280476374011
330,1437139553604,43.8883576526664
331,1437139554330,41.4492168252369
332,1437139555051,43.4462817548821
333,1437139555807,42.6479304625043
334,1437139556517,42.3275620854884
335,1437139557166,41.9123944134726
336,1437139557891,43.3467148132978
337,1437139558638,42.5360592932395
338,1437139559351,44.0062524369655
339,1437139560072,42.3991094582355
340,1437139560695,40.0303977458584
341,1437139561379,48.4316512510448
342,1437139562112,44.6816650718473
343,1437139562907,44.9499602606621
344,1437139563654,42.3220002507227
345,1437139564352,46.0842059252159
346,1437139565094,44.3955388708381
347,1437139565831,45.3883721485109
348,1437139566560,45.3363797184368
349,1437139567289,43.0837211135269
350,1437139568016,44.1330414245253
351,1437139568766,43.9462868265049
352,1437139569502,41.845656183484
353,1437139570197,44.4194474473778
354,1437139570867,45.3447933491289
355,1437139571612,44.2843850064585
356,1437139572383,43.3757789445699
357,1437139573109,42.9918511226427
358,1437139573806,45.2839835144872
359,1437139574553,42.2239978553411
360,1437139575317,47.4001052516802
361,1437139576034,44.1804918802213
362,1437139576762,43.5517707638555
363,1437139577489,44.0473436650076
364,1437139578207,41.3613687046938
365,1437139578950,42.8289150817136
366,1437139579682,43.1050291373374
367,1437139580507,43.1762919367284
368,1437139581155,43.2487691135386
369,1437139581842,44.0068725945755
370,1437139582565,43.2220783765109
371,1437139583308,43.1499604084591
372,1437139584077,42.9467885812128
373,1437139584818,42.69057709178
374,1437139585610,43.394168219908
375,1437139586354,44.6785323407837
376,1437139587091,42.4240250623588
377,1437139587827,44.8835494575751
378,1437139588558,41.8546041310859
379,1437139589269,41.3923228116182
380,1437139590092,40.2833078988627
381,1437139590887,40.9056689543023
382,1437139591578,42.6674821912385
383,1437139592361,42.6349957533427
384,1437139593064,46.9546221954752
385,1437139593720,45.233419510178
386,1437139594321,44.5129281013346
387,1437139595132,47.2052997525461
388,1437139595886,51.6064221549334
389,1437139596637,47.0854230469566
390,1437139597308,43.6881294566031
391,1437139597978,52.7819025415342
392,1437139598714,44.8932152238049
393,1437139599486,41.2123209515249
394,1437139600220,43.5255550621999
395,1437139600973,42.4229795746253
396,1437139601689,45.9633048549108
397,1437139602436,41.0812226833763
398,1437139603152,42.6227715878369
399,1437139603856,42.7737923664701
400,1437139604551,43.7624035208075
401,1437139605125,42.7319472477696
402,1437139606351,45.8105159725962
403,1437139607092,43.3238547181755
404,1437139607843,47.8825140668659
405,1437139608576,43.0424600858623
406,1437139609202,40.7390049270186
407,1437139609837,43.0189346297878
408,1437139610523,42.9203680611385
409,1437139611201,43.0893055719942
410,1437139611908,44.6629095983987
411,1437139612588,43.2126735883247
412,1437139613361,42.7445245090209
413,1437139614111,43.0445058245112
414,1437139614825,42.5873878073135
415,1437139615596,43.5513008750837
416,1437139616352,42.3136243724767
417,1437139617129,49.3059102607931
418,1437139617798,49.0434722153117
419,1437139618529,65.0086699819342
420,1437139619255,49.8783232705902
421,1437139619966,49.4527856420757
422,1437139620792,45.4868385602085
423,1437139621488,38.9734758534098
424,1437139622155,39.1742043994286
425,1437139622903,44.87335536514
426,1437139623644,44.0942087046361
427,1437139624418,40.8059962433421
428,1437139625106,39.7640365945916
429,1437139625832,50.4510462229455
430,1437139626559,44.3097242443457
431,1437139627301,61.2670886545668
432,1437139628021,45.1887554958233
433,1437139628782,47.2700618940937
434,1437139629507,44.8938819928803
435,1437139630237,43.3850715324765
436,1437139630961,44.7832478980018
437,1437139631632,46.1668282707347
438,1437139632288,46.3224908981931
439,1437139633035,45.8183229921041
440,1437139633774,46.4560907106726
441,1437139634523,46.9239197576387
442,1437139635236,46.6798010561272
443,1437139635906,46.0587618062517
444,1437139636652,45.7470618360173
445,1437139637387,44.0472768422086
446,1437139638079,44.8222700151577
447,1437139638805,43.5925483481335
448,1437139640623,45.7277531123162
449,1437139641261,45.6872171790752
450,1437139642017,45.0461826329931
451,1437139642743,45.3581429772535
452,1437139643462,46.9863762259892
453,1437139644218,49.0817364428436
454,1437139644991,48.0796768941188
455,1437139645720,47.4996599858664
456,1437139646471,46.5918808002337
457,1437139647258,47.9507676422109
458,1437139648007,48.1097343861806
459,1437139648718,45.9102284733012
460,1437139649444,46.7872412904812
461,1437139650177,47.7790587872137
462,1437139650906,47.4292442261762
463,1437139651642,44.2544823749074
464,1437139652367,47.1992115796975
465,1437139652945,46.9836551619995
466,1437139653644,44.7032504725754
467,1437139654272,42.7242125130746
468,1437139654955,46.2658429421945
469,1437139655732,45.0906623781318
470,1437139656373,43.6100368463124
471,1437139657078,44.7323543635862
472,1437139658100,43.4851942713907
473,1437139658643,45.9372527542506
474,1437139659213,44.4598171110797
475,1437139659854,46.2004350033292
476,1437139660569,45.9826760368893
477,1437139661311,59.0650588590594
478,1437139662057,43.0006967792011
479,1437139662685,44.9892892686022
480,1437139663415,44.6831528336791
481,1437139664151,46.289339832146
482,1437139664883,45.4257321148187
483,1437139665627,46.2775155993161
484,1437139666306,45.151810708346
485,1437139667974,44.4309379324668
486,1437139668664,42.66124070813
487,1437139669467,43.1462457319595
488,1437139670204,46.0562345668787
489,1437139670941,44.2422035155538
490,1437139671662,42.9313850926113
491,1437139672356,47.3027747011569
492,1437139673001,45.6758716871472
493,1437139673699,43.0957326712001
494,1437139674432,43.862702579994
495,1437139675247,59.7341545197087
496,1437139675921,43.300220032623
497,1437139676651,41.3159158335942
498,1437139677376,43.3104247833193
499,1437139678102,49.3248878482251
500,1437139678794,54.09853324937
501,1437139679411,43.3228433457799
502,1437139680149,43.2406154595944
503,1437139680912,43.1104980614582
504,1437139681647,41.8823300970147
505,1437139682337,42.3944694078297
506,1437139682966,40.9955517527657
507,1437139683654,42.3225316810143
508,1437139684390,45.143832534733
509,1437139685142,44.4397406724617
510,1437139685888,45.4354688431894
511,1437139686614,41.2286329998932
512,1437139687344,43.5357291895798
513,1437139688056,41.783392984575
514,1437139689518,43.5640608451885
515,1437139690235,41.7843975891321
516,1437139690968,44.2634374721559
517,1437139691693,40.976454080152
518,1437139692490,42.4480822903638
519,1437139693263,40.9765757045021
520,1437139693970,41.1907412901979
521,1437139694701,42.6369591713118
522,1437139695440,40.7792516794574
523,1437139696150,41.1069963249874
524,1437139696784,40.1432146488614
525,1437139697451,41.8991150948096
526,1437139698182,39.0465674662278
527,1437139698900,42.9817860828485
528,1437139699608,40.0454566429032
529,1437139700238,40.4130398945259
530,1437139700931,43.9109596295299
531,1437139701660,40.3231099434321
532,1437139702403,39.0732415952612
533,1437139703117,41.2443138341554
534,1437139703800,40.5457702049388
535,1437139704444,41.3687579565648
536,1437139705241,42.2098308463096
537,1437139705972,39.8489494811952
538,1437139706632,39.8097708160852
539,1437139707322,41.0001718091137
540,1437139708056,39.9806391124551
541,1437139708798,40.4998775279279
542,1437139709527,40.4218604266216
543,1437139710335,41.0253438227635
544,1437139711071,41.9575623381091
545,1437139711820,40.8642560016822
546,1437139712536,40.9581172761797
547,1437139713246,40.9504454573207
548,1437139713914,41.8081581051087
549,1437139714644,43.4877794212568
550,1437139715463,44.6462838997228
551,1437139716217,41.618867266141
552,1437139716950,42.0265879712749
553,1437139717619,42.4736032831338
554,1437139718356,40.2285405012181
555,1437139719075,40.3559536474223
556,1437139719883,41.0723771541412
557,1437139720590,41.0891927346582
558,1437139721340,41.7269887356693
559,1437139722062,43.6171998814826
560,1437139722819,44.1171753381674
561,1437139723541,43.1705688575531
562,1437139724129,43.2831016170411
563,1437139724817,41.6009534187171
564,1437139725630,40.7135265389426
565,1437139726436,43.0668806260024
566,1437139727129,58.2992460342394
567,1437139727833,44.2913181188477
568,1437139728566,41.5774825552194
569,1437139729327,46.2742244128952
570,1437139730064,44.1707628620751
571,1437139730790,41.593463329811
572,1437139731520,44.3189130939187
573,1437139732241,43.6263333069681
574,1437139732958,42.2396140959634
575,1437139733680,40.8272525173392
