id,attr_time,attr_db
1,1437139316785,37.0106895416245
2,1437139317924,35.3225115984829
3,1437139318633,34.7618169484903
4,1437139319368,34.9214296490511
5,1437139320091,31.7837904489241
6,1437139320840,28.5766063377952
7,1437139321580,31.9356488568295
8,1437139322341,36.7238683404532
9,1437139323092,31.3834405916265
10,1437139323689,32.9500611279218
11,1437139324414,34.0130047906308
12,1437139325123,35.7706650040764
13,1437139325784,36.5782312647762
14,1437139326392,29.9205741208699
15,1437139327008,32.4276385929865
16,1437139327691,35.0555556814021
17,1437139328495,46.2718122381546
18,1437139329216,33.9340739236304
19,1437139330198,35.3723275014856
20,1437139330884,38.4737409645483
21,1437139331614,40.1883425601551
22,1437139332347,35.9817603536664
23,1437139333076,35.5813413493261
24,1437139333795,37.985156501051
25,1437139334529,43.5994303360416
26,1437139335257,38.5998506119601
27,1437139335978,35.6311966962771
28,1437139336648,30.7939615781467
29,1437139337357,37.8849679047887
30,1437139338125,38.7995433813743
31,1437139338835,35.3273947391737
32,1437139339553,38.465696391876
33,1437139340257,37.6341231532325
34,1437139341012,35.8458379945531
35,1437139341728,37.6765068375798
36,1437139342480,39.1807294550549
37,1437139343221,41.8281095626803
38,1437139343917,38.8731777079186
39,1437139344651,34.5865863309069
40,1437139345394,37.1302004595184
41,1437139346115,47.3765889252061
42,1437139346763,57.7889089880155
43,1437139347400,39.8657859465895
44,1437139348095,38.9781530961603
45,1437139348821,35.4834295945415
46,1437139349532,37.9733868206441
47,1437139350248,35.4837729061449
48,1437139350964,37.0856766870147
49,1437139351603,40.9976933838678
50,1437139352336,41.5261121034775
51,1437139353119,42.9639154740711
52,1437139353854,43.1094504158087
53,1437139354567,38.9671872040565
54,1437139355256,44.1133303377577
55,1437139356018,41.6605342948133
56,1437139356740,40.3195141202335
57,1437139357464,40.0931987766697
58,1437139358158,40.5430067348838
59,1437139358834,42.7433545678752
60,1437139359559,41.3925438941895
61,1437139360249,40.1506616370376
62,1437139360908,39.5042069943133
63,1437139361602,42.9778432187864
64,1437139362258,40.4539698062039
65,1437139362934,41.9488636959244
66,1437139363746,43.2081372911219
67,1437139364472,42.4176497787057
68,1437139365219,43.8944396409899
69,1437139365929,45.044480417891
70,1437139366687,47.9856441813901
71,1437139367380,45.6664448958837
72,1437139368119,45.9098909193017
73,1437139368851,46.4491033193875
74,1437139369593,53.7447408666046
75,1437139370292,44.1853503578495
76,1437139370992,45.3061618652812
77,1437139371707,52.0621072397576
78,1437139372424,46.0170856698492
79,1437139373221,51.5867587468123
80,1437139373967,50.8530180697311
81,1437139374686,53.3655866204649
82,1437139375430,49.992111719025
83,1437139376169,51.6523623544148
84,1437139376888,49.1318806746855
85,1437139377608,42.6212935935331
86,1437139378324,45.1974458549169
87,1437139379087,43.4173566826422
88,1437139379820,41.0205514778093
89,1437139380527,42.0546859201844
90,1437139381220,39.3540876876319
91,1437139381902,43.3279382280423
92,1437139382624,41.493455122232
93,1437139383357,41.9975282431631
94,1437139384076,45.911066414194
95,1437139384826,42.0865692312993
96,1437139385530,41.4403451261043
97,1437139386286,39.5208150477709
98,1437139387046,40.3696292280737
99,1437139387616,37.8517895086904
100,1437139388345,38.2117799602828
101,1437139389092,43.307481324655
102,1437139389838,43.8640340087482
103,1437139390544,41.7609844028502
104,1437139391281,41.5017711522825
105,1437139392062,39.3586294907528
106,1437139392675,41.8009452710863
107,1437139393406,43.6609258119068
108,1437139394112,39.2217408830695
109,1437139394836,40.2533750773426
110,1437139395558,37.5608684569335
111,1437139396284,42.8238971251116
112,1437139396995,39.918923920068
113,1437139397755,41.3965687380624
114,1437139398434,42.4029467888501
115,1437139399128,39.0803451192141
116,1437139399842,40.0265381455561
117,1437139400558,39.8117007457767
118,1437139401305,39.449654018777
119,1437139401960,41.2875132186984
120,1437139402708,39.5447230925072
121,1437139403502,40.2205800693585
122,1437139404236,48.0557253284228
123,1437139404977,44.1624613011496
124,1437139405799,41.9504820638177
125,1437139406522,41.4908423427535
126,1437139407211,40.753256017393
127,1437139407832,41.3072771710985
128,1437139408511,47.3682037287446
129,1437139409225,45.7809482598603
130,1437139409961,41.9315847654336
131,1437139410682,47.0266536311263
132,1437139411328,45.6138810129047
133,1437139412003,45.6074051504688
134,1437139412715,53.2684265606488
135,1437139413538,58.0810208739336
136,1437139414264,59.5520758143601
137,1437139415005,53.8726580965554
138,1437139415740,49.83916998348
139,1437139416482,47.0654798250401
140,1437139417218,46.7682172229665
141,1437139417975,47.084341187163
142,1437139418715,46.3528318449648
143,1437139419326,47.7114006635418
144,1437139420012,44.6938917609711
145,1437139420705,44.7794610820905
146,1437139421366,44.1607923129968
147,1437139422111,43.2377385063162
148,1437139422755,43.8745144572962
149,1437139423565,44.1192302046062
150,1437139424286,60.1558803952351
151,1437139425022,53.5719276194814
152,1437139425758,47.4898106521565
153,1437139426487,44.6956040868115
154,1437139427199,47.3780293825032
155,1437139427851,44.5828836421528
156,1437139428605,46.0559140627002
157,1437139429303,51.842093634959
158,1437139430867,55.0208832886296
159,1437139431582,48.0385753195606
160,1437139432338,45.0138676204601
161,1437139433110,45.9233973748921
162,1437139433800,45.6762936032466
163,1437139434526,53.2695577399577
164,1437139435267,46.3075463070516
165,1437139436027,49.347786778257
166,1437139436777,45.1975442425796
167,1437139437510,51.9472874717698
168,1437139438224,48.0660669944526
169,1437139438912,46.0898116089231
170,1437139440392,48.3250288401569
171,1437139441004,47.1271873431824
172,1437139441604,46.8541758398429
173,1437139442158,51.0717341937054
174,1437139442712,45.8006051632735
175,1437139443299,48.3287621367527
176,1437139444034,46.2187511216228
177,1437139444764,48.7856542898731
178,1437139445537,48.0363030961496
179,1437139446243,53.9589527700514
180,1437139446865,52.6651082857024
181,1437139447449,54.4397526900866
182,1437139448018,47.7611053139111
183,1437139448588,47.9886959001756
184,1437139449872,46.4900563803827
185,1437139450607,45.1342598943228
186,1437139451337,47.3402558868562
187,1437139452081,46.2150207749608
188,1437139452788,47.3248187926163
189,1437139453469,44.2820936670457
190,1437139454178,55.9454432185041
191,1437139455826,45.4641943730132
192,1437139456408,44.3179457065334
193,1437139457109,51.8852352687869
194,1437139457851,49.7423525490799
195,1437139458571,55.4335194446745
196,1437139459350,47.3638191778041
197,1437139460058,45.134149880685
198,1437139460612,54.5535081464338
199,1437139461191,44.5323228892892
200,1437139461763,41.172534561381
201,1437139462337,42.5139994552995
202,1437139465037,47.9021546106935
203,1437139465700,45.8229254897508
204,1437139466363,55.7075325469655
205,1437139466935,48.1200402776332
206,1437139467487,49.3562526022866
207,1437139468073,38.5385606273017
208,1437139468667,57.4842025157818
209,1437139469370,68.3088806770811
210,1437139470057,59.4828051739069
211,1437139470730,59.5093381080132
212,1437139471471,71.2091234330928
213,1437139472092,65.3358222808447
214,1437139472634,59.2529635836189
215,1437139473181,58.3323576911237
216,1437139473757,71.2661793666842
217,1437139474326,69.8125924936847
218,1437139475629,54.7771535785955
219,1437139476350,70.6956969963142
220,1437139477070,67.2997351838296
221,1437139477820,73.1962284392974
222,1437139478558,54.141918678338
223,1437139479280,53.7672762666236
224,1437139479964,71.9131527621808
225,1437139480613,72.823312967726
226,1437139481372,50.0977100613239
227,1437139482102,46.4018995692425
228,1437139482795,61.9491212548345
229,1437139483503,74.1018014016013
230,1437139484240,67.734084702523
231,1437139485003,74.2447050888735
232,1437139485666,68.809682440721
233,1437139486407,57.5228092064469
234,1437139487132,72.9334079541011
235,1437139487800,74.1100294971346
236,1437139488446,63.6961870139681
237,1437139489119,53.0455686015831
238,1437139489854,60.0776879321693
239,1437139490586,67.1080999872784
240,1437139491316,53.9122666247953
241,1437139492004,56.0669362912146
242,1437139492736,63.2636920816293
243,1437139493464,59.5550218550349
244,1437139494194,52.779901292887
245,1437139494884,59.8245101708762
246,1437139495566,52.9452426853789
247,1437139496330,54.2557321980566
248,1437139497081,54.8722787523143
249,1437139497807,58.0637389177158
250,1437139498571,50.5515750209989
251,1437139499294,54.4262719128487
252,1437139499904,54.4316292263786
253,1437139500546,47.7283688252778
254,1437139501179,47.290991846173
255,1437139501913,52.5586709606869
256,1437139502484,55.8367422908441
257,1437139503123,45.6516907276757
258,1437139503855,47.4214208423271
259,1437139504655,47.1299942191375
260,1437139505397,44.6239022525989
261,1437139506125,43.5708132366565
262,1437139506833,45.5834224990991
263,1437139507564,55.019436378817
264,1437139508216,42.1904478959632
265,1437139509021,44.2200909783092
266,1437139509748,46.9022194244298
267,1437139510451,46.911573844185
268,1437139511079,48.7790870572559
269,1437139511750,50.9299579161805
270,1437139512439,44.8386038351729
271,1437139513171,53.1603436419149
272,1437139513853,47.8690618785448
273,1437139514515,46.7193838107069
274,1437139515235,49.5679473454451
275,1437139515981,60.7280468039803
276,1437139516702,47.3082801880476
277,1437139517440,46.2024302029475
278,1437139518167,45.0563405820635
279,1437139518901,51.8919565188697
280,1437139519695,46.9438005251906
281,1437139520411,57.2399248206478
282,1437139521089,45.0565714778385
283,1437139521725,43.9471911444902
284,1437139522460,57.0755621330734
285,1437139523106,43.7426176169572
286,1437139523756,45.8428956288423
287,1437139524488,50.1609762790594
288,1437139525211,45.2058288780811
289,1437139526011,49.0309189825992
290,1437139526748,47.1376249467626
291,1437139527440,51.1619797095285
292,1437139528078,48.0925396810932
293,1437139528774,47.6935888782887
294,1437139529500,51.725663960839
295,1437139530239,52.4866350208739
296,1437139530981,46.2999159957005
297,1437139531670,60.2537792712798
298,1437139532355,47.3774524699953
299,1437139533114,46.1741535282262
300,1437139533872,46.8057278533066
301,1437139534616,47.7646997833509
302,1437139535280,54.6963096695216
303,1437139536013,47.6427592894042
304,1437139536734,49.060492037165
305,1437139537450,47.1992539958548
306,1437139538177,45.7967346009434
307,1437139538915,47.9159024796096
308,1437139539640,47.2216393281608
309,1437139540372,53.7844513231508
310,1437139541081,49.0146112203465
311,1437139541745,51.29630985179
312,1437139542450,54.795538822139
313,1437139543132,51.9304573076836
314,1437139543811,47.2920897948687
315,1437139544456,56.9580663458193
316,1437139545127,51.9214478465286
317,1437139545858,57.0399285058801
318,1437139546577,48.1233228612582
319,1437139547288,50.3451002462154
320,1437139548004,57.1440408516206
321,1437139548664,46.6649904275121
322,1437139549453,47.0297854941239
323,1437139550177,48.9196301372406
324,1437139550916,51.7990298721239
325,1437139551596,46.2343656050874
326,1437139552256,45.9647996754999
327,1437139553024,51.1493525954198
328,1437139553723,52.5350554308369
329,1437139554530,46.2228127113908
330,1437139555276,53.4805592894092
331,1437139556006,49.0048202894402
332,1437139556722,58.4554202040272
333,1437139557425,47.0448744530767
334,1437139558069,53.1291074837478
335,1437139558832,52.5372268115968
336,1437139559579,49.1244209603602
337,1437139560320,49.1606513139663
338,1437139561058,47.1016691427847
339,1437139561795,53.7153886794367
340,1437139562419,45.9399122925412
341,1437139563081,45.526450133563
342,1437139563837,53.6588987383384
343,1437139564594,45.6302380120167
344,1437139565326,55.5448315379191
345,1437139566120,46.1647159216863
346,1437139566803,46.9803879264591
347,1437139567529,48.5214467481909
348,1437139568265,46.6050849601536
349,1437139568970,49.4670313425651
350,1437139569709,46.8270522399462
351,1437139570431,58.2234675038619
352,1437139571171,47.7649341979796
353,1437139571868,51.7610414357261
354,1437139572449,53.5143214725516
355,1437139573141,52.8446313312856
356,1437139573883,47.3435640843469
357,1437139574623,54.0120321559799
358,1437139575380,49.5197672130787
359,1437139576150,50.3247669336087
360,1437139576868,48.3820602055155
361,1437139577594,48.7233752769931
362,1437139578344,46.6528205361637
363,1437139579091,62.208297778437
364,1437139579844,46.2616270145372
365,1437139580625,51.904009862259
366,1437139581365,51.0096304166353
367,1437139582091,58.9342751964781
368,1437139582829,49.3749490926358
369,1437139583426,49.5926686361166
370,1437139584105,54.5545191432154
371,1437139584789,47.7425709961912
372,1437139585477,48.7141006834024
373,1437139586169,51.8830996052098
374,1437139586906,47.7911109707005
375,1437139587636,51.6118138433049
376,1437139588353,52.4105217615819
377,1437139589094,56.5853582334811
378,1437139589847,48.3471082016499
379,1437139590576,51.6172330890154
380,1437139591334,51.4017551766773
381,1437139592157,58.0921639872918
382,1437139592873,46.4121306273428
383,1437139593491,44.283470875955
384,1437139594192,45.4336483857279
385,1437139594972,45.6500582958968
386,1437139595680,54.2568043789823
387,1437139596384,51.5781483356772
388,1437139597104,47.5065896502039
389,1437139597835,55.9313142021478
390,1437139598566,46.8471194832196
391,1437139599310,46.5404855908557
392,1437139600072,46.568049624826
393,1437139600804,50.122758108054
394,1437139601520,59.1008759262326
395,1437139602221,47.8734845179053
396,1437139602920,53.0691060746085
397,1437139603688,52.3101319583716
398,1437139604480,45.8280729956384
399,1437139605202,49.7096385307672
400,1437139605937,59.2274310723168
401,1437139606564,51.6722551172578
402,1437139607277,49.9510069561528
403,1437139608006,57.6666646439962
404,1437139608696,56.5277844754279
405,1437139609504,44.4784442709266
406,1437139610228,54.1988501158585
407,1437139610984,44.7154398624277
408,1437139611730,53.7848098687792
409,1437139612467,44.4235264593509
410,1437139613238,42.9229052817343
411,1437139613929,46.5995663437439
412,1437139614555,44.5956922052063
413,1437139615248,54.9548083097368
414,1437139615975,54.9316602505703
415,1437139616612,43.1027790697116
416,1437139617302,59.9272597129294
417,1437139618046,51.8440976430518
418,1437139618769,42.3586727946114
419,1437139619584,44.4603696296668
420,1437139620324,43.1499451440935
421,1437139621057,57.4886858291581
422,1437139621789,46.1212943951541
423,1437139622528,44.9327625150495
424,1437139623260,45.0255493363053
425,1437139623977,41.7382249840696
426,1437139624602,52.8102908748589
427,1437139625341,45.4708553504661
428,1437139626113,47.7196624458376
429,1437139626794,45.7775517754893
430,1437139627533,43.6915977381685
431,1437139628250,50.1124901943078
432,1437139628896,45.911205964485
433,1437139629638,46.9114557735455
434,1437139630357,54.202094570943
435,1437139631100,48.9450190183667
436,1437139631826,56.9863677848635
437,1437139632602,59.3070400667002
438,1437139633302,54.6961589773558
439,1437139634771,50.6781800641687
440,1437139635513,60.0711756923297
441,1437139636231,48.1371352962639
442,1437139636961,60.1972986912933
443,1437139637691,55.4296003975316
444,1437139638404,48.0642934766578
445,1437139639139,48.0749727432831
446,1437139639873,47.4112188464397
447,1437139640616,50.966543248426
448,1437139641364,50.678317971101
449,1437139642096,62.9010335666508
450,1437139642828,52.9815845459307
451,1437139643552,63.1139602213155
452,1437139644297,55.6285793108347
453,1437139644999,57.0198336794225
454,1437139645620,66.7337419873623
455,1437139646278,56.3122179147879
456,1437139646998,49.9678632070392
457,1437139649042,55.3804770531841
458,1437139649703,61.8770234299825
459,1437139650453,53.1402428655501
460,1437139651184,73.2713434822442
461,1437139651926,67.3198988673432
462,1437139652674,60.9503429490952
463,1437139653410,68.5234482420921
464,1437139654132,48.4439571638694
465,1437139654802,69.6933723057055
466,1437139655530,53.4330333632256
467,1437139656273,58.0917089652615
468,1437139657030,53.3755255546922
469,1437139657735,46.9021906521453
470,1437139658447,63.6876633370842
471,1437139659035,61.2374800728098
472,1437139659723,52.5858700386277
473,1437139660373,67.9422625005048
474,1437139661010,70.6300664922382
475,1437139661655,63.8268620116165
476,1437139662396,57.8472124203844
477,1437139663178,71.4874866589556
478,1437139663945,59.305048143016
479,1437139664525,67.5177490188696
480,1437139665126,63.2828503283718
481,1437139666029,51.2039415126196
482,1437139666797,67.0364428999337
483,1437139667402,62.1558430967216
484,1437139668073,66.9811079580074
485,1437139668691,69.8246376448717
486,1437139669306,71.4231942441667
487,1437139669890,60.1449720063228
488,1437139671251,54.3729865654282
489,1437139671885,71.1633363675545
490,1437139672541,63.4889179270572
491,1437139673225,55.7271400884359
492,1437139673807,55.3834028511638
493,1437139674585,71.0005120700958
494,1437139675256,64.1907429260807
495,1437139675906,67.9960353687975
496,1437139676599,64.5983618301221
497,1437139677318,52.5523829243031
498,1437139677885,55.6668251489367
499,1437139678514,58.1207580185857
500,1437139679169,56.9913191591973
501,1437139679885,70.6482928982489
502,1437139680511,66.5445818506819
503,1437139681141,44.9485369314291
504,1437139681861,68.2224152052644
505,1437139682563,54.3383469321886
506,1437139683109,54.8601943344795
507,1437139684064,59.5159244721699
508,1437139684698,45.9307603715013
509,1437139685357,59.5646562464293
510,1437139686135,57.9595935930992
511,1437139686868,47.446374503862
512,1437139687610,70.6530430743838
513,1437139688293,62.0678015331451
514,1437139688935,63.2786060436626
515,1437139689723,54.0863176386066
516,1437139690449,56.8972293459736
517,1437139691066,47.7440915462523
518,1437139691756,63.9281587552664
519,1437139692514,58.4802716537449
520,1437139693223,64.490040702584
521,1437139693967,66.7435932105654
522,1437139694709,39.8192500278998
523,1437139695411,57.373579600304
524,1437139696122,53.8093381696423
525,1437139696801,55.9789107933641
526,1437139697453,66.7863435649066
527,1437139698141,62.3366402851116
528,1437139698983,61.1729469318195
529,1437139699735,61.5686362544258
530,1437139700453,53.0521885331407
531,1437139701084,61.0354896561811
532,1437139701763,58.1348686794303
533,1437139702505,57.0013688657393
534,1437139703230,68.2786452812765
535,1437139704064,55.4829885558197
536,1437139704761,57.1906372016053
537,1437139705424,60.4141444095874
538,1437139706078,44.766168343324
539,1437139706736,54.7276162907867
540,1437139707478,58.689643686187
541,1437139708241,56.0040475319013
542,1437139709020,65.1470752304803
543,1437139709768,71.5925098341186
544,1437139710339,68.6654002015721
545,1437139711011,60.5040610120361
546,1437139711760,68.9099015811802
547,1437139712494,65.6899987039155
548,1437139713213,58.9174181015238
549,1437139713964,63.6968384840027
550,1437139714779,73.2083783336563
551,1437139715516,66.4042592609082
552,1437139716146,47.614148270936
553,1437139716884,64.4177075953948
554,1437139717573,68.3475929063425
555,1437139718195,44.0493059229461
556,1437139718770,57.9736155337195
557,1437139719339,60.3332457269058
558,1437139719898,67.3918477574984
559,1437139720464,68.5130652817878
560,1437139721092,71.7289532576636
561,1437139721837,66.9828039227738
562,1437139722573,65.9893143776716
563,1437139723149,66.5946935947813
564,1437139723710,59.1856328877982
565,1437139724285,54.9509225346613
566,1437139725964,64.531553247984
567,1437139726618,71.0807761106274
568,1437139727338,66.6120040573786
569,1437139728131,67.9978061626092
570,1437139729921,63.0088961222925
571,1437139730514,54.539309760801
572,1437139731164,70.2676142579429
573,1437139731883,66.7125360403874
574,1437139732465,47.0257969966871
575,1437139733031,54.957148966748
