id,attr_time,attr_db
1,1437139316754,38.7793291188623
2,1437139317208,36.2247030726456
3,1437139317699,38.4336591256499
4,1437139318182,35.4310440342539
5,1437139318663,39.748560405088
6,1437139319046,34.8178065653125
7,1437139319407,37.6458095432106
8,1437139319853,29.0032714436098
9,1437139320374,30.1640897845191
10,1437139320851,32.6283218847047
11,1437139321309,30.9416230261874
12,1437139321771,35.9721059991515
13,1437139322239,35.1681665569193
14,1437139322688,32.6875069116369
15,1437139323072,57.9501602490912
16,1437139323476,45.063066297486
17,1437139323916,32.7090643217575
18,1437139324411,45.091082607555
19,1437139324888,43.14494628343
20,1437139325420,52.7604457438059
21,1437139325939,45.0679628719207
22,1437139326375,51.874135153977
23,1437139327526,54.3244994098153
24,1437139328004,56.0593167930441
25,1437139328456,40.7489758101579
26,1437139328908,41.4833640815201
27,1437139329301,43.0364936247419
28,1437139329728,45.1912224703663
29,1437139330222,55.165702663025
30,1437139330681,48.3619946447403
31,1437139331018,44.8432729003831
32,1437139331459,43.3242491521948
33,1437139331942,41.5166999858541
34,1437139332432,43.3686926983373
35,1437139332933,41.8663986787372
36,1437139333461,52.0066120576392
37,1437139333920,46.6290967094408
38,1437139334401,53.9841490953547
39,1437139334840,44.8700269347682
40,1437139335284,45.7181451473673
41,1437139335747,49.3551975629269
42,1437139336216,37.946602031678
43,1437139336698,48.8427121334446
44,1437139337183,46.2104154291796
45,1437139337663,51.5482416671559
46,1437139338144,51.4715589394022
47,1437139338610,53.730011651722
48,1437139339090,42.4696410525335
49,1437139339591,49.5779480162802
50,1437139340156,54.2504438340718
51,1437139340541,41.0267747271409
52,1437139340977,42.8683158611412
53,1437139341431,41.3708784352576
54,1437139341939,45.0058381020598
55,1437139342453,42.7294820928245
56,1437139342940,50.27148078891
57,1437139343430,46.8967021176353
58,1437139344195,43.6899864483045
59,1437139344550,38.1296011765082
60,1437139346027,61.401845970813
61,1437139346411,60.1097230445528
62,1437139346827,48.9065505906788
63,1437139347303,42.677133574152
64,1437139347733,45.2448412045982
65,1437139348149,54.0402762075559
66,1437139348614,40.8266668358355
67,1437139349070,39.4150685710289
68,1437139349414,36.1526745784673
69,1437139349841,45.4753772960506
70,1437139350287,52.3999438482739
71,1437139350733,40.4856389787424
72,1437139351173,41.1737193553875
73,1437139351637,42.2176276652474
74,1437139352121,51.8650835357247
75,1437139352565,44.61531710045
76,1437139352938,58.10993624504
77,1437139353341,42.1363273249264
78,1437139353765,43.2701068791276
79,1437139354218,42.9899470135121
80,1437139354696,47.2417226287155
81,1437139355231,42.7212970679566
82,1437139355677,42.7411680365023
83,1437139356167,51.825437842839
84,1437139356665,46.6536248753332
85,1437139357180,56.8026569970238
86,1437139357675,53.1393231022362
87,1437139358156,51.5244398525386
88,1437139358655,41.8767606046765
89,1437139359133,47.19117517869
90,1437139359626,41.2021131587374
91,1437139360085,43.4732996496219
92,1437139360477,45.6651155677568
93,1437139360855,44.1648169907151
94,1437139361331,49.4930615679858
95,1437139361820,51.5219575569951
96,1437139362300,47.5147765821539
97,1437139362777,42.4025678868765
98,1437139363249,43.4298741916711
99,1437139363732,41.0517126712714
100,1437139364226,42.4919681077631
101,1437139364701,44.7465283269023
102,1437139365178,46.5124867892194
103,1437139365653,47.6629054909367
104,1437139366149,59.0701825007933
105,1437139366651,49.5534460590319
106,1437139367130,54.0952646431678
107,1437139367606,45.5872987579615
108,1437139367987,47.2608600674608
109,1437139368338,50.0011898355392
110,1437139368808,46.6318384200419
111,1437139369271,63.8415891735013
112,1437139369755,52.6206634755029
113,1437139370282,52.5002147265482
114,1437139370658,47.9035170308244
115,1437139371074,64.0705473512142
116,1437139371492,58.0417484031958
117,1437139371912,44.6486534542956
118,1437139372365,50.7075597203041
119,1437139372840,44.3070197531009
120,1437139373332,57.3267939079188
121,1437139373787,48.8235817163693
122,1437139374243,46.1982800544098
123,1437139374709,58.0152356420533
124,1437139375230,47.1716954995684
125,1437139375672,58.7778142761506
126,1437139377255,47.0770222873757
127,1437139377686,53.9341653108323
128,1437139378152,41.7007222453945
129,1437139378650,46.6640251151366
130,1437139379125,41.1842880301993
131,1437139379626,57.7956824220349
132,1437139380143,43.1265039435953
133,1437139380615,54.785795459917
134,1437139381022,43.9206098736395
135,1437139381393,42.9777057533908
136,1437139381753,46.4525879387438
137,1437139382162,44.7167571128871
138,1437139382622,44.8863128201449
139,1437139383085,52.13602631582
140,1437139383561,48.3333735879561
141,1437139384069,48.0746548487728
142,1437139384529,49.1421763744974
143,1437139384988,41.7912679149874
144,1437139385602,49.7584750083394
145,1437139386013,43.5538486493874
146,1437139386447,45.7475321865666
147,1437139386904,45.3925906899143
148,1437139387410,41.064847729675
149,1437139387827,44.8282480841779
150,1437139388179,48.3121249867875
151,1437139388543,38.8143001045153
152,1437139389036,45.4115026637892
153,1437139389524,44.3458964218873
154,1437139389997,38.0981788081147
155,1437139390542,41.8187627542497
156,1437139391034,40.7588769535919
157,1437139391434,42.4412042314534
158,1437139391864,41.913657596732
159,1437139392338,44.1597189092888
160,1437139392831,51.6302975656007
161,1437139394236,49.0205378243599
162,1437139394625,44.1973307596318
163,1437139394995,39.108203621072
164,1437139395335,45.2272155751917
165,1437139395773,43.6259772294358
166,1437139396193,43.2714160061767
167,1437139396552,43.1190078166626
168,1437139396891,41.5829830098971
169,1437139397249,47.3009627241911
170,1437139397694,39.382128121991
171,1437139398129,42.8216445958189
172,1437139398582,42.8590928814647
173,1437139399125,50.8135106543172
174,1437139399624,44.2815354599653
175,1437139400117,40.7085350424087
176,1437139400718,46.4080951574412
177,1437139401225,42.8715230133164
178,1437139401694,40.2675101568604
179,1437139402144,43.8708912293481
180,1437139402749,46.3870610592519
181,1437139403085,47.9521697526594
182,1437139403488,43.7096093444163
183,1437139403832,46.4783247076248
184,1437139404165,48.6854150224975
185,1437139404618,45.3318983782933
186,1437139405096,51.5992837358488
187,1437139405535,44.5549208196205
188,1437139405962,42.1786043700622
189,1437139406426,41.2596112336297
190,1437139407031,41.4179583795151
191,1437139407451,45.1853674047724
192,1437139407898,45.5219521714891
193,1437139408318,52.6550824046534
194,1437139408775,47.7965884017152
195,1437139409218,51.6531937576802
196,1437139409707,48.4252670412773
197,1437139410182,42.6832653309444
198,1437139410745,45.8399908591563
199,1437139411282,53.9235795671943
200,1437139411691,53.3091770724656
201,1437139412119,48.7360922491886
202,1437139412588,51.3444277414715
203,1437139413054,57.215327139296
204,1437139413525,56.6007368809548
205,1437139414019,56.827401148005
206,1437139414493,54.2760418772059
207,1437139414955,54.7683298336629
208,1437139415606,49.0312441014837
209,1437139415982,48.1342668183393
210,1437139416402,54.6293075958948
211,1437139416843,46.3834901235191
212,1437139417323,47.4489428838951
213,1437139417799,45.8815191030926
214,1437139418282,49.8857199703853
215,1437139418762,45.5575633055997
216,1437139419263,46.2308221139192
217,1437139419751,43.5893862410029
218,1437139420207,46.2038219210184
219,1437139420731,46.8775885776771
220,1437139421207,45.8224175394774
221,1437139421715,44.2150350708814
222,1437139422192,44.8833015173914
223,1437139422606,45.7702817543974
224,1437139423010,45.0015479621856
225,1437139423420,53.8699371246505
226,1437139423867,48.8158308193182
227,1437139424385,55.8778963746619
228,1437139424850,51.3082236146117
229,1437139425361,47.3140276506427
230,1437139425820,46.9729283002264
231,1437139426322,51.3688761436652
232,1437139426708,47.5835104010562
233,1437139427122,47.6111030278829
234,1437139427576,47.3983512522425
235,1437139428067,55.0658705791917
236,1437139428495,60.2047407723344
237,1437139428920,50.7704927478195
238,1437139429378,45.4460686480304
239,1437139429841,45.9060887279956
240,1437139430302,46.5299150913901
241,1437139430787,59.600142232059
242,1437139431222,54.0184416909042
243,1437139431705,52.4183255254253
244,1437139432198,48.6316972637926
245,1437139432624,57.8930160540145
246,1437139433058,52.8699155493918
247,1437139433541,49.324096744479
248,1437139434011,51.9129315706513
249,1437139434494,45.338247903337
250,1437139435018,49.7528589608034
251,1437139435498,46.4078045091524
252,1437139436000,49.767066045305
253,1437139436519,46.3374545925582
254,1437139437059,47.3502506079927
255,1437139437558,44.3965910001718
256,1437139438006,54.0304775110543
257,1437139438481,44.5693431436275
258,1437139438993,46.7196552572646
259,1437139439478,51.873616001697
260,1437139440060,56.9753983850903
261,1437139440533,45.845319257422
262,1437139441077,48.7770249559414
263,1437139441573,46.3006357075403
264,1437139442065,47.842658315701
265,1437139442516,47.8911448917867
266,1437139442953,50.5208235476061
267,1437139443332,53.6963627994255
268,1437139443805,54.3510874293729
269,1437139444303,55.3226916087648
270,1437139444789,51.1330627574073
271,1437139445285,46.5639587935177
272,1437139445791,48.3240477014888
273,1437139446234,46.6219070550276
274,1437139446697,49.5784759322354
275,1437139447189,49.8019977712111
276,1437139447640,46.5471676398438
277,1437139448064,49.0078182001987
278,1437139448540,45.6790282789261
279,1437139449021,46.2366589384896
280,1437139449489,50.0186848895157
281,1437139450011,44.5884107965617
282,1437139450420,52.8513529358216
283,1437139450834,56.7632798420766
284,1437139451279,60.1241021856611
285,1437139451757,54.1909745192529
286,1437139452229,45.8396379967343
287,1437139452705,46.2145776322521
288,1437139453128,43.0459502819145
289,1437139453528,51.9579034762038
290,1437139454005,46.1693762933739
291,1437139454491,49.4960134501349
292,1437139454974,45.3673234220626
293,1437139455456,52.3747563617316
294,1437139455947,44.7720716487349
295,1437139456429,48.5758670208652
296,1437139456911,50.0105782181152
297,1437139457378,51.301359220156
298,1437139457797,55.9615116556235
299,1437139458238,56.5309297109193
300,1437139458690,51.1657687585152
301,1437139459216,52.0677287723282
302,1437139459697,46.7331582204607
303,1437139460208,48.6118785901224
304,1437139460681,45.8647340333824
305,1437139461182,44.677205835941
306,1437139461681,45.846835003291
307,1437139462130,45.3269120010836
308,1437139462584,42.7970478326265
309,1437139462998,45.0970944025195
310,1437139463467,42.8648267971894
311,1437139463953,48.1701812215737
312,1437139464449,47.8206871207537
313,1437139464940,44.4267603677245
314,1437139465513,51.1792072633826
315,1437139465988,48.0633311299482
316,1437139466466,52.8704857004018
317,1437139466857,61.4914898910995
318,1437139467271,51.3631670129186
319,1437139467747,40.9039002321064
320,1437139468235,46.6854210600542
321,1437139468730,42.3058395351486
322,1437139469231,47.6893971161788
323,1437139469730,43.6968019460211
324,1437139470212,45.9229350500093
325,1437139470665,47.1568002787601
326,1437139471072,61.388853637
327,1437139471572,60.5471480901554
328,1437139472057,59.2782038354544
329,1437139472538,48.405936854629
330,1437139472956,57.3120546738822
331,1437139473385,67.6953033719763
332,1437139473793,65.238559304633
333,1437139474262,64.386805077219
334,1437139474730,57.3570578218061
335,1437139475237,53.1920340198662
336,1437139475725,70.6523422526425
337,1437139476200,56.5810587839096
338,1437139476677,56.7358930206825
339,1437139477163,68.78007120152
340,1437139477640,65.6432616805339
341,1437139478126,50.4361742584572
342,1437139478590,46.8939683132693
343,1437139479080,53.2775399640411
344,1437139479563,67.9643711871371
345,1437139480041,65.2271836013017
346,1437139480601,61.9165025131783
347,1437139481115,54.8560145399855
348,1437139481607,45.1488631746878
349,1437139482079,42.6297740131547
350,1437139482555,52.1658255450856
351,1437139483028,74.2340263505474
352,1437139483519,68.0149726103499
353,1437139484000,54.600610981972
354,1437139484435,65.8683688888009
355,1437139484901,68.9148756639493
356,1437139485435,58.9677440297318
357,1437139485920,57.7228909033009
358,1437139486434,57.6238736560415
359,1437139486964,71.9497274276508
360,1437139487421,72.8845006193579
361,1437139487916,72.934675897918
362,1437139488415,49.8340023564668
363,1437139488899,54.3272208291375
364,1437139489416,56.3466058258104
365,1437139489881,66.0720030471636
366,1437139490377,58.6690008635766
367,1437139490837,57.6560880957266
368,1437139491243,51.2586619770202
369,1437139491705,60.5670354626473
370,1437139492190,55.2384012654598
371,1437139492708,59.3390223646277
372,1437139493188,49.3041261730728
373,1437139493652,52.579178717397
374,1437139494163,60.139973249793
375,1437139494637,59.7814930138409
376,1437139495119,54.1432670069663
377,1437139495661,44.7669229343394
378,1437139496142,46.3050308703842
379,1437139496617,50.2778669107467
380,1437139497124,45.8516594341031
381,1437139497598,54.4059549429907
382,1437139498089,54.8636856112678
383,1437139498563,49.4311679015668
384,1437139499035,55.8138185875913
385,1437139499526,56.2983622586395
386,1437139500022,56.7496947834411
387,1437139500495,44.7979490550153
388,1437139500939,46.3276790813315
389,1437139501385,45.798412516936
390,1437139501812,43.92802208999
391,1437139502239,47.5023727638926
392,1437139502703,47.4691956383052
393,1437139503181,53.9673519835402
394,1437139503690,52.7287351594458
395,1437139504158,50.2221119140285
396,1437139504638,47.5887084794264
397,1437139505125,51.9864086841456
398,1437139505520,44.1649747221708
399,1437139505992,53.1881546484836
400,1437139506482,43.9670665651753
401,1437139506941,43.5411054373149
402,1437139507400,45.0670423254819
403,1437139507890,43.9474779095458
404,1437139508383,43.0572410683456
405,1437139508872,46.5469389873804
406,1437139509360,46.2286007619186
407,1437139509820,46.2629082267613
408,1437139510264,47.4120517146665
409,1437139510680,45.3006085889608
410,1437139511128,45.7184494829416
411,1437139511490,48.2647511975464
412,1437139511894,49.571919481435
413,1437139512316,51.178139879945
414,1437139512769,45.332883713982
415,1437139513248,47.0391339756911
416,1437139513730,44.1137510106101
417,1437139514213,46.995889879846
418,1437139514690,44.1879127576151
419,1437139515169,45.112184457712
420,1437139515724,44.3939289882752
421,1437139516155,47.361618053903
422,1437139516607,46.3182141892536
423,1437139517090,46.5194708197883
424,1437139517587,46.6332597580943
425,1437139518072,50.5399555943338
426,1437139518574,47.0236533116893
427,1437139519065,51.672627891245
428,1437139519540,53.3628662388712
429,1437139520047,47.216830150005
430,1437139520537,52.5223179892475
431,1437139521036,47.6180363798062
432,1437139521502,50.5702102277144
433,1437139521986,45.7391020069895
434,1437139522466,44.1514570484077
435,1437139522953,54.7410820178946
436,1437139523397,50.7339148323605
437,1437139523828,46.1739548358013
438,1437139524283,45.1389135191612
439,1437139524764,52.2152656820369
440,1437139525249,54.0108894213134
441,1437139525729,62.955797703553
442,1437139526249,56.2558957854613
443,1437139526723,54.4824303742433
444,1437139527228,51.193309041926
445,1437139527643,45.593347068024
446,1437139528056,45.7804313062278
447,1437139528523,51.634927618096
448,1437139529007,46.5150229588432
449,1437139529512,48.0163770171969
450,1437139529988,42.8053569283939
451,1437139530547,47.2947000093255
452,1437139532367,54.5097082393435
453,1437139532815,52.9427421286113
454,1437139533288,48.3935950135883
455,1437139533720,47.9026924528254
456,1437139534110,44.4922086789367
457,1437139534547,48.315411755651
458,1437139535033,48.5123292957539
459,1437139535412,47.1978402294759
460,1437139535780,48.1972401278571
461,1437139536242,48.0548800918608
462,1437139536696,45.5049953224533
463,1437139537190,57.9044074059486
464,1437139537653,50.7279156651264
465,1437139538134,50.9771338075359
466,1437139538621,49.8041183628815
467,1437139539050,67.7668006403229
468,1437139539538,52.6458797694224
469,1437139540125,59.0921843624716
470,1437139540595,57.4474130097078
471,1437139541079,59.7874170449518
472,1437139541580,54.1167599053378
473,1437139542048,57.7665430235938
474,1437139542527,58.5148209566069
475,1437139543028,62.5395884838483
476,1437139543481,54.602307805628
477,1437139543901,57.6101484994214
478,1437139544250,44.7159583118948
479,1437139544706,44.9710679655251
480,1437139545179,60.807934105978
481,1437139545659,45.6464003620987
482,1437139546027,54.5727024064537
483,1437139546425,52.1642063441271
484,1437139546850,54.1121088434311
485,1437139547300,44.7740412958695
486,1437139547743,49.3140043226764
487,1437139548222,46.7614956987662
488,1437139548688,47.1954739846317
489,1437139549175,53.8102288572978
490,1437139549739,52.1036579932566
491,1437139550226,63.4859855734077
492,1437139550743,47.1235808104117
493,1437139551231,53.7849851133114
494,1437139551689,52.3855719770354
495,1437139552082,44.4550033758112
496,1437139552504,49.1760225418103
497,1437139552953,51.3844630803346
498,1437139554458,42.9916138539367
499,1437139554848,46.7326966233313
500,1437139555268,54.7705951265974
501,1437139555728,49.491130557883
502,1437139556208,43.7303111607671
503,1437139556682,52.2764614124304
504,1437139557200,48.3297183721593
505,1437139557651,50.7158936077417
506,1437139558089,48.4029537581665
507,1437139558571,44.4029848951755
508,1437139559062,45.7229781901237
509,1437139559562,43.9756917751483
510,1437139560127,53.1324577757885
511,1437139560605,48.0823582541339
512,1437139561106,46.7771688231788
513,1437139561649,43.6575024368952
514,1437139562139,49.6054840172205
515,1437139562655,46.4996090026215
516,1437139563140,44.4070229348914
517,1437139563635,45.2755838804834
518,1437139564089,50.0085254107344
519,1437139564484,57.9649497356995
520,1437139564909,58.7163874926262
521,1437139565380,47.1451408526391
522,1437139565867,45.6017415652916
523,1437139566360,44.0755800966955
524,1437139566783,48.0491404906967
525,1437139567243,45.9921898979285
526,1437139567719,44.6439575907215
527,1437139568193,44.4044762152746
528,1437139568674,47.6186498148986
529,1437139569133,52.6928927087686
530,1437139569600,50.0558371795375
531,1437139570037,51.8233213721379
532,1437139570476,46.0058560941434
533,1437139570955,47.0907189864938
534,1437139571428,45.2009399160808
535,1437139571943,52.0397421912313
536,1437139572407,44.0253084723808
537,1437139572825,44.3016551749193
538,1437139573281,44.3432642468722
539,1437139573759,44.1619812991866
540,1437139574225,45.4833878162737
541,1437139574674,60.7804754399807
542,1437139575065,47.9394901713477
543,1437139575506,44.5291690482056
544,1437139575977,46.3089579194295
545,1437139576469,52.0392579617997
546,1437139576993,46.2566225694132
547,1437139577472,46.4336411735637
548,1437139577961,53.0186940912206
549,1437139578462,49.7519391868192
550,1437139578955,51.0388823916745
551,1437139579450,46.3922442864801
552,1437139579874,47.0983273781188
553,1437139580340,46.5183740296239
554,1437139580834,49.9741829699437
555,1437139581329,46.330014889978
556,1437139581814,50.5392132387571
557,1437139582303,43.991242515402
558,1437139582775,53.9407029048003
559,1437139583262,43.8622047893365
560,1437139583780,55.0599841243465
561,1437139584249,45.9373134474312
562,1437139584710,64.6901007636985
563,1437139585129,54.590069304731
564,1437139585553,45.3599828536759
565,1437139586005,46.9169285570076
566,1437139586485,44.5226653819801
567,1437139586971,56.2676901097272
568,1437139587460,47.1380190804209
569,1437139587948,53.5999745216667
570,1437139588453,54.4633145705074
571,1437139588953,53.1466969932562
572,1437139589415,55.6599794834047
573,1437139589853,54.4442601411887
574,1437139590355,51.5940642206065
575,1437139590845,57.5008819265291
576,1437139591342,51.5410832849124
