id,attr_time,attr_light
1,1438259512884,0.0
2,1438259512885,0.0
3,1438259512886,0.0
4,1438259512887,0.0
5,1438259512907,0.0
6,1438259512921,0.0
7,1438259512938,0.0
8,1438259512956,0.0
9,1438259512980,0.0
10,1438259512996,0.0
11,1438259513017,0.0
12,1438259513036,0.0
13,1438259513056,0.0
14,1438259513076,0.0
15,1438259513098,0.0
16,1438259513116,0.0
17,1438259513139,0.0
18,1438259513159,0.0
19,1438259513179,0.0
20,1438259513197,0.0
21,1438259513217,0.0
22,1438259513238,0.0
23,1438259513259,0.0
24,1438259513277,0.0
25,1438259513299,0.0
26,1438259513317,0.0
27,1438259513340,0.0
28,1438259513359,0.0
29,1438259513378,0.0
30,1438259513398,0.0
31,1438259513418,0.0
32,1438259513439,0.0
33,1438259513459,0.0
34,1438259513479,0.0
35,1438259513499,0.0
36,1438259513517,0.0
37,1438259513537,0.0
38,1438259513605,0.0
39,1438259513606,0.0
40,1438259513607,0.0
41,1438259513621,0.0
42,1438259513637,0.0
43,1438259513661,0.0
44,1438259513676,0.0
45,1438259513696,0.0
46,1438259513717,0.0
47,1438259513740,0.0
48,1438259513758,0.0
49,1438259513783,0.0
50,1438259513798,0.0
51,1438259513821,0.0
52,1438259513842,0.0
53,1438259515246,0.0
54,1438259515247,0.0
55,1438259515248,0.0
56,1438259515249,0.0
57,1438259515250,0.0
58,1438259515251,0.0
59,1438259515252,0.0
60,1438259515253,0.0
61,1438259515254,0.0
62,1438259515255,0.0
63,1438259515256,0.0
64,1438259515257,0.0
65,1438259515258,0.0
66,1438259515259,0.0
67,1438259515260,0.0
68,1438259515261,0.0
69,1438259515262,0.0
70,1438259515263,0.0
71,1438259515264,0.0
72,1438259515265,0.0
73,1438259515266,0.0
74,1438259515267,0.0
75,1438259515268,0.0
76,1438259515269,0.0
77,1438259515270,0.0
78,1438259515271,0.0
79,1438259515272,0.0
80,1438259515273,0.0
81,1438259515274,0.0
82,1438259515275,0.0
83,1438259515276,0.0
84,1438259515277,0.0
85,1438259515278,0.0
86,1438259515279,0.0
87,1438259515280,0.0
88,1438259515281,0.0
89,1438259515282,0.0
90,1438259515283,0.0
91,1438259515284,0.0
92,1438259515285,0.0
93,1438259515286,0.0
94,1438259515287,0.0
95,1438259515288,0.0
96,1438259515289,0.0
97,1438259515290,0.0
98,1438259515291,0.0
99,1438259515292,0.0
100,1438259515293,0.0
101,1438259515294,0.0
102,1438259515295,0.0
103,1438259515296,0.0
104,1438259515297,0.0
105,1438259515298,0.0
106,1438259515299,0.0
107,1438259515300,0.0
108,1438259515301,0.0
109,1438259515302,0.0
110,1438259515303,0.0
111,1438259515304,0.0
112,1438259515305,0.0
113,1438259515306,0.0
114,1438259515307,0.0
115,1438259515308,0.0
116,1438259515309,0.0
117,1438259515310,0.0
118,1438259515311,0.0
119,1438259515312,0.0
120,1438259515313,0.0
121,1438259515314,0.0
122,1438259515315,0.0
123,1438259515316,0.0
124,1438259515317,0.0
125,1438259515318,0.0
126,1438259515319,0.0
127,1438259515337,0.0
128,1438259515357,0.0
129,1438259515377,0.0
130,1438259515397,0.0
131,1438259515417,0.0
132,1438259515437,0.0
133,1438259515457,0.0
134,1438259515478,0.0
135,1438259515498,0.0
136,1438259515520,0.0
137,1438259515542,0.0
138,1438259515559,0.0
139,1438259515582,0.0
140,1438259515603,0.0
141,1438259515622,0.0
142,1438259515643,0.0
143,1438259515663,0.0
144,1438259515681,0.0
145,1438259515697,0.0
146,1438259515718,0.0
147,1438259515739,0.0
148,1438259515762,0.0
149,1438259515778,0.0
150,1438259515802,0.0
151,1438259515818,0.0
152,1438259515839,0.0
153,1438259515861,0.0
154,1438259515879,0.0
155,1438259515902,0.0
156,1438259515919,0.0
157,1438259515942,0.0
158,1438259515963,0.0
159,1438259515983,0.0
160,1438259516004,0.0
161,1438259516020,0.0
162,1438259516042,0.0
163,1438259516062,0.0
164,1438259516082,0.0
165,1438259516102,0.0
166,1438259516154,0.0
167,1438259516155,0.0
168,1438259516159,0.0
169,1438259516182,0.0
170,1438259516202,0.0
171,1438259516222,0.0
172,1438259516242,0.0
173,1438259516261,0.0
174,1438259516282,0.0
175,1438259516303,0.0
176,1438259516322,0.0
177,1438259516341,0.0
178,1438259516360,0.0
179,1438259516382,0.0
180,1438259516402,0.0
181,1438259516420,0.0
182,1438259516472,0.0
183,1438259516473,0.0
184,1438259516491,0.0
185,1438259516499,0.0
186,1438259516528,0.0
187,1438259516542,0.0
188,1438259516559,0.0
189,1438259516581,0.0
190,1438259516599,0.0
191,1438259516621,0.0
192,1438259516640,0.0
193,1438259516660,0.0
194,1438259516679,0.0
195,1438259516702,0.0
196,1438259516722,0.0
197,1438259516742,0.0
198,1438259516763,0.0
199,1438259516783,0.0
200,1438259516800,0.0
201,1438259516821,0.0
202,1438259516841,0.0
203,1438259516864,0.0
204,1438259516879,0.0
205,1438259516903,0.0
206,1438259516922,0.0
207,1438259516941,0.0
208,1438259516961,0.0
209,1438259516983,0.0
210,1438259517003,0.0
211,1438259517023,0.0
212,1438259517043,0.0
213,1438259517061,0.0
214,1438259517082,0.0
215,1438259517110,0.0
216,1438259517119,0.0
217,1438259517184,0.0
218,1438259517185,0.0
219,1438259517186,0.0
220,1438259517211,0.0
221,1438259517220,0.0
222,1438259517241,0.0
223,1438259517260,0.0
224,1438259517280,0.0
225,1438259517306,0.0
226,1438259517326,0.0
227,1438259517340,0.0
228,1438259517361,0.0
229,1438259517383,0.0
230,1438259517403,0.0
231,1438259517423,0.0
232,1438259517443,0.0
233,1438259517463,0.0
234,1438259517483,0.0
235,1438259517503,0.0
236,1438259517526,0.0
237,1438259517543,0.0
238,1438259517564,0.0
239,1438259517582,0.0
240,1438259517602,0.0
241,1438259517623,0.0
242,1438259517642,0.0
243,1438259517662,0.0
244,1438259517681,0.0
245,1438259517703,0.0
246,1438259517723,0.0
247,1438259517743,0.0
248,1438259517763,0.0
249,1438259517783,0.0
250,1438259517808,0.0
251,1438259517824,0.0
252,1438259517847,0.0
253,1438259517913,0.0
254,1438259517924,0.0
255,1438259517925,0.0
256,1438259517926,0.0
257,1438259517942,0.0
258,1438259517963,0.0
259,1438259517987,0.0
260,1438259518001,0.0
261,1438259518021,0.0
262,1438259518043,0.0
263,1438259518061,0.0
264,1438259518082,0.0
265,1438259518101,0.0
266,1438259518123,0.0
267,1438259518144,0.0
268,1438259518164,0.0
269,1438259518181,0.0
270,1438259518203,0.0
271,1438259518224,0.0
272,1438259518244,0.0
273,1438259518264,0.0
274,1438259518283,0.0
275,1438259518304,0.0
276,1438259518325,0.0
277,1438259518341,0.0
278,1438259518365,0.0
279,1438259518385,0.0
280,1438259518405,0.0
281,1438259518425,0.0
282,1438259518444,0.0
283,1438259518464,0.0
284,1438259518484,0.0
285,1438259518502,0.0
286,1438259518524,0.0
287,1438259518546,0.0
288,1438259518565,0.0
289,1438259518584,0.0
290,1438259518602,0.0
291,1438259518653,0.0
292,1438259518654,0.0
293,1438259518674,0.0
294,1438259518681,0.0
295,1438259518710,0.0
296,1438259518722,0.0
297,1438259518743,0.0
298,1438259518763,0.0
299,1438259518783,0.0
300,1438259518804,0.0
301,1438259518825,0.0
302,1438259518844,0.0
303,1438259518864,0.0
304,1438259518881,0.0
305,1438259518903,0.0
306,1438259518924,0.0
307,1438259518944,0.0
308,1438259518965,0.0
309,1438259518984,0.0
310,1438259519003,0.0
311,1438259519025,0.0
312,1438259519044,0.0
313,1438259519063,0.0
314,1438259519085,0.0
315,1438259519103,0.0
316,1438259519125,0.0
317,1438259519145,0.0
318,1438259519165,0.0
319,1438259519182,0.0
320,1438259519210,0.0
321,1438259519230,0.0
322,1438259519242,0.0
323,1438259519261,0.0
324,1438259519283,0.0
325,1438259519304,0.0
326,1438259519322,0.0
327,1438259519344,0.0
328,1438259519389,0.0
329,1438259519390,0.0
330,1438259519411,0.0
331,1438259519422,0.0
332,1438259519442,0.0
333,1438259519462,0.0
334,1438259519482,0.0
335,1438259519504,0.0
336,1438259519522,0.0
337,1438259519543,0.0
338,1438259519564,0.0
339,1438259519583,0.0
340,1438259519603,0.0
341,1438259519623,0.0
342,1438259519646,0.0
343,1438259519663,0.0
344,1438259519685,0.0
345,1438259519705,0.0
346,1438259519723,0.0
347,1438259519746,0.0
348,1438259519765,0.0
349,1438259519789,0.0
350,1438259519813,0.0
351,1438259519830,0.0
352,1438259519845,0.0
353,1438259519864,0.0
354,1438259519883,0.0
355,1438259519905,0.0
356,1438259519926,0.0
357,1438259519945,0.0
358,1438259519965,0.0
359,1438259519985,0.0
360,1438259520004,0.0
361,1438259520024,0.0
362,1438259520043,0.0
363,1438259520071,0.0
364,1438259520137,0.0
365,1438259520138,0.0
366,1438259520139,0.0
367,1438259520147,0.0
368,1438259520172,0.0
369,1438259520183,0.0
370,1438259520202,0.0
371,1438259520225,0.0
372,1438259520243,0.0
373,1438259520263,0.0
374,1438259520283,0.0
375,1438259520303,0.0
376,1438259520325,0.0
377,1438259520345,0.0
378,1438259520366,0.0
379,1438259520386,0.0
380,1438259520406,0.0
381,1438259520426,0.0
382,1438259520443,0.0
383,1438259520466,0.0
384,1438259520486,0.0
385,1438259520506,0.0
386,1438259520526,0.0
387,1438259520543,0.0
388,1438259520565,0.0
389,1438259520585,0.0
390,1438259520605,0.0
391,1438259520626,0.0
392,1438259520646,0.0
393,1438259520667,0.0
394,1438259520686,0.0
395,1438259520705,0.0
396,1438259520723,0.0
397,1438259520746,0.0
398,1438259520764,0.0
399,1438259520784,0.0
400,1438259520891,0.0
401,1438259520892,0.0
402,1438259520893,0.0
403,1438259520894,0.0
404,1438259520895,0.0
405,1438259520904,0.0
406,1438259520923,0.0
407,1438259520943,0.0
408,1438259520964,0.0
409,1438259520983,0.0
410,1438259521004,0.0
411,1438259521030,0.0
412,1438259521044,0.0
413,1438259521064,0.0
414,1438259521086,0.0
415,1438259521106,0.0
416,1438259521127,0.0
417,1438259521147,0.0
418,1438259521163,0.0
419,1438259521184,0.0
420,1438259521206,0.0
421,1438259521227,0.0
422,1438259521246,0.0
423,1438259521270,0.0
424,1438259521287,0.0
425,1438259521309,0.0
426,1438259521326,0.0
427,1438259521349,0.0
428,1438259521363,0.0
429,1438259521384,0.0
430,1438259521404,0.0
431,1438259521424,0.0
432,1438259521444,0.0
433,1438259521464,0.0
434,1438259521484,0.0
435,1438259521504,0.0
436,1438259521524,0.0
437,1438259521544,0.0
438,1438259521564,0.0
439,1438259521589,0.0
440,1438259521604,0.0
441,1438259521624,0.0
442,1438259521644,0.0
443,1438259521664,0.0
444,1438259521690,0.0
445,1438259521704,0.0
446,1438259521726,0.0
447,1438259521751,0.0
448,1438259521765,0.0
449,1438259521784,0.0
450,1438259521806,0.0
451,1438259521824,0.0
452,1438259521848,0.0
453,1438259521865,0.0
454,1438259521885,0.0
455,1438259521905,0.0
456,1438259521927,0.0
457,1438259521947,0.0
458,1438259521967,0.0
459,1438259521987,0.0
460,1438259522006,0.0
461,1438259522027,0.0
462,1438259522047,0.0
463,1438259522068,0.0
464,1438259522085,0.0
465,1438259522107,0.0
466,1438259522127,0.0
467,1438259522147,0.0
468,1438259522167,0.0
469,1438259522187,0.0
470,1438259522205,0.0
471,1438259522227,0.0
472,1438259522244,0.0
473,1438259522267,0.0
474,1438259522331,0.0
475,1438259522332,0.0
476,1438259522333,0.0
477,1438259522344,0.0
478,1438259522367,0.0
479,1438259522400,0.0
480,1438259522404,0.0
481,1438259522425,0.0
482,1438259522448,0.0
483,1438259522465,0.0
484,1438259522488,0.0
485,1438259522505,0.0
486,1438259522526,0.0
487,1438259522551,0.0
488,1438259522566,0.0
489,1438259522588,0.0
490,1438259522605,0.0
491,1438259522626,0.0
492,1438259522648,0.0
493,1438259522665,0.0
494,1438259522686,0.0
495,1438259522705,0.0
496,1438259522726,0.0
497,1438259522747,0.0
498,1438259522767,0.0
499,1438259522786,0.0
500,1438259522807,0.0
501,1438259522825,0.0
502,1438259522847,0.0
503,1438259522870,0.0
504,1438259522885,0.0
505,1438259522908,0.0
506,1438259522925,0.0
507,1438259522945,0.0
508,1438259522982,0.0
509,1438259523017,0.0
510,1438259523018,0.0
511,1438259523055,0.0
512,1438259523056,0.0
513,1438259523074,0.0
514,1438259523094,0.0
515,1438259523105,0.0
516,1438259523127,0.0
517,1438259523146,0.0
518,1438259523177,0.0
519,1438259523196,0.0
520,1438259523205,0.0
521,1438259523225,0.0
522,1438259523248,0.0
523,1438259523266,0.0
524,1438259523285,0.0
525,1438259523305,0.0
526,1438259523328,0.0
527,1438259523347,0.0
528,1438259523365,0.0
529,1438259523386,0.0
530,1438259523406,0.0
531,1438259523426,0.0
532,1438259523446,0.0
533,1438259523466,0.0
534,1438259523486,0.0
535,1438259523506,0.0
536,1438259523526,0.0
537,1438259523546,0.0
538,1438259523568,0.0
539,1438259523588,0.0
540,1438259523606,0.0
541,1438259523625,0.0
542,1438259523645,0.0
543,1438259523665,0.0
544,1438259523687,0.0
545,1438259523706,0.0
546,1438259523725,0.0
547,1438259523745,0.0
548,1438259523765,0.0
549,1438259523785,0.0
550,1438259523805,0.0
551,1438259523825,0.0
552,1438259523845,0.0
553,1438259523865,0.0
554,1438259523885,0.0
555,1438259523905,0.0
556,1438259523925,0.0
557,1438259523945,0.0
558,1438259523965,0.0
559,1438259523989,0.0
560,1438259524007,0.0
561,1438259524027,0.0
562,1438259524048,0.0
563,1438259524070,0.0
564,1438259524087,0.0
565,1438259524107,0.0
566,1438259524126,0.0
567,1438259524147,0.0
568,1438259524167,0.0
569,1438259524189,0.0
570,1438259524206,0.0
571,1438259524226,0.0
572,1438259524246,0.0
573,1438259524266,0.0
574,1438259524301,0.0
575,1438259524313,0.0
576,1438259524327,0.0
577,1438259524346,0.0
578,1438259524369,0.0
579,1438259524388,0.0
580,1438259524406,0.0
581,1438259524427,0.0
582,1438259524448,0.0
583,1438259524469,0.0
584,1438259524489,0.0
585,1438259524507,0.0
586,1438259524528,0.0
587,1438259524548,0.0
588,1438259524567,0.0
589,1438259524588,0.0
590,1438259524609,0.0
591,1438259524629,0.0
592,1438259524648,0.0
593,1438259524669,0.0
594,1438259524689,0.0
595,1438259524709,0.0
596,1438259524729,0.0
597,1438259524750,0.0
598,1438259524771,0.0
599,1438259524793,0.0
600,1438259524812,0.0
601,1438259524829,0.0
602,1438259524849,0.0
603,1438259524871,0.0
604,1438259524888,0.0
605,1438259524908,0.0
606,1438259524973,0.0
607,1438259524974,0.0
608,1438259524975,0.0
609,1438259524990,0.0
610,1438259525008,0.0
611,1438259525027,0.0
612,1438259525047,0.0
613,1438259525067,0.0
614,1438259525089,0.0
615,1438259525109,0.0
616,1438259525128,0.0
617,1438259525148,0.0
618,1438259525169,0.0
619,1438259525190,0.0
620,1438259525209,0.0
621,1438259525230,0.0
622,1438259525250,0.0
623,1438259525270,0.0
624,1438259525290,0.0
625,1438259525310,0.0
626,1438259525330,0.0
627,1438259525350,0.0
628,1438259525368,0.0
629,1438259525390,0.0
630,1438259525407,0.0
631,1438259525428,0.0
632,1438259525448,0.0
633,1438259525470,0.0
634,1438259525494,0.0
635,1438259525511,0.0
636,1438259525530,0.0
637,1438259525549,0.0
638,1438259525570,0.0
639,1438259525588,0.0
640,1438259525609,0.0
641,1438259525630,0.0
642,1438259525702,0.0
643,1438259525703,0.0
644,1438259525704,0.0
645,1438259525711,0.0
646,1438259525729,0.0
647,1438259525748,0.0
648,1438259525768,0.0
649,1438259525800,0.0
650,1438259525809,0.0
651,1438259525837,0.0
652,1438259525848,0.0
653,1438259525884,0.0
654,1438259525890,0.0
655,1438259525911,0.0
656,1438259525930,0.0
657,1438259525950,0.0
658,1438259525969,0.0
659,1438259525991,0.0
660,1438259526010,0.0
661,1438259526033,0.0
662,1438259526050,0.0
663,1438259526070,0.0
664,1438259526092,0.0
665,1438259526109,0.0
666,1438259526161,0.0
667,1438259526162,0.0
668,1438259526168,0.0
669,1438259526189,0.0
670,1438259526211,0.0
671,1438259526231,0.0
672,1438259526251,0.0
673,1438259526272,0.0
674,1438259526288,0.0
675,1438259526308,0.0
676,1438259526331,0.0
677,1438259526349,0.0
678,1438259526405,0.0
679,1438259526407,0.0
680,1438259526419,0.0
681,1438259526428,0.0
682,1438259526451,0.0
683,1438259526470,0.0
684,1438259526488,0.0
685,1438259526511,0.0
686,1438259526528,0.0
687,1438259526549,0.0
688,1438259526569,0.0
689,1438259526590,0.0
690,1438259526608,0.0
691,1438259526631,0.0
692,1438259526651,0.0
693,1438259526671,0.0
694,1438259526691,0.0
695,1438259526711,0.0
696,1438259526731,0.0
697,1438259526751,0.0
698,1438259526772,0.0
699,1438259526791,0.0
700,1438259526817,0.0
701,1438259526836,0.0
702,1438259526852,0.0
703,1438259526872,0.0
704,1438259526889,0.0
705,1438259526911,0.0
706,1438259526929,0.0
707,1438259526949,0.0
708,1438259526969,0.0
709,1438259526992,0.0
710,1438259527011,0.0
711,1438259527031,0.0
712,1438259527051,0.0
713,1438259527078,0.0
714,1438259527131,0.0
715,1438259527132,0.0
716,1438259527133,0.0
717,1438259527151,0.0
718,1438259527171,0.0
719,1438259527190,0.0
720,1438259527212,0.0
721,1438259527229,0.0
722,1438259527252,0.0
723,1438259527269,0.0
724,1438259527290,0.0
725,1438259527316,0.0
726,1438259527330,0.0
727,1438259527355,0.0
728,1438259527371,0.0
729,1438259527391,0.0
730,1438259527411,0.0
731,1438259527432,0.0
732,1438259527452,0.0
733,1438259527472,0.0
734,1438259527516,0.0
735,1438259527517,0.0
736,1438259527529,0.0
737,1438259527559,0.0
738,1438259527584,0.0
739,1438259527589,0.0
740,1438259527609,0.0
741,1438259527629,0.0
742,1438259527649,0.0
743,1438259527669,0.0
744,1438259527694,0.0
745,1438259527709,0.0
746,1438259527729,0.0
747,1438259527783,0.0
748,1438259527784,0.0
749,1438259527802,0.0
750,1438259527835,0.0
751,1438259527836,0.0
752,1438259527879,0.0
753,1438259527880,0.0
754,1438259527904,0.0
755,1438259527913,0.0
756,1438259527930,0.0
757,1438259527950,0.0
758,1438259527970,0.0
759,1438259527993,0.0
760,1438259528010,0.0
761,1438259528033,0.0
762,1438259528050,0.0
763,1438259528070,0.0
764,1438259528091,0.0
765,1438259528113,0.0
766,1438259528134,0.0
767,1438259528154,0.0
768,1438259528174,0.0
769,1438259528195,0.0
770,1438259528214,0.0
771,1438259528234,0.0
772,1438259528254,0.0
773,1438259528270,0.0
774,1438259528295,0.0
775,1438259528312,0.0
776,1438259528332,0.0
777,1438259528352,0.0
778,1438259528369,0.0
779,1438259528391,0.0
780,1438259528415,0.0
781,1438259528431,0.0
782,1438259528452,0.0
783,1438259528472,0.0
784,1438259528492,0.0
785,1438259528512,0.0
786,1438259528529,0.0
787,1438259528550,0.0
788,1438259528569,0.0
789,1438259529959,0.0
790,1438259529960,0.0
791,1438259529961,0.0
792,1438259529962,0.0
793,1438259529963,0.0
794,1438259529964,0.0
795,1438259529965,0.0
796,1438259529966,0.0
797,1438259529967,0.0
798,1438259529968,0.0
799,1438259529969,0.0
800,1438259529970,0.0
801,1438259529971,0.0
802,1438259529972,0.0
803,1438259529973,0.0
804,1438259529974,0.0
805,1438259529975,0.0
806,1438259529976,0.0
807,1438259529977,0.0
808,1438259529978,0.0
809,1438259529979,0.0
810,1438259529980,0.0
811,1438259529981,0.0
812,1438259529982,0.0
813,1438259529983,0.0
814,1438259529984,0.0
815,1438259529985,0.0
816,1438259529986,0.0
817,1438259529987,0.0
818,1438259529988,0.0
819,1438259529989,0.0
820,1438259529990,0.0
821,1438259529991,0.0
822,1438259529992,0.0
823,1438259529993,0.0
824,1438259529994,0.0
825,1438259529995,0.0
826,1438259529996,0.0
827,1438259529997,0.0
828,1438259529998,0.0
829,1438259529999,0.0
830,1438259530000,0.0
831,1438259530001,0.0
832,1438259530002,0.0
833,1438259530003,0.0
834,1438259530004,0.0
835,1438259530005,0.0
836,1438259530006,0.0
837,1438259530007,0.0
838,1438259530008,0.0
839,1438259530009,0.0
840,1438259530010,0.0
841,1438259530011,0.0
842,1438259530012,0.0
843,1438259530013,0.0
844,1438259530014,0.0
845,1438259530015,0.0
846,1438259530016,0.0
847,1438259530017,0.0
848,1438259530018,0.0
849,1438259530019,0.0
850,1438259530020,0.0
851,1438259530021,0.0
852,1438259530022,0.0
853,1438259530023,0.0
854,1438259530024,0.0
855,1438259530025,0.0
856,1438259530026,0.0
857,1438259530027,0.0
858,1438259530028,0.0
859,1438259530029,0.0
860,1438259530030,0.0
861,1438259530031,0.0
862,1438259530051,0.0
863,1438259530071,0.0
864,1438259530091,0.0
865,1438259530111,0.0
866,1438259530131,0.0
867,1438259530152,0.0
868,1438259530171,0.0
869,1438259530194,0.0
870,1438259530212,0.0
871,1438259530235,0.0
872,1438259530252,0.0
873,1438259530275,0.0
874,1438259530293,0.0
875,1438259530313,0.0
876,1438259530333,0.0
877,1438259530353,0.0
878,1438259530375,0.0
879,1438259530395,0.0
880,1438259530416,0.0
881,1438259530434,0.0
882,1438259530453,0.0
883,1438259530475,0.0
884,1438259530493,0.0
885,1438259530512,0.0
886,1438259530568,0.0
887,1438259530569,0.0
888,1438259530594,0.0
889,1438259530595,0.0
890,1438259530613,0.0
891,1438259530633,0.0
892,1438259530652,0.0
893,1438259530677,0.0
894,1438259530694,0.0
895,1438259530713,0.0
896,1438259530733,0.0
897,1438259530753,0.0
898,1438259530776,0.0
899,1438259530793,0.0
900,1438259530814,0.0
901,1438259530832,0.0
902,1438259530853,0.0
903,1438259530872,0.0
904,1438259530895,0.0
905,1438259530915,0.0
906,1438259530936,0.0
907,1438259530956,0.0
908,1438259530974,0.0
909,1438259530996,0.0
910,1438259531016,0.0
911,1438259531036,0.0
912,1438259531056,0.0
