id,attr_time,attr_db
1,1436286769778,56.0958773379231
2,1436286770516,59.1816898346088
3,1436286771246,55.5971039787671
4,1436286771927,65.174336902123
5,1436286772698,62.5044710259127
6,1436286773417,57.2174419874085
7,1436286774119,55.229311284445
8,1436286775925,59.1863622539195
9,1436286776686,60.3304670711835
10,1436286777453,56.9457173479617
11,1436286778196,56.1913799967564
12,1436286778921,54.3214716293544
13,1436286779686,55.007500574213
14,1436286780402,56.6985055647056
15,1436286781134,56.3596833314336
16,1436286781880,56.4149335971928
17,1436286782626,60.6473940246497
18,1436286783256,60.7601839675876
19,1436286784621,55.9814284653542
20,1436286785321,53.4971239917188
21,1436286786054,52.4823946763763
22,1436286786793,52.7868362327071
23,1436286787477,52.7983220064747
24,1436286788045,54.8236670094666
25,1436286788718,54.0610371624041
26,1436286789450,55.2577592488531
27,1436286790174,57.3939027026771
28,1436286790896,55.0991173731162
29,1436286791652,55.5807095510788
30,1436286792373,55.0085402419488
31,1436286793063,53.8904151536109
32,1436286793793,52.1358294294655
33,1436286794523,56.2520954188839
34,1436286795306,50.7903502890253
35,1436286796031,62.5325651919022
36,1436286796750,61.9402730648762
37,1436286797470,62.3335483896443
38,1436286798184,61.2823959758611
39,1436286798912,57.0899748469572
40,1436286799660,60.1675634947805
41,1436286800404,59.5004684211687
42,1436286801129,61.3711231277919
43,1436286801830,53.6295368843224
44,1436286802552,56.8254306684832
45,1436286803244,59.2796507391141
46,1436286804008,60.3763705400745
47,1436286804743,56.561460313346
48,1436286805469,58.9561422875067
49,1436286806161,56.3467977227207
50,1436286806797,55.4402658520988
51,1436286807490,56.443500339098
52,1436286808176,53.7489200222569
53,1436286808846,56.020625367255
54,1436286809602,55.7182756674792
55,1436286810322,53.9431530439324
56,1436286811070,54.6654855139629
57,1436286811801,53.6707791545209
58,1436286812546,52.5906688564003
59,1436286813263,52.5608855199241
60,1436286813973,51.5881325991042
61,1436286814719,50.0705507512223
62,1436286815462,55.6315592385576
63,1436286816186,51.8280586470837
64,1436286816929,53.2815312009128
65,1436286817660,50.7452872020655
66,1436286818385,55.263957980963
67,1436286819095,61.3037346169293
68,1436286819831,64.3589703081881
69,1436286820587,55.5794976225027
70,1436286821326,57.0197027285233
71,1436286822075,53.4000659446908
72,1436286822765,48.8391292256155
73,1436286823500,51.9661250800701
74,1436286824226,54.1013145107115
75,1436286824967,66.9820584429187
76,1436286825711,63.1131242514717
77,1436286826459,61.1182424113001
78,1436286827215,65.329110715402
79,1436286827935,56.6032833172206
80,1436286828679,57.7179227141199
81,1436286829365,54.8992905284085
82,1436286830022,54.2767985053616
83,1436286830745,54.1208485779412
84,1436286831505,54.2358910735893
85,1436286832230,55.4959492444151
86,1436286832937,58.502925615087
87,1436286833669,53.5734122853131
88,1436286834396,55.9452285449489
89,1436286835130,54.7977988155154
90,1436286835864,55.8247355058751
91,1436286836549,55.4089638817663
92,1436286837185,53.7602217903295
93,1436286837885,64.7283601048105
94,1436286838628,55.9504708889899
95,1436286839353,52.9821700431403
96,1436286840090,49.1100309970697
97,1436286840818,51.2915432427825
98,1436286841510,54.8753404945556
99,1436286842275,55.5478490887726
100,1436286843008,52.8678738035175
101,1436286843743,53.5143200719039
102,1436286844457,51.5021099415488
103,1436286845179,55.2072751999839
104,1436286845916,53.6246225160505
105,1436286846674,54.3996624017873
106,1436286847319,56.3613566942953
107,1436286848019,54.3050144628624
108,1436286848745,54.8697218549145
109,1436286849453,53.9073234066872
110,1436286850151,56.8739680542156
111,1436286850846,55.8733671836148
112,1436286851604,55.5432817861415
113,1436286852368,56.8162948979048
114,1436286853088,55.1854323174269
115,1436286853810,57.3022128307432
116,1436286854525,58.618454843182
117,1436286855248,57.9241929672578
118,1436286856003,64.7783763690385
119,1436286856742,57.4894458027215
120,1436286857472,52.8168888185667
121,1436286858206,56.348571388446
122,1436286858953,55.4166240953815
123,1436286859688,59.1942700691683
124,1436286860311,55.199365410278
125,1436286860958,54.3914623722239
126,1436286861665,56.3656519972398
127,1436286862403,56.9647939032524
128,1436286863126,55.4322151245113
129,1436286863858,55.8144092978158
130,1436286864616,56.4261795691227
131,1436286865343,53.3772653565946
132,1436286866044,58.0114448960511
133,1436286866778,59.1021744103883
134,1436286867508,53.1637746321882
135,1436286868252,55.3035895697106
136,1436286868967,64.2785933162929
137,1436286869716,54.8653560975556
138,1436286870430,55.5862753820852
139,1436286871183,55.990277602034
140,1436286871904,57.454080873165
141,1436286872655,59.5618294288405
142,1436286873382,55.3421430313882
143,1436286874115,56.6446833819273
144,1436286874847,53.5436717494845
145,1436286875576,55.4375647813605
146,1436286876280,55.9401781999168
147,1436286877020,55.6828605459796
148,1436286877749,55.6634915722978
149,1436286878462,56.3669807004222
150,1436286879187,54.6225746897539
151,1436286879922,51.2979208976837
152,1436286880687,52.5667974525621
153,1436286881433,49.9974135369809
154,1436286882158,49.3498635281406
155,1436286882883,55.0199005263625
156,1436286883641,58.8186609221418
157,1436286884370,52.2716499365857
158,1436286885096,55.1176944652356
159,1436286885826,52.7869675251129
160,1436286886643,54.5087688125874
161,1436286887370,54.4526066149087
162,1436286888088,52.6693006882986
163,1436286888821,56.4591324313106
164,1436286889532,54.4519760479378
165,1436286890277,54.2288657804786
166,1436286891055,58.4183134118676
167,1436286891803,55.4629062204043
168,1436286892582,56.3147122140829
169,1436286893307,54.7997299574767
170,1436286894046,54.1463182387367
171,1436286894768,56.347821317224
172,1436286895504,56.591016319404
173,1436286896246,56.8490586112748
174,1436286897018,57.2039243005707
175,1436286897750,56.2518646727166
176,1436286898472,53.2181947208398
177,1436286899251,57.8878333582756
178,1436286899974,57.2338774906545
179,1436286900726,54.2131055787451
180,1436286901446,60.5095499409386
181,1436286902099,56.2183249344582
182,1436286902786,58.4386700683748
183,1436286903515,64.1468120535127
184,1436286904246,54.5621105020029
185,1436286904944,61.3691522565132
186,1436286905685,57.211288041895
187,1436286906400,54.8512551119647
188,1436286907124,52.4134647629787
189,1436286907863,61.7219200072705
190,1436286908620,62.4161323753146
191,1436286909310,60.3293520647468
192,1436286909996,50.4669747772767
193,1436286910735,50.3770276711101
194,1436286911477,64.3801880808305
195,1436286912224,62.468510129481
196,1436286912955,61.4132948807151
197,1436286913710,57.3136254478602
198,1436286914431,53.9596951449905
199,1436286915158,58.3186349286026
200,1436286915888,52.6166553898768
201,1436286916689,52.0070489597578
202,1436286917386,55.1977990269464
203,1436286918053,54.5998014520367
204,1436286918792,65.0289755180432
205,1436286919521,55.2524297274772
206,1436286920243,53.1103973178229
207,1436286920998,57.621855862607
208,1436286921806,61.8145021922114
209,1436286922527,51.3189267880054
210,1436286923240,55.1844194217506
211,1436286923977,61.4684883971273
212,1436286924704,64.8964298874557
213,1436286925450,60.1246573517693
214,1436286926201,55.2461281529653
215,1436286926954,49.0098341335589
216,1436286927703,58.1144478514861
217,1436286928441,62.8169635870747
218,1436286929173,51.7715352556045
219,1436286929894,54.0934548756141
220,1436286930636,54.4747391348313
221,1436286931353,51.3689514899458
222,1436286932070,49.9400053111168
223,1436286932814,51.4996002650842
224,1436286933533,54.3097083837221
225,1436286934266,55.4647230279365
226,1436286935002,54.4262060558957
227,1436286935758,55.7197243866868
228,1436286936484,68.4941251155128
229,1436286937221,65.8666278952651
230,1436286937984,54.4913804798158
231,1436286938725,55.5732329565948
232,1436286939423,53.8598023583936
233,1436286940154,54.0705183737081
234,1436286940933,62.7588867996984
235,1436286941682,60.1608530212361
236,1436286942405,61.5131007407106
237,1436286943130,56.3346170014787
238,1436286943859,54.6845690007949
239,1436286944623,59.4013745457159
240,1436286945345,67.3597588755552
241,1436286946081,61.5055466550436
242,1436286946869,61.7169359884896
243,1436286947619,60.702762471627
244,1436286948296,62.0431794856415
245,1436286948968,55.3996171585255
246,1436286949707,67.1244076640778
247,1436286950404,55.1764052406467
248,1436286951120,58.7053185605672
249,1436286951859,62.5124700515735
250,1436286952617,54.1629850648917
251,1436286953333,60.9942372564012
252,1436286954797,55.6081259415556
253,1436286955503,59.9512771417794
254,1436286956316,61.394768002497
255,1436286957037,55.5971692289321
256,1436286957768,58.6859403847977
257,1436286958496,53.9738265004806
258,1436286959204,51.9222142544582
259,1436286959940,53.6449134543258
260,1436286960745,63.5396122356866
261,1436286961463,62.7215988407796
262,1436286962175,63.2209510501455
263,1436286962934,59.5872677181
264,1436286963686,61.0810523964864
265,1436286964408,56.8893284974311
266,1436286965124,55.3575580024514
267,1436286965737,57.3534954241555
268,1436286966449,52.8110684919316
269,1436286967168,67.8204439240722
270,1436286967846,61.7126634193856
271,1436286969317,62.6259108750888
272,1436286969959,62.8781549605911
273,1436286970705,62.607119834805
274,1436286971440,51.6424663669724
275,1436286972143,49.7166892845563
276,1436286972880,67.4422846068224
277,1436286973614,59.9837800921585
278,1436286974332,56.0806216030554
279,1436286975118,62.7232059110995
280,1436286975858,62.5397669366698
281,1436286976648,56.8516896032355
282,1436286977360,63.3979735097607
283,1436286978077,60.1220613401165
284,1436286978800,58.0378532457301
285,1436286979557,50.4869693903935
286,1436286980292,63.3308967271006
287,1436286981034,60.547755160119
288,1436286981833,64.37045006155
289,1436286982586,56.5915405230737
290,1436286983318,61.9573241140298
291,1436286984035,60.6833106960713
292,1436286984783,55.6563364969511
293,1436286985505,51.3594752863342
294,1436286986248,53.6360082322727
295,1436286986977,64.3957602395621
296,1436286987747,59.8997517273814
297,1436286988471,55.1136415392529
298,1436286989201,51.0812943338723
299,1436286989950,49.897357209641
300,1436286990672,51.5456350083279
301,1436286992174,57.3826593684313
302,1436286992875,56.7700376012049
303,1436286993657,57.5645585970531
304,1436286994395,57.9109061797414
305,1436286995118,60.3197223922296
306,1436286995861,56.3534751892724
307,1436286996576,55.9896911861751
308,1436286997283,57.0507154817083
309,1436286998010,52.5547578895684
310,1436286998741,53.3317299023009
311,1436286999458,56.4051941393096
312,1436287000175,55.7659949607726
313,1436287000902,59.0269146926032
314,1436287001700,63.0115316336694
315,1436287002469,58.3482305219989
316,1436287003180,57.5859458221644
317,1436287004960,53.6284402613928
318,1436287005580,51.2460099181305
319,1436287006245,57.0584178494056
320,1436287006994,60.1326400833807
321,1436287007743,56.0825003707516
322,1436287008485,57.1360267194185
323,1436287009209,57.3913382460982
324,1436287009912,55.3517386689438
325,1436287010583,56.5236324253298
326,1436287011286,54.8196714565994
327,1436287012024,53.2297626142565
328,1436287012768,55.5963743545122
329,1436287013511,59.0188648659879
330,1436287014178,55.3435672674952
331,1436287014900,61.8397480202124
332,1436287015638,57.6093933896456
333,1436287016361,55.9318014006617
334,1436287017072,57.137506761336
335,1436287017789,55.268474640102
336,1436287018505,54.5334195252518
337,1436287019241,56.8269564242018
338,1436287019992,54.5881350473839
339,1436287020741,57.3131660081727
340,1436287021483,54.7439528721494
341,1436287022205,49.5713904507199
342,1436287022913,48.8613114306829
343,1436287023667,52.3587502739527
344,1436287024393,55.4532491385778
345,1436287025147,54.5085854850646
346,1436287025866,53.1201319847177
347,1436287026617,56.4004996143152
348,1436287027334,55.0093979326818
349,1436287028054,55.5934036640906
350,1436287028780,54.8304972576663
351,1436287029538,54.0475664902617
352,1436287030491,55.548968807426
353,1436287031140,55.7509326568304
354,1436287031826,55.436244883941
355,1436287032466,55.4992983373202
356,1436287033199,54.5759036971701
357,1436287033922,58.6066731070128
358,1436287034672,56.1141378373379
359,1436287035397,55.9779808217412
360,1436287036072,55.8589974522488
361,1436287036719,54.575245685312
362,1436287037397,51.5994080375586
363,1436287038133,52.6467648880084
364,1436287038860,56.6931703598549
365,1436287039599,53.7848933778189
366,1436287040335,55.6307601283523
367,1436287041070,52.9537302084531
368,1436287041793,56.2338517439077
369,1436287042524,56.3685264042855
370,1436287043289,54.0071050268656
371,1436287044012,53.0103355456236
372,1436287044744,55.485616650498
373,1436287045483,54.4370211917989
374,1436287046247,49.9798956968083
375,1436287046982,51.5079658430119
376,1436287047721,55.5973436672789
377,1436287048444,56.8844403560105
378,1436287049174,55.7919356920936
379,1436287049905,52.0664224837541
380,1436287050675,53.6110758896885
381,1436287051437,63.6418854368758
382,1436287052175,60.324836684658
383,1436287052907,60.3774013209737
384,1436287053655,61.6656016313174
385,1436287054373,58.4166880788269
386,1436287055091,55.9273760065177
387,1436287055840,56.7110206430646
388,1436287056553,56.1513683244071
389,1436287057276,56.4098362634755
390,1436287058005,48.5945219924525
391,1436287058776,57.7805417738993
392,1436287059494,56.7615624902261
393,1436287060175,55.689116960869
394,1436287060897,54.9917552573424
395,1436287061634,55.4949873463833
396,1436287062390,54.65630429559
397,1436287063117,52.7122618358126
398,1436287063835,53.9242224779352
399,1436287064584,58.5440220632399
400,1436287065318,55.0066065577884
401,1436287066044,57.3246761378056
402,1436287066756,62.2764112897697
403,1436287067372,55.9749404753187
404,1436287068058,56.27768294314
405,1436287068800,57.652172112438
406,1436287069501,62.5848880481681
407,1436287070235,62.765498490292
408,1436287070944,58.3531011709738
409,1436287071582,53.2513755509459
410,1436287072276,55.1166400886891
411,1436287073009,53.0637270952534
412,1436287073735,54.1073444095394
413,1436287074450,51.2433223527793
414,1436287075168,56.4325468561404
415,1436287075890,47.4038855668265
416,1436287076630,55.7256559311945
417,1436287077319,53.3383350782355
418,1436287078043,51.3709974714563
419,1436287078779,51.9449454645
420,1436287079522,54.4155377830914
421,1436287080254,51.2959331715784
422,1436287080985,53.8091240939471
423,1436287081716,55.4300913336901
424,1436287082389,50.8541928170053
425,1436287083116,50.9209099550669
426,1436287083829,51.1886068712368
427,1436287084545,50.2293848422659
428,1436287085272,48.8282954747073
429,1436287086016,48.8547555195158
430,1436287086762,51.1207760299147
431,1436287087525,52.368595458849
432,1436287088244,61.8883287520791
433,1436287088949,59.6344263237077
434,1436287089685,53.2374733088981
435,1436287090403,60.091063403849
436,1436287091166,58.2748304228464
437,1436287091961,56.826715594578
438,1436287092659,57.7677282340328
439,1436287093407,55.4524223451862
440,1436287094122,57.0573102540297
441,1436287094839,58.3083555519597
442,1436287095588,50.6301159946557
443,1436287096317,64.8753214886359
444,1436287097053,62.6481968688762
445,1436287097779,62.2720918121139
446,1436287098515,64.0416888772999
447,1436287099267,63.8948790526582
448,1436287099999,58.0293828752255
449,1436287100700,61.2903128946397
450,1436287101435,54.5255554007721
451,1436287102179,53.662999124566
452,1436287102902,57.666339821079
453,1436287103671,61.7607471759582
454,1436287104393,63.6320277194328
455,1436287105148,64.0827500600284
456,1436287105874,64.9838026159011
457,1436287106689,57.9387223753984
458,1436287107399,57.5195084357458
459,1436287108125,55.9768959189984
460,1436287108833,65.6740167189433
461,1436287109607,57.7222622059163
462,1436287110338,68.8642325769837
463,1436287111067,59.3053557615692
464,1436287111836,58.2244705570052
465,1436287112587,54.5660255877279
466,1436287113293,65.7221164133819
467,1436287114035,62.5376972731717
468,1436287114729,57.0737995898679
469,1436287115383,53.3892048936345
470,1436287116119,63.8210712305289
471,1436287116832,56.4786807926122
472,1436287117534,59.9902817861548
473,1436287118271,59.4623518696637
474,1436287118983,58.9501886546216
475,1436287119734,56.8916899738555
476,1436287120480,59.8471022716755
477,1436287121303,60.8280334339283
478,1436287122045,61.424575010609
479,1436287122764,58.8417830840174
480,1436287123495,56.1906636460557
481,1436287124234,65.2714409458968
482,1436287124967,59.0694252966103
483,1436287125709,64.3622850055032
484,1436287126438,68.8848870633238
485,1436287127184,57.7569664760179
486,1436287127903,59.0785505121276
487,1436287128660,62.8538340485161
488,1436287129383,60.3738376197446
489,1436287130093,66.4306879031291
490,1436287130799,61.2939394889979
491,1436287131525,61.5690413642337
492,1436287132197,54.6735827614559
493,1436287132939,62.7797573605841
494,1436287133705,60.1257903262053
495,1436287134419,64.448485129437
496,1436287135164,65.3686198494989
497,1436287135900,62.3361690376013
498,1436287136652,64.1305589731511
499,1436287137379,66.320891561879
500,1436287138114,67.3228587425554
501,1436287138853,62.8948764467551
502,1436287139571,73.451256366622
503,1436287140334,69.4358202341347
504,1436287141065,63.5247938621514
505,1436287141799,65.9654303198857
506,1436287142542,61.0191074319081
507,1436287143269,58.7890578444284
508,1436287144000,60.3473511031985
509,1436287144738,61.4130316353938
510,1436287145440,64.0678370225481
511,1436287146113,58.905491489146
512,1436287146898,62.6023844114524
513,1436287147641,64.084914233424
514,1436287148385,62.7108024444298
515,1436287149105,58.1742098671802
516,1436287149812,58.0600316544497
517,1436287150524,64.5375224037334
518,1436287151249,61.3391912676522
519,1436287151987,59.0070638031209
520,1436287152743,55.49021906477
521,1436287153416,63.1130149427108
522,1436287154162,62.1509343499371
523,1436287154880,61.6423137637254
524,1436287155643,65.4191808753584
525,1436287156364,67.6392733558116
526,1436287157103,68.4914652069595
527,1436287159109,52.0313596762979
528,1436287159776,55.812614962478
529,1436287160493,59.6435368760984
530,1436287161262,63.8668607198154
531,1436287162004,63.0308588328415
532,1436287162738,64.61772835342
533,1436287163465,61.8223098364839
534,1436287164196,60.8704162895543
535,1436287164911,57.2039479055076
536,1436287165687,58.0694731380422
537,1436287166408,56.9735223548796
538,1436287167129,57.9403767701087
539,1436287167837,58.0822329525349
540,1436287168512,57.6612585942228
541,1436287169249,64.3717231810838
542,1436287169995,65.9848083436986
543,1436287170742,62.6532356173732
544,1436287171487,56.0427868960181
545,1436287172191,60.9519998095777
546,1436287172911,63.9243895797903
547,1436287173658,53.1090035831375
548,1436287174376,62.1020235540598
549,1436287175105,64.1930624027416
550,1436287175821,58.4228114330211
551,1436287177359,54.5485501961862
552,1436287178077,50.9230641263052
553,1436287178802,57.5681313080912
554,1436287179521,58.3575506217312
555,1436287180257,62.0965537051584
556,1436287181003,61.9602492996739
557,1436287181756,55.3794646898017
558,1436287182552,60.4340568344318
559,1436287183238,65.0253291937064
560,1436287183986,57.4139985120524
561,1436287184723,59.7116420640952
562,1436287185481,51.316050640835
563,1436287186221,62.7363318646237
564,1436287186927,55.1429056522034
565,1436287187691,54.4917813814263
566,1436287188433,48.8276269062658
567,1436287189174,59.7234160046197
568,1436287189889,56.2378348191429
569,1436287190626,56.0529485751548
570,1436287191345,54.3271530467715
571,1436287192066,54.4385270497224
572,1436287192793,51.0528203187921
573,1436287193524,54.0916277889774
574,1436287194183,55.7706548098703
575,1436287194899,55.6165859147345
