id,attr_time,attr_db
1,1436286769445,55.1553946860887
2,1436286770178,50.2953870380172
3,1436286770964,53.347855703595
4,1436286771646,55.1752654820689
5,1436286772385,64.3705997672784
6,1436286773110,56.6944084196752
7,1436286773892,57.8042199238217
8,1436286774615,55.1220702893994
9,1436286775343,59.4062433558413
10,1436286776034,63.0584548523411
11,1436286776722,56.4276795040119
12,1436286777465,55.6827307962182
13,1436286778187,57.5882389032166
14,1436286778942,55.4544731457877
15,1436286779660,54.6637901659172
16,1436286780377,54.8134802567128
17,1436286781114,55.5324163887617
18,1436286781894,50.4664430045871
19,1436286782596,53.4903889512355
20,1436286783337,56.6047202141736
21,1436286784070,55.9624022404593
22,1436286784821,55.293957721695
23,1436286785559,51.3426545216583
24,1436286786387,52.1187268021072
25,1436286787110,51.0167071711638
26,1436286787873,53.1463085580374
27,1436286788593,56.6155633484769
28,1436286789316,52.3927888027975
29,1436286790045,55.2306729896946
30,1436286790789,57.9899064567352
31,1436286791531,55.6472158593818
32,1436286792272,51.2800946949805
33,1436286793013,53.8204676207355
34,1436286793745,53.8874708593617
35,1436286794495,60.8190840105511
36,1436286795236,54.0633391335319
37,1436286796010,57.0284193578655
38,1436286796597,60.2378127336881
39,1436286797261,60.3417800187972
40,1436286797983,59.4928954799601
41,1436286798713,62.0662841408078
42,1436286799420,62.5855861384268
43,1436286800146,56.9240993749385
44,1436286800896,57.8448548189032
45,1436286801623,57.9761314796626
46,1436286802361,66.5192858148237
47,1436286803087,56.2813107900999
48,1436286803841,55.5656201983732
49,1436286804577,55.53906597021
50,1436286805289,54.224021924775
51,1436286805990,58.7086116517275
52,1436286806706,57.2321345457035
53,1436286807379,63.3549309631013
54,1436286808094,54.7731516246836
55,1436286808862,54.2235159575791
56,1436286809589,54.4511678599089
57,1436286810318,54.685050393428
58,1436286811097,54.650239447102
59,1436286811860,58.5991537003309
60,1436286812608,53.5366794589988
61,1436286813332,55.1798280281275
62,1436286814060,50.7941780969242
63,1436286814849,54.9508056127756
64,1436286815579,56.2474347962443
65,1436286816274,50.869144910887
66,1436286816934,55.5142888822875
67,1436286817677,51.8229297404852
68,1436286818402,49.5638552288897
69,1436286819112,55.8750962396859
70,1436286819748,56.2869949240081
71,1436286820401,55.8863484146673
72,1436286821218,59.9558461087333
73,1436286821955,55.7415634979528
74,1436286822706,53.063885696148
75,1436286823427,57.2548365779559
76,1436286824177,56.029336089768
77,1436286824924,59.7357526044539
78,1436286825681,56.6955072014235
79,1436286826409,55.9791250204021
80,1436286827150,56.5892529193874
81,1436286827940,59.3144048276215
82,1436286828680,57.868303539066
83,1436286829404,56.5474264386202
84,1436286830136,55.8084359250363
85,1436286830917,57.0750976293003
86,1436286831654,55.4365997403223
87,1436286832377,57.6504265736931
88,1436286833116,56.3203570823353
89,1436286833867,55.8905840908994
90,1436286834586,55.7377408953721
91,1436286835309,56.9875662005584
92,1436286836030,56.6012601958507
93,1436286836764,59.0123035096276
94,1436286837438,55.9884768560888
95,1436286838174,66.7202847846631
96,1436286838910,56.9793735281422
97,1436286839633,55.3171833313518
98,1436286840384,55.7116419967773
99,1436286841130,55.4920639803746
100,1436286841871,58.2460313077553
101,1436286842608,60.8213752679437
102,1436286843341,55.3530168751755
103,1436286844070,54.4902934065554
104,1436286844800,55.3616457559162
105,1436286845527,56.434878191931
106,1436286846342,56.8741354652086
107,1436286847069,57.1628159746691
108,1436286847839,58.4112380829519
109,1436286848559,56.11057662467
110,1436286849289,55.5919518668618
111,1436286850024,55.2229814939209
112,1436286850755,57.6746403842
113,1436286851414,57.9254310514854
114,1436286852102,70.044043180278
115,1436286852863,57.1704994459376
116,1436286853593,62.8170463608638
117,1436286854343,62.0243399039362
118,1436286855075,60.5845136010684
119,1436286855857,56.9459338461264
120,1436286856631,55.9718142800719
121,1436286857278,57.8717050378241
122,1436286857957,58.7070394221541
123,1436286858672,57.4330826955425
124,1436286859374,60.6799819934856
125,1436286861343,56.0427602117032
126,1436286862067,59.4438805511871
127,1436286862781,59.0846183690282
128,1436286863511,56.6860873343529
129,1436286864248,60.2692403523601
130,1436286864978,56.4498017668805
131,1436286865751,57.0393802312922
132,1436286866495,57.7533809191328
133,1436286867245,57.0686547298013
134,1436286867982,55.673479773977
135,1436286868697,57.0658089820086
136,1436286869443,62.4981643071844
137,1436286870192,55.4925284276211
138,1436286870955,56.6345994007462
139,1436286871636,55.3270089144864
140,1436286872364,60.015554522012
141,1436286873091,59.2910787327167
142,1436286873819,56.2081502507339
143,1436286875435,63.573416876723
144,1436286876161,56.5533902919215
145,1436286876928,56.1009318817349
146,1436286877658,59.0171555460904
147,1436286878369,56.3507279815592
148,1436286879089,56.0403609727476
149,1436286879862,56.9926662801215
150,1436286880606,56.6332929814782
151,1436286881238,54.7100117975205
152,1436286881903,55.6201753508172
153,1436286882626,55.5220625169369
154,1436286883367,55.6662570087343
155,1436286884100,57.8305851789392
156,1436286884856,55.9425644580347
157,1436286885602,56.8881906339029
158,1436286886390,56.6551976610416
159,1436286887114,53.9941625519949
160,1436286887901,52.3094142498965
161,1436286888628,52.7540369254611
162,1436286889353,56.0246346138726
163,1436286890072,54.5238638706385
164,1436286890846,54.8624867316477
165,1436286891652,53.9553685301571
166,1436286892370,55.2017389590023
167,1436286893097,55.4328193127812
168,1436286893846,49.8309527092192
169,1436286894592,54.6650911545391
170,1436286895329,55.3774974724631
171,1436286896051,56.6964396479262
172,1436286896753,60.1669739391333
173,1436286898149,56.1770528870098
174,1436286898806,53.0833305014899
175,1436286899523,53.833971894427
176,1436286900258,59.7496012647026
177,1436286901020,51.9280409770009
178,1436286901735,55.2179668083869
179,1436286902474,58.8164864852158
180,1436286903217,56.7263253899729
181,1436286903952,56.6143777692187
182,1436286904701,60.7456095301816
183,1436286905444,55.8089658189906
184,1436286906185,56.064603571316
185,1436286906937,50.5371948644078
186,1436286907684,49.5192081683765
187,1436286908416,54.1659233880856
188,1436286909130,61.7397332065145
189,1436286909854,55.1002924412754
190,1436286911558,56.3267296287994
191,1436286912186,56.0175500600277
192,1436286912894,52.1967806271935
193,1436286913621,58.8684965455466
194,1436286914343,55.6620827990755
195,1436286915074,53.6258947200362
196,1436286915849,54.5493558784133
197,1436286916629,56.5990176956436
198,1436286917244,55.3646116934416
199,1436286917918,54.7484195967051
200,1436286918653,62.9042638246624
201,1436286919382,58.540324814517
202,1436286920149,54.1750456311414
203,1436286920925,52.8645203743672
204,1436286921729,70.5060206631471
205,1436286922458,69.5382922364055
206,1436286923202,53.2375278728773
207,1436286923944,65.9170032345679
208,1436286924675,61.6984745718371
209,1436286925409,56.0979039095426
210,1436286926140,56.0994002853379
211,1436286926866,54.1034149460356
212,1436286927594,59.1093222838451
213,1436286928324,60.7258697015106
214,1436286929053,55.2457053857885
215,1436286929827,58.3784471663026
216,1436286930580,54.2752101928396
217,1436286931295,50.3005037315965
218,1436286932032,53.3344459070127
219,1436286932814,49.9798318090826
220,1436286933533,51.9610239261717
221,1436286934265,55.4901327429047
222,1436286935004,52.8953984504946
223,1436286935712,54.5078907730561
224,1436286936437,59.5069658762322
225,1436286937207,56.0390118461608
226,1436286937948,54.7485157006627
227,1436286938693,57.1619339793239
228,1436286939407,58.6753462677725
229,1436286940172,58.7261143059948
230,1436286940923,70.2067106596132
231,1436286941585,69.2887947864573
232,1436286942331,71.9171993005024
233,1436286943071,66.073956517918
234,1436286943845,60.479657497264
235,1436286944574,53.4236307199289
236,1436286945306,58.6742230590178
237,1436286946041,65.7564781764552
238,1436286946843,56.3653445378617
239,1436286947514,57.8241276729311
240,1436286948248,58.0455409686858
241,1436286948971,75.435787877137
242,1436286949709,59.0843521369517
243,1436286950421,55.1030085916628
244,1436286951245,65.7656936157424
245,1436286951977,60.8112988944245
246,1436286952700,57.2550397582328
247,1436286953378,58.700504386546
248,1436286954001,57.2604019470181
249,1436286954729,59.0875751048806
250,1436286955465,55.1636508712088
251,1436286956257,50.5501480223758
252,1436286956977,55.4420562348718
253,1436286957680,68.3226493723581
254,1436286958350,53.9176471250676
255,1436286959086,54.4514564365304
256,1436286959830,51.1778538476169
257,1436286960581,60.7686676538382
258,1436286961361,60.0775395248289
259,1436286962102,63.974875475984
260,1436286962857,58.2993176063438
261,1436286963585,62.2054268352036
262,1436286964276,53.6030866317037
263,1436286964921,50.114090456329
264,1436286965598,55.7737838377579
265,1436286966223,60.9401796546244
266,1436286966864,54.7010181733941
267,1436286967546,58.5086190546313
268,1436286968306,54.1591680689391
269,1436286969031,57.7798308482289
270,1436286969804,60.3849900865947
271,1436286970516,61.9949311840609
272,1436286971326,63.4639388724978
273,1436286972088,55.6423297212083
274,1436286972860,60.1496685312577
275,1436286973582,66.4167232371301
276,1436286974284,54.6984424838627
277,1436286975013,55.9132834162155
278,1436286975769,56.9318967815171
279,1436286976510,58.8107326581666
280,1436286977183,59.8759769964155
281,1436286977768,59.6971121926196
282,1436286978439,56.5275319822867
283,1436286979101,54.8631014578214
284,1436286979719,51.8042889393412
285,1436286980417,59.6821465842821
286,1436286981147,57.5745380134912
287,1436286981965,59.3856365913433
288,1436286982658,59.5217796250261
289,1436286983328,56.9289122823322
290,1436286984070,56.6462696658977
291,1436286984827,57.6960221513848
292,1436286985454,53.5868417757706
293,1436286986146,54.4115922090743
294,1436286986923,54.748963838286
295,1436286987606,59.3811410066132
296,1436286988316,58.1558879772157
297,1436286989034,50.9222154813702
298,1436286989766,53.7296597517051
299,1436286990521,55.0185823181259
300,1436286991250,58.6437332600479
301,1436286991976,54.9920531593979
302,1436286992723,54.8125799090746
303,1436286993435,64.0034889968409
304,1436286994186,56.2218804395314
305,1436286994935,56.5727437379952
306,1436286995680,56.4108531661166
307,1436286996416,52.7077590199666
308,1436286997164,55.7590961836619
309,1436286997886,55.5908706490062
310,1436286998571,55.7910216171952
311,1436286999295,55.9398790184259
312,1436287000008,55.764204862157
313,1436287000720,57.0500517096501
314,1436287001406,53.757890313349
315,1436287002077,56.3445026080675
316,1436287002833,53.0746007794615
317,1436287003550,58.3338296802165
318,1436287004272,53.464352116763
319,1436287004991,54.4134877969912
320,1436287005702,54.1460569333084
321,1436287006436,57.2425610266161
322,1436287007168,60.5085805275566
323,1436287007965,55.0756638418755
324,1436287008693,63.6333991877727
325,1436287009394,56.722983843202
326,1436287010131,53.9995638633751
327,1436287010910,57.3945245005236
328,1436287011644,55.4113938618672
329,1436287012378,56.0963734185179
330,1436287013108,55.3576685467619
331,1436287013879,56.7830621972268
332,1436287014601,55.3714244465486
333,1436287015311,59.955248998356
334,1436287016042,56.2396089246936
335,1436287016814,57.973814418212
336,1436287017528,58.0606874159854
337,1436287018205,52.6240315038558
338,1436287018960,55.1946712394016
339,1436287019715,58.6079182385918
340,1436287020423,56.3415964770732
341,1436287021216,55.9609483765537
342,1436287021969,54.883136159953
343,1436287022698,51.1979676245701
344,1436287023427,51.5621391303302
345,1436287024182,53.7528096683862
346,1436287024932,53.1571161136399
347,1436287025674,57.9970246684926
348,1436287026402,55.6876214806093
349,1436287027123,55.4890810703465
350,1436287027908,58.7183055584568
351,1436287028649,55.8429688251152
352,1436287029383,54.1797692683762
353,1436287030105,56.0303057785846
354,1436287030865,57.107001806901
355,1436287031621,54.8722573423795
356,1436287032353,55.5511377977856
357,1436287033088,55.6358985543679
358,1436287033826,56.8231086349932
359,1436287034559,52.4956034300304
360,1436287035316,61.2669665728391
361,1436287036043,56.054786156796
362,1436287036791,54.8626778779921
363,1436287037506,51.8809436663383
364,1436287038213,48.455778917742
365,1436287038877,57.5694589979228
366,1436287039612,55.620711899642
367,1436287040361,54.236338666123
368,1436287041093,57.8059212147726
369,1436287041829,56.2156592083163
370,1436287042545,57.5839779836344
371,1436287043262,54.0422886646847
372,1436287044014,50.5653088566381
373,1436287044729,52.4719009178691
374,1436287045467,54.4468699957238
375,1436287046269,51.6022081849575
376,1436287046983,54.8586589845048
377,1436287047718,55.1233874221841
378,1436287048463,58.1637164673008
379,1436287049184,52.299362504762
380,1436287049920,51.1607406134894
381,1436287050656,51.7641612592934
382,1436287051464,54.4744345826702
383,1436287052216,64.5258589563578
384,1436287052940,63.1337432663958
385,1436287053680,60.6758077814912
386,1436287054367,59.8667403975215
387,1436287055053,58.0072761523858
388,1436287055841,54.85716134076
389,1436287056560,60.1966827623985
390,1436287057271,67.677372559257
391,1436287058005,50.3408344750757
392,1436287058684,58.1442334620755
393,1436287059348,56.5043595230699
394,1436287060075,57.919905150317
395,1436287060905,56.9492331195564
396,1436287061628,54.891154235317
397,1436287062329,55.0362500206719
398,1436287063060,55.4564168052437
399,1436287063814,54.870973555331
400,1436287065749,55.2062858034161
401,1436287066440,58.7408541848767
402,1436287067245,56.9489698000344
403,1436287068026,57.3365871431147
404,1436287068759,59.853034309633
405,1436287069469,56.5454501510392
406,1436287070221,71.4120025872622
407,1436287070958,58.8871686916374
408,1436287071669,56.0950109484492
409,1436287072395,49.8543998911518
410,1436287073108,55.0861628824564
411,1436287073862,54.2486026850747
412,1436287074567,55.0958203507966
413,1436287075287,58.1735642553005
414,1436287076020,49.9436328394166
415,1436287076729,56.2520736773319
416,1436287077450,49.2767676371624
417,1436287078188,51.7786546701355
418,1436287078886,48.8068527386379
419,1436287079568,54.5507416056664
420,1436287080288,51.0301017818804
421,1436287081014,53.2498385285123
422,1436287081742,52.3249670456178
423,1436287083590,52.9909633357217
424,1436287084332,57.9547310192017
425,1436287085077,51.9303843084303
426,1436287085910,49.8691592748389
427,1436287086654,49.8682450062019
428,1436287087388,50.1633878374739
429,1436287088105,61.3879358685067
430,1436287088890,63.1320656836934
431,1436287089611,54.1980141606801
432,1436287090332,52.8409219660807
433,1436287091052,53.4898947530656
434,1436287091801,53.3242539045292
435,1436287092530,60.0311955341914
436,1436287093247,54.8044415643925
437,1436287093947,58.9799293945373
438,1436287094698,57.697683663789
439,1436287095433,55.5273721161227
440,1436287096189,55.2865296669149
441,1436287096940,62.6249095970783
442,1436287097683,60.4746084513612
443,1436287098442,60.5634610084354
444,1436287099067,60.2961848403633
445,1436287099750,58.0943619014966
446,1436287100493,56.3923641380548
447,1436287101216,55.945569261069
448,1436287101947,52.6702939902354
449,1436287102649,54.1889824287466
450,1436287103369,63.0814311953725
451,1436287104091,71.505738038213
452,1436287104855,73.9780478790826
453,1436287105580,59.8147815666887
454,1436287106310,73.3524061194277
455,1436287106978,55.5408481965766
456,1436287107699,55.4549566401853
457,1436287108433,68.538536806731
458,1436287109159,56.8128186445855
459,1436287109909,53.5912158678626
460,1436287110644,60.0267232417782
461,1436287111360,57.6100948735864
462,1436287112096,64.7505032852018
463,1436287112838,51.7545229416329
464,1436287114591,56.3681061409168
465,1436287115258,55.8072716255565
466,1436287116069,65.2240970638366
467,1436287116830,57.9446908251448
468,1436287117566,60.8087662401902
469,1436287118291,61.2810818342052
470,1436287119023,56.5126385252574
471,1436287119791,58.3396402399701
472,1436287120505,56.4830609907244
473,1436287121238,58.0804950138611
474,1436287122005,59.8911681799106
475,1436287122754,56.5673184933674
476,1436287123401,52.370324092053
477,1436287124109,53.1332338725301
478,1436287124881,61.6692182760247
479,1436287125621,65.6413256225253
480,1436287126346,66.143580954681
481,1436287127078,61.2960740071946
482,1436287127811,57.5324875510528
483,1436287128610,61.8586928861665
484,1436287129350,63.0080307826421
485,1436287130053,68.0068338828268
486,1436287131591,64.1367221243574
487,1436287132260,65.787445540335
488,1436287132980,64.1336192179194
489,1436287133698,60.0906637744899
490,1436287134416,59.5202071014503
491,1436287135116,63.6456469009198
492,1436287135863,60.3199386127132
493,1436287136604,67.3161610688834
494,1436287137339,64.4199286309345
495,1436287138064,63.4774705280666
496,1436287138866,62.618921672734
497,1436287139533,71.9032041255624
498,1436287140278,71.966143498421
499,1436287141001,60.5498590475262
500,1436287141775,62.4457791126384
501,1436287142512,64.7228009836427
502,1436287143238,62.6569855807261
503,1436287143946,63.8490225521242
504,1436287144638,58.3091982535042
505,1436287145309,62.7351027418186
506,1436287146006,55.7950399211525
507,1436287146830,63.5253033698699
508,1436287147563,61.9889797067025
509,1436287148293,60.628739848779
510,1436287149025,59.32155052746
511,1436287149736,55.9142563161402
512,1436287150450,60.4380985001433
513,1436287151159,67.8889988826154
514,1436287151974,56.9504165920172
515,1436287152704,57.5022931561844
516,1436287153434,67.1804592789161
517,1436287154097,66.8259498881487
518,1436287154768,63.2979553867599
519,1436287155497,63.6280493643409
520,1436287156276,72.0059781147605
521,1436287157018,73.1855344828167
522,1436287157760,65.7085891433597
523,1436287158469,59.4014987588601
524,1436287159229,55.103556370311
525,1436287159787,56.2781690966799
526,1436287160470,57.1754139946759
527,1436287161201,59.4236115781385
528,1436287162016,67.0859049227707
529,1436287162723,63.2376899907594
530,1436287163426,63.8710105107835
531,1436287164189,59.9846643909812
532,1436287164923,58.8155733961526
533,1436287165652,58.5179912728457
534,1436287166386,56.5535271240989
535,1436287167095,59.7333905880591
536,1436287167873,56.9445932930449
537,1436287168598,55.7039433661124
538,1436287169325,64.985612681601
539,1436287169992,68.4541227675048
540,1436287170733,71.173270257072
541,1436287171459,57.9568484515364
542,1436287172199,56.099667472472
543,1436287172921,60.197880159485
544,1436287173664,59.4039511994065
545,1436287174390,59.7923551489352
546,1436287175119,60.9733388793651
547,1436287175881,56.643873879522
548,1436287176600,57.6841271214595
549,1436287177296,57.6632758986284
550,1436287178026,54.6077289303877
551,1436287178772,55.6184187496752
552,1436287179497,65.3088457343335
553,1436287180181,63.6069871673062
554,1436287180924,64.3140417998329
555,1436287181644,72.7563726060978
556,1436287182383,57.6792217464995
557,1436287183080,63.0832919795567
558,1436287183770,72.6309622508667
559,1436287184497,56.7738995975267
560,1436287185239,53.7485121070093
561,1436287185969,55.3728841201557
562,1436287186679,60.2786307625505
563,1436287187422,58.1217573463483
564,1436287188158,54.6268806347262
565,1436287188910,54.5859453510147
566,1436287189616,69.9394579121263
567,1436287190351,68.7980065873229
568,1436287191181,54.5833243007261
569,1436287191922,54.2659645564315
570,1436287192640,54.9261605138418
571,1436287193360,56.5106006341733
572,1436287194085,58.1445224027143
573,1436287194907,56.0577051715767
574,1436287195640,55.5600358067917
575,1436287196380,50.2628903221622
