id,attr_time,attr_db
1,1436472360579,34.535090844262
2,1436472361284,41.3572265451945
3,1436472362011,54.2324713277521
4,1436472362778,28.3700862482569
5,1436472363518,33.6654603782658
6,1436472364269,15.2516483164449
7,1436472364979,26.643407776915
8,1436472365748,38.9999765539477
9,1436472366464,36.3316299377132
10,1436472367211,22.297733817552
11,1436472367912,16.1872974988599
12,1436472368598,25.4338370649136
13,1436472369244,18.312498738402
14,1436472369944,34.9017428469677
15,1436472370689,17.7282078374368
16,1436472371409,40.1403626106039
17,1436472372145,60.1373963970054
18,1436472372867,47.2556067480054
19,1436472373616,23.4996716337822
20,1436472374355,31.0977665291138
21,1436472375094,37.9339860742359
22,1436472375836,22.5016221086574
23,1436472376559,29.119847623585
24,1436472377272,23.223990533584
25,1436472377977,37.5752785343585
26,1436472378680,31.1041421278025
27,1436472379413,60.0456559641719
28,1436472380139,37.3110540477049
29,1436472380866,38.1766510015738
30,1436472381583,33.8025966427057
31,1436472382336,15.4044782795587
32,1436472383005,19.2980030781501
33,1436472383764,14.4502512072017
34,1436472384461,28.2291668586637
35,1436472385196,35.3177735790792
36,1436472385906,27.9535970615653
37,1436472386613,34.6538509750177
38,1436472387328,52.7597888845372
39,1436472388010,32.4982078038268
40,1436472388767,38.1020931453265
41,1436472389484,43.7365848108247
42,1436472390198,31.26721498917
43,1436472390936,13.5587761942199
44,1436472391699,14.8371847491456
45,1436472392424,15.6544222661055
46,1436472393164,10.5010394946844
47,1436472393888,14.255610128448
48,1436472394622,39.9612150069695
49,1436472395359,33.6277973492495
50,1436472396088,54.097370379399
51,1436472396835,51.0457318620781
52,1436472397651,36.5250920027427
53,1436472398360,6.49270402068978
54,1436472399003,25.3863541741051
55,1436472399736,5.02692351604807
56,1436472400461,4.25205822673684
57,1436472401183,44.7681563610562
58,1436472401894,11.492197568183
59,1436472402680,34.2027986176653
60,1436472403372,1.27550198126584
61,1436472404117,18.8596024211588
62,1436472404876,59.7112951868392
63,1436472405610,47.3858006599454
64,1436472406327,61.5195936902279
65,1436472407047,48.7327457134216
66,1436472407916,6.71557623166316
67,1436472408645,36.1762643913302
68,1436472409348,5.47876180708908
69,1436472410049,39.3122287116969
70,1436472410802,28.8081081718978
71,1436472411528,34.8112980014611
72,1436472412338,11.8985274061924
73,1436472413047,5.64741382563853
74,1436472413804,41.7325498023641
75,1436472414520,45.0255964071212
76,1436472415198,32.6845685826665
77,1436472415936,8.60772354629024
78,1436472416654,49.9722850961243
79,1436472417407,33.0476580761196
80,1436472418127,39.3045371042148
81,1436472418872,27.7721251975276
82,1436472419642,35.1020121427146
83,1436472420366,28.4549670922503
84,1436472421133,31.9855497453113
85,1436472421809,48.2340520083219
86,1436472422534,49.8547202527452
87,1436472423244,50.7267806134921
88,1436472423971,44.1802585763608
89,1436472424734,44.6917011311172
90,1436472425454,37.1655658726798
91,1436472426207,38.4944772912833
92,1436472426923,55.302718470183
93,1436472427725,1.27550198126584
94,1436472428452,41.6168789267263
95,1436472429191,48.5678451862884
96,1436472429908,30.47767574831
97,1436472430530,33.6300164169444
98,1436472431242,1.75626679861462
99,1436472432025,31.0073515071324
100,1436472432794,40.6748175828746
101,1436472433522,35.6281703812062
102,1436472434238,34.2495708078285
103,1436472434962,9.15078334162387
104,1436472435716,22.1074139624824
105,1436472436432,50.9386009416936
106,1436472437167,53.1275845214606
107,1436472437895,40.086169330392
108,1436472438620,50.2244135983415
109,1436472439349,41.8574893935967
110,1436472440101,50.71142320653
111,1436472440845,48.1801437680714
112,1436472441553,46.2134226995724
113,1436472442281,44.4699838095558
114,1436472442962,35.4369757296428
115,1436472443622,26.3907410218089
116,1436472444334,51.0416218589236
117,1436472445089,26.780152274801
118,1436472445822,31.7285057151456
119,1436472446497,12.6595123103404
120,1436472447225,36.543643120755
121,1436472447924,32.949696942641
122,1436472448646,36.7714651670221
123,1436472449349,57.097534351341
124,1436472450069,50.9846363074672
125,1436472450837,45.3175958096778
126,1436472451572,46.506722773057
127,1436472452312,56.8936889358222
128,1436472453042,47.9072577933848
129,1436472453787,4.61770118199367
130,1436472454507,56.0337864801802
131,1436472455235,55.0167473924751
132,1436472455959,46.4205409211211
133,1436472456697,46.8628179285069
134,1436472457427,45.5620126902296
135,1436472458207,36.1216333400822
136,1436472458976,44.702282236654
137,1436472459660,44.2188511370017
138,1436472460395,7.16425475129732
139,1436472461117,49.2632633696153
140,1436472461851,44.8957447677654
141,1436472462572,47.5133457368697
142,1436472463320,0.519730763477847
143,1436472464034,38.0321640129766
144,1436472464799,29.3862695790493
145,1436472465533,1.47476991982942
146,1436472466267,16.6396737961902
147,1436472467009,29.5308756545472
148,1436472467768,8.62507870692885
149,1436472468490,2.15818113919507
150,1436472469216,0.851715999867079
151,1436472469938,1.63007732047447
152,1436472470687,1.43488057469135
153,1436472472111,16.7659359654496
154,1436472472869,4.03313880162414
155,1436472473615,24.3608485884873
156,1436472474351,34.05102157782
157,1436472475111,22.852656755961
158,1436472475868,37.1368588315946
159,1436472476601,12.0242512902911
160,1436472477361,23.1166521855387
161,1436472478005,50.3039454157187
162,1436472478659,35.9709518721834
163,1436472479355,42.9828603004113
164,1436472480086,27.0370009289982
165,1436472480859,51.0661231834885
166,1436472481577,28.8994477680339
167,1436472482284,17.892888471033
168,1436472483029,43.1056927311109
169,1436472483689,42.5925945737205
170,1436472484434,34.8428872539662
171,1436472485169,54.4916771820725
172,1436472485896,39.5991481964967
173,1436472486618,46.1861655786098
174,1436472487348,41.9998305897181
175,1436472488129,36.3749202952421
176,1436472488932,57.4566742058795
177,1436472489648,41.9751449927337
178,1436472490376,0.33557072774137
179,1436472491119,32.1200342985663
180,1436472491921,17.6065235461871
181,1436472492647,44.2411588784072
182,1436472493374,46.5708700356945
183,1436472494119,43.9264197547322
184,1436472494867,30.9775271603225
185,1436472495581,42.5496604045356
186,1436472496323,33.0034502138286
187,1436472497067,46.146210529629
188,1436472497825,15.6630859658456
189,1436472498570,41.6457017124584
190,1436472499241,45.687959215444
191,1436472499838,61.716556795311
192,1436472500522,64.3887768727606
193,1436472501243,29.987172032912
194,1436472502013,23.7250989600737
195,1436472502799,27.1511429718057
196,1436472503496,52.5069981777376
197,1436472504109,49.6048191566466
198,1436472504796,37.6891222518347
199,1436472505517,36.7275017369689
200,1436472506252,9.83612279933043
201,1436472506975,58.9227239131951
202,1436472507811,61.9336574509761
203,1436472508535,63.0829281277812
204,1436472509317,61.2140910515014
205,1436472510052,14.4381769885581
206,1436472510806,59.7657604901064
207,1436472511512,46.2005568254447
208,1436472512215,26.372270898319
209,1436472512924,54.0690125417959
210,1436472513673,58.772621708599
211,1436472514420,64.0489525313367
212,1436472515112,19.9932080066092
213,1436472515703,19.4760549292221
214,1436472516398,49.9941733278283
215,1436472517186,26.2791702754697
216,1436472517922,45.5938476274137
217,1436472518662,36.5362872317795
218,1436472519392,34.8460897076128
219,1436472520063,28.9359547671977
220,1436472520819,69.2289972164498
221,1436472521537,49.6868988344352
222,1436472522252,46.4963346301759
223,1436472523001,52.8211539221579
224,1436472523757,44.0065725699789
225,1436472524440,50.4677052374477
226,1436472525174,59.8712398038829
227,1436472525936,1.89799076649606
228,1436472526682,53.993537420359
229,1436472527384,54.6941694741924
230,1436472528116,46.5043369365739
231,1436472528856,45.1590977535863
232,1436472529581,39.5300848665884
233,1436472530327,61.7024738670294
234,1436472531049,52.3199955821386
235,1436472531773,42.6422559204125
236,1436472532507,26.6403155571504
237,1436472533218,33.7847746034784
238,1436472533950,31.3092622201899
239,1436472534634,27.9061875568789
240,1436472535324,53.4982654696615
241,1436472536069,45.5502934513758
242,1436472536777,42.2236753906844
243,1436472537503,60.782463071006
244,1436472538239,45.2673112749425
245,1436472538963,27.1006496261284
246,1436472539703,35.3331250662903
247,1436472540421,0.33557072774137
248,1436472541163,44.6737249751886
249,1436472541843,47.9992009986807
250,1436472543297,19.1671700431493
251,1436472543901,44.8783878648271
252,1436472544609,26.4947403023212
253,1436472545337,30.826035888731
254,1436472546066,32.2388261797833
255,1436472546813,14.9052275706331
256,1436472547536,34.8282278595639
257,1436472548257,36.6514861470731
258,1436472549015,38.7430200134546
259,1436472549809,34.5283778361541
260,1436472550529,33.059388432612
261,1436472551233,15.9986550153711
262,1436472551949,43.1596433558037
263,1436472553574,41.8789734437623
264,1436472554243,16.276295821276
265,1436472554988,6.05463502743009
266,1436472555711,39.3797117829353
267,1436472556389,48.9828545413931
268,1436472557115,7.23313256647925
269,1436472557924,28.734351671429
270,1436472558654,14.1523203538198
271,1436472559389,5.36225343832367
272,1436472560132,14.5061158844613
273,1436472560775,26.6878369005303
274,1436472561494,45.9527878910676
275,1436472562203,54.6391282688569
276,1436472563021,41.8214137794793
277,1436472563771,42.7421878990263
278,1436472564476,33.2107819070254
279,1436472565198,38.5093561341633
280,1436472565910,29.2073139458397
281,1436472566643,25.3514365134025
282,1436472568907,34.9905426020305
283,1436472569636,1.47069872704897
284,1436472570362,26.6537328555455
285,1436472571089,2.14000506217144
286,1436472571834,7.44968950859914
287,1436472572571,3.49851102371918
288,1436472573282,0.519730763477847
289,1436472574009,1.43488057469135
290,1436472574749,0.561190935935153
291,1436472575448,18.7245721167861
292,1436472577166,4.77760890274645
293,1436472577840,6.74454235810652
294,1436472578576,51.0476971307339
295,1436472579277,49.0263312521149
296,1436472580105,38.8660372430002
297,1436472580762,21.7865840707136
298,1436472581464,51.0310835164414
299,1436472582179,45.1410940299091
300,1436472582928,46.2682030560563
301,1436472583678,1.03081285292561
302,1436472584384,28.9237047313989
303,1436472585129,40.0656940752872
304,1436472585854,10.8410666575005
305,1436472586577,48.1741052153028
306,1436472587312,2.46936735134519
307,1436472588111,16.463719295241
308,1436472588858,36.7419814918166
309,1436472589591,52.4030342484092
310,1436472590312,45.1650592812827
311,1436472591022,4.79732716237947
312,1436472591765,39.3950867775477
313,1436472592473,38.7348455338306
314,1436472593191,45.1353552337708
315,1436472593919,42.1321493835315
316,1436472594667,35.8971473704058
317,1436472595384,36.4622464279875
318,1436472596118,53.8873367793949
319,1436472596846,29.9771519342644
320,1436472597586,31.9977788665682
321,1436472598306,47.6835861870201
322,1436472599031,26.8747425139039
323,1436472599779,39.5187171127781
324,1436472600482,55.2948440460516
325,1436472601187,51.4917666792471
326,1436472601916,63.080709021314
327,1436472602625,56.8989265340973
328,1436472603360,49.9929712445289
329,1436472604058,54.4797077644222
330,1436472604742,45.5013223922728
331,1436472605448,49.3123503089479
332,1436472606179,52.7498260620886
333,1436472606956,60.7192005546341
334,1436472607720,32.1120394733962
335,1436472608449,30.908057617868
336,1436472609171,52.1284444497979
337,1436472609881,45.5970473488397
338,1436472610598,57.7252456946849
339,1436472611330,46.9945112606107
340,1436472612025,45.9232552020814
341,1436472612748,20.0497288447532
342,1436472613411,43.7586000967092
343,1436472614150,57.7663761596518
344,1436472614900,17.8987444440678
345,1436472615655,52.0977739208553
346,1436472616370,56.9337787657749
347,1436472617117,45.6018412889844
348,1436472617860,46.0406115022764
349,1436472618589,12.2865054188298
350,1436472619321,73.6417556402484
351,1436472620007,66.037802279901
352,1436472620675,49.7341297120072
353,1436472621356,63.4569525740368
354,1436472622095,54.5540554091203
355,1436472622855,64.7602323762136
356,1436472623590,50.7773073129623
357,1436472624272,64.5505919355822
358,1436472624922,57.9896391630241
359,1436472625622,58.8033497994828
360,1436472626357,39.1265527396822
361,1436472627090,50.2313165621246
362,1436472627839,1.03081285292561
363,1436472628573,23.5501426819165
364,1436472629297,46.4405738973553
365,1436472630041,35.5112101784209
366,1436472630811,16.467825780552
367,1436472631531,57.7339811526762
368,1436472632248,41.1653894440353
369,1436472632977,11.6998974590965
370,1436472633708,31.0516933839153
371,1436472634333,36.2662886008247
372,1436472635036,47.5076163064008
373,1436472635774,14.2081575832762
374,1436472636489,40.9926912269614
375,1436472637209,2.66764400234993
376,1436472637919,55.4378500813153
377,1436472638668,31.3897412312965
378,1436472639401,11.8263815518301
379,1436472640168,50.4758382880027
380,1436472640859,58.6883090744907
381,1436472641521,42.3414319684796
382,1436472642223,9.49424842668179
383,1436472642910,43.3713751176849
384,1436472643559,8.76909993232565
385,1436472644264,35.3606745174218
386,1436472644960,35.577373968013
387,1436472645616,59.7115796902079
388,1436472646329,27.6118843827125
389,1436472647065,62.239763215234
390,1436472647818,53.1454061982371
391,1436472648537,44.7960918797722
392,1436472649254,50.3130637860366
393,1436472649976,59.7850233354382
394,1436472650748,53.415591901703
395,1436472651469,49.8924125694713
396,1436472652192,63.5063803176223
397,1436472652907,54.0182716485284
398,1436472653636,51.877431373875
399,1436472654384,51.1538987422834
400,1436472655153,45.3643472780495
401,1436472655899,55.2805923377739
402,1436472656631,60.0524669047324
403,1436472657336,5.0343040430076
404,1436472658052,10.28788670377
405,1436472658810,41.6915945258126
406,1436472659538,39.3975894641332
407,1436472660275,49.7857554536263
408,1436472661040,45.000589674081
409,1436472661685,37.9101964758127
410,1436472662416,37.4762761365418
411,1436472663102,39.2527980661293
412,1436472664544,7.63311223355566
413,1436472665226,8.58580035560967
414,1436472665957,53.2017210170367
415,1436472666701,48.5023320219662
416,1436472667440,18.4118884962325
417,1436472668177,39.1253231442117
418,1436472668908,8.91619177077617
419,1436472669657,36.9055134868822
420,1436472670375,24.3477019570573
421,1436472671118,2.88589391766358
422,1436472671846,33.5819986618673
423,1436472672626,21.1623584301966
424,1436472673364,38.8829505915233
425,1436472674075,15.9560252426253
426,1436472674821,0.519730763477847
427,1436472675530,43.3769486353307
428,1436472676252,10.4164675448877
429,1436472676964,19.5955272041162
430,1436472677783,50.939551982422
431,1436472678496,50.5230404183515
432,1436472679233,19.9424056130927
433,1436472679960,46.1172419291567
434,1436472680715,40.6474083330051
435,1436472681434,47.0700091042571
436,1436472682176,29.9811182442084
437,1436472682893,4.03443927918879
438,1436472683620,0.934835195290234
439,1436472684357,44.2017186998916
440,1436472685045,26.9460186584962
441,1436472685692,40.16902820688
442,1436472686430,44.3489934686304
443,1436472687228,54.1832578203858
444,1436472687961,41.0984236236028
445,1436472688714,34.5801648706571
446,1436472689451,36.7610314860416
447,1436472690190,45.3124774302498
448,1436472690916,48.5776176676444
449,1436472691618,38.1390613773785
450,1436472692339,33.0127085898578
451,1436472693090,48.8679940667016
452,1436472693832,14.1279336649932
453,1436472694561,7.98815419610294
454,1436472695309,40.9311674172877
455,1436472696011,34.2573181199901
456,1436472696769,33.3037577669913
457,1436472697489,10.2848831802303
458,1436472698213,35.1340732948489
459,1436472698910,38.0241943726223
460,1436472699581,33.2144012155627
461,1436472700325,30.6155138506618
462,1436472701161,47.9291422822124
463,1436472701786,48.5771948720724
464,1436472702454,37.2604221987221
465,1436472703086,42.8884244606422
466,1436472703799,23.5803482584647
467,1436472704524,47.6052151782894
468,1436472705253,15.8842665218734
469,1436472705905,41.1569092643487
470,1436472706633,43.2089732352818
471,1436472707360,2.6144377738781
472,1436472708104,41.9262986677574
473,1436472708854,2.23673089067063
474,1436472709595,42.9239292438487
475,1436472710310,42.8835440777012
476,1436472711035,22.5062269202602
477,1436472711816,46.0408827189548
478,1436472712531,20.2465807043569
479,1436472713254,24.6245511231815
480,1436472714748,6.00365137701147
481,1436472715471,33.4612487307776
482,1436472716191,30.3893580377979
483,1436472716936,8.70451054884215
484,1436472717675,32.8918587759281
485,1436472718408,44.0217067199553
486,1436472719145,39.6140243371297
487,1436472719888,44.704647593987
488,1436472720652,3.87706950648006
489,1436472721421,40.4524740074796
490,1436472722117,5.51349635075673
491,1436472722928,29.9214310759921
492,1436472723730,1.27550198126584
493,1436472724459,1.14289040328558
494,1436472725190,33.0666222103297
495,1436472725924,0.851715999867079
496,1436472726599,14.7965473592667
497,1436472727327,41.8481722660078
498,1436472728034,28.7184892444479
499,1436472728779,41.0820224306865
500,1436472729462,52.5968914286183
501,1436472730128,10.5424186732178
502,1436472730856,36.485051813451
503,1436472731595,41.1238565682142
504,1436472732359,46.2132474048657
505,1436472733106,32.1936038521131
506,1436472733855,18.8278208648882
507,1436472734598,36.9428477127079
508,1436472735328,23.6103057207069
509,1436472736050,22.0853057365762
510,1436472736806,11.0849277745466
511,1436472737532,3.11979981725937
512,1436472738247,10.4827067204139
513,1436472738964,45.4401525298753
514,1436472739699,42.4803374217484
515,1436472740388,5.97023742063494
516,1436472741097,46.8041430785525
517,1436472741815,56.3471008864237
518,1436472742485,60.3081924282135
519,1436472743201,46.6208092463948
520,1436472743918,44.1995517840279
521,1436472744656,33.6349804200795
522,1436472745355,53.4724432027728
523,1436472746017,45.0531251512037
524,1436472747479,27.4166551224381
525,1436472748206,47.4863870999085
526,1436472748928,42.0053633962737
527,1436472749692,46.3209747232839
528,1436472750397,54.724645181105
529,1436472751142,47.3734483928504
530,1436472751879,22.3667001486215
531,1436472752617,41.215151535316
532,1436472753326,28.4964754514626
533,1436472754037,47.9570783008908
534,1436472754791,43.9738712132255
535,1436472755504,50.071616836989
536,1436472756229,57.6884550956768
537,1436472756949,50.2111472954594
538,1436472757709,59.7167938214704
539,1436472758431,21.8988838996285
540,1436472759167,30.8941134068687
541,1436472759873,44.3441294474485
542,1436472761864,53.1671143284305
543,1436472762596,32.8904252487353
544,1436472763311,60.8996059265992
545,1436472764021,65.9087609326437
546,1436472764758,33.9968803368156
547,1436472765361,33.9613392486865
548,1436472766015,45.7325260169566
549,1436472766783,45.322408489472
550,1436472767567,52.6935766795891
551,1436472768298,11.6412697999437
552,1436472769018,1.08459562314124
553,1436472769786,24.0297558235631
554,1436472770505,31.7718377150708
555,1436472771212,45.8780587541152
556,1436472771926,46.0994776739682
557,1436472772637,9.43680445921261
558,1436472773356,17.0014940515903
559,1436472774094,40.4509998699773
560,1436472774831,6.85469151148655
561,1436472775547,8.13004380743629
562,1436472776264,1.63007732047447
563,1436472776964,1.14289040328558
564,1436472777732,21.5263150660002
565,1436472778377,41.3625391441844
566,1436472779040,42.1127637692155
567,1436472779772,19.9519279456398
568,1436472780448,24.611913661075
569,1436472781146,6.72621279469022
570,1436472781908,0.814195899891974
571,1436472782607,59.6371646745104
572,1436472783322,48.4085026205249
573,1436472784736,5.89927749867584
574,1436472785468,1.92171731793442
575,1436472786163,35.3865439680823
