id,attr_time,attr_db
1,1436472360464,55.5519140470719
2,1436472361172,60.2202973900779
3,1436472361917,67.3321260870302
4,1436472362642,37.5925675252464
5,1436472363269,24.9362805186061
6,1436472363967,7.00163675813134
7,1436472364724,6.35825234016531
8,1436472365437,1.43488057469135
9,1436472366178,15.896105033518
10,1436472366898,26.4843652970689
11,1436472367615,53.1806347226743
12,1436472368340,28.1654397061176
13,1436472369056,31.3219826933972
14,1436472369831,35.1654006682067
15,1436472370551,11.7330768868726
16,1436472371283,41.4707573657684
17,1436472372057,67.9407607653012
18,1436472372732,61.8075970099392
19,1436472373471,30.7937986832066
20,1436472374216,20.4431078554778
21,1436472374942,13.6668102456043
22,1436472375685,19.7414525260517
23,1436472376359,16.5911103084837
24,1436472377108,21.355727464768
25,1436472377847,26.985303956193
26,1436472378593,15.9086040116853
27,1436472379317,16.191525041281
28,1436472380062,30.357970678017
29,1436472380792,22.7704484379717
30,1436472381583,30.8351439091218
31,1436472382355,8.43644902685035
32,1436472383085,7.59751623357264
33,1436472383784,19.0484867452982
34,1436472384526,29.7070472825869
35,1436472385246,39.4790476880203
36,1436472385981,21.117915554505
37,1436472386821,34.1645267997686
38,1436472387540,29.2372094264705
39,1436472388228,14.4881263008508
40,1436472388914,37.3313613960235
41,1436472389590,40.6091559184709
42,1436472390310,37.5882262808324
43,1436472391036,18.2549875141958
44,1436472391820,16.8900935374176
45,1436472392546,22.9107799020287
46,1436472393231,20.1905418643896
47,1436472393987,15.8678883229672
48,1436472394707,12.5942832613569
49,1436472395376,48.4784892128379
50,1436472396193,27.3945672909138
51,1436472396924,59.7382353366089
52,1436472397711,39.4141161754923
53,1436472398427,18.0290711169304
54,1436472399149,26.4786048578948
55,1436472399879,8.34527996185769
56,1436472400623,53.4347226025672
57,1436472401362,62.7215394720223
58,1436472402113,7.26900081284614
59,1436472402817,37.4684190269249
60,1436472403412,3.41808554506069
61,1436472404100,8.70672356562391
62,1436472404829,74.2203007368158
63,1436472405567,69.5361572123247
64,1436472406294,73.3648848016499
65,1436472407025,72.7028623952898
66,1436472407742,17.0850164882333
67,1436472408464,40.8761375746232
68,1436472409202,8.86051926049543
69,1436472409931,43.5314638911178
70,1436472410661,36.7635088110434
71,1436472411390,37.5089714410398
72,1436472412130,18.0737325865166
73,1436472412858,10.843739545289
74,1436472413565,52.173255899333
75,1436472414205,34.7822696865798
76,1436472414926,47.8443127845203
77,1436472415705,30.7691023847712
78,1436472416431,6.50836784533294
79,1436472417140,50.7432606216316
80,1436472417866,15.0697712517548
81,1436472418600,44.7571351382984
82,1436472419273,50.5696342561815
83,1436472420017,6.35285815526113
84,1436472420747,7.80804324992241
85,1436472421485,41.3714796389012
86,1436472422226,14.164495069993
87,1436472422968,41.3594306583168
88,1436472423721,51.4654357361047
89,1436472424332,50.129885449266
90,1436472425062,47.5164339884905
91,1436472425799,50.0272440859813
92,1436472426532,36.5981269445097
93,1436472427228,31.6503380796414
94,1436472427850,2.3296289915859
95,1436472428521,52.8656881114832
96,1436472429190,54.2174980232047
97,1436472429865,30.4183785473554
98,1436472430578,41.179259252728
99,1436472431312,4.2754528261685
100,1436472432038,12.7697865454885
101,1436472432773,32.4489649343903
102,1436472433506,43.690564118204
103,1436472434205,43.7666936039586
104,1436472434927,7.7688544259645
105,1436472435690,26.3141352597554
106,1436472436428,49.7950485093704
107,1436472437197,45.6728900391354
108,1436472437926,33.8462410642739
109,1436472438705,50.689994356643
110,1436472439429,49.9831733059653
111,1436472440161,46.6846737134598
112,1436472440882,42.3359027063679
113,1436472441690,52.7744663399572
114,1436472442429,35.7514524935659
115,1436472443167,40.9458089135679
116,1436472443839,33.9067655089031
117,1436472444504,41.4296652319418
118,1436472445237,20.9065318936356
119,1436472446010,37.5329002210458
120,1436472446744,7.83991978770964
121,1436472447461,38.3650759216423
122,1436472448139,46.1523715305626
123,1436472448880,55.4470318757869
124,1436472449604,58.6903855265729
125,1436472450287,59.2263147993258
126,1436472451015,39.1971885580643
127,1436472451719,55.5554709474027
128,1436472452386,43.9307769268693
129,1436472453078,59.6526645871731
130,1436472453746,15.827043052097
131,1436472454516,50.9347907640516
132,1436472455264,57.8358610032833
133,1436472456056,45.2418331464175
134,1436472456774,57.5453648281999
135,1436472457493,53.1530067769985
136,1436472458250,50.0257302736608
137,1436472458991,52.6589074436267
138,1436472459737,44.9138595445577
139,1436472460459,45.0152671999246
140,1436472461139,53.0382761119345
141,1436472461882,46.0862928965249
142,1436472462635,38.5709185415348
143,1436472463373,7.14588972363687
144,1436472464117,44.6364774927073
145,1436472464791,35.5011842744206
146,1436472465414,6.19752950334317
147,1436472466795,41.9620139416737
148,1436472467536,9.90429458292933
149,1436472468250,11.414132054047
150,1436472468986,11.3267851503365
151,1436472469716,2.25247333202218
152,1436472470452,5.14627874636538
153,1436472471186,5.66496971037671
154,1436472471912,19.184889947147
155,1436472472654,1.14289040328558
156,1436472473387,2.54185331551114
157,1436472474152,29.4505487285269
158,1436472474873,39.4515821092926
159,1436472476229,35.844025466029
160,1436472476952,36.3052194253111
161,1436472477708,35.2996867346301
162,1436472478434,45.2395854554211
163,1436472479189,62.1666467074364
164,1436472479921,41.2509352687305
165,1436472480676,62.5911852174582
166,1436472481438,19.7382844172163
167,1436472482164,24.5469217523995
168,1436472482893,56.3479179361134
169,1436472483628,41.0353831711779
170,1436472484265,45.4060898921802
171,1436472484940,56.3742225926417
172,1436472485519,58.3655026961565
173,1436472486184,46.066160962826
174,1436472486913,43.8357396771556
175,1436472487627,47.7287891987388
176,1436472489119,43.5685050799614
177,1436472489821,9.86722596379503
178,1436472490576,1.7865840707136
179,1436472491341,45.340342819493
180,1436472492079,3.94403891794222
181,1436472492813,48.9243534329238
182,1436472493535,57.1668529920329
183,1436472494265,15.4645940960586
184,1436472495026,39.8669252678956
185,1436472495744,42.6084693649889
186,1436472496531,42.9387565812624
187,1436472497200,51.6019338564878
188,1436472498733,50.2451835625254
189,1436472499435,47.6834835147341
190,1436472500180,56.8482513596281
191,1436472500882,35.8241719953555
192,1436472501537,18.3210762433193
193,1436472502283,40.0515251129893
194,1436472503023,32.6035085656795
195,1436472503758,59.1202641390924
196,1436472504482,42.0499272610691
197,1436472505384,36.0582779675742
198,1436472505972,19.2351499019258
199,1436472506565,28.8807350338018
200,1436472507240,72.5615458779649
201,1436472507985,65.4851312384541
202,1436472508728,74.0479294244869
203,1436472509447,65.787500409075
204,1436472510140,60.4574653340857
205,1436472510865,63.3864538675513
206,1436472511604,68.6064868922462
207,1436472512272,75.5064111864738
208,1436472513749,71.6740339057473
209,1436472514463,70.8904200475622
210,1436472515222,49.0037903675559
211,1436472515951,59.1573134419691
212,1436472516577,42.3080246363032
213,1436472517268,37.4403905598352
214,1436472518006,51.7741556288022
215,1436472518743,38.3965742820933
216,1436472519474,47.895053962221
217,1436472520191,58.1615245528825
218,1436472520912,64.0090078378477
219,1436472522441,18.8114854890644
220,1436472523166,71.5925041280297
221,1436472523881,59.2559388285977
222,1436472524599,62.3085964719736
223,1436472525336,35.16784085973
224,1436472526071,8.48739861470574
225,1436472526786,58.1441442771292
226,1436472527526,46.6665122106687
227,1436472528271,58.1146044668077
228,1436472529010,55.5170705066595
229,1436472529772,13.5181140528911
230,1436472530395,54.6492823844589
231,1436472531086,41.4699802614678
232,1436472531894,44.5122046231693
233,1436472532626,27.243390660374
234,1436472533356,27.3581847163163
235,1436472534089,22.6818195586882
236,1436472534852,33.793240286805
237,1436472535615,58.06124086209
238,1436472536336,59.5664836924467
239,1436472536989,41.2510128194912
240,1436472537706,70.350923360603
241,1436472538453,17.8627581036447
242,1436472539190,19.1476067323561
243,1436472539929,23.5016750606101
244,1436472540692,15.3008187721222
245,1436472541380,30.1601862802907
246,1436472542121,48.1048876883046
247,1436472542839,36.90024710786
248,1436472543563,72.1092639414299
249,1436472544329,24.1836016258181
250,1436472545081,48.8046022984469
251,1436472545814,58.5878238922122
252,1436472546576,5.62246694905944
253,1436472547180,40.4475228143449
254,1436472547892,42.2122848918526
255,1436472548651,39.6050930165026
256,1436472549364,44.9907162194677
257,1436472550105,40.0662410612173
258,1436472550789,40.3767112853278
259,1436472551441,33.0771270861856
260,1436472552134,60.0386711092521
261,1436472552850,20.4889215101485
262,1436472553578,44.3810703955712
263,1436472554311,8.04024430167108
264,1436472555054,5.30840925182723
265,1436472555801,48.3632333766365
266,1436472556513,53.4709850055689
267,1436472557236,45.2845033734899
268,1436472557981,41.6185551304724
269,1436472558712,13.1934584381642
270,1436472559472,14.8129409603951
271,1436472560173,38.4202321072685
272,1436472560920,13.066212419077
273,1436472561552,39.5258151943809
274,1436472562203,50.6915356450079
275,1436472562891,50.3051141460989
276,1436472563621,57.8020349668958
277,1436472564372,38.7913682360012
278,1436472565110,40.6057039655783
279,1436472565839,3.47300178471432
280,1436472566570,27.459270607019
281,1436472567191,17.8760703147287
282,1436472567942,23.6386402739764
283,1436472568703,40.8547657768111
284,1436472569434,14.3972456262055
285,1436472570167,31.5900472381944
286,1436472570881,13.8955731453797
287,1436472571487,2.4286362584735
288,1436472572157,4.87575559264133
289,1436472572893,29.7480799225542
290,1436472573631,1.35136176160862
291,1436472574373,0.500450201425509
292,1436472575100,48.2616918520693
293,1436472575835,4.31465356804508
294,1436472576585,22.8316659573147
295,1436472577277,7.28969400813306
296,1436472577935,44.3553773895821
297,1436472578672,55.236389815165
298,1436472579430,40.1972583252464
299,1436472580149,17.0839816764161
300,1436472580875,62.8404164698352
301,1436472581670,11.7294869345016
302,1436472582431,60.6626917105265
303,1436472583120,31.4180635767048
304,1436472583790,22.3768872443683
305,1436472585267,41.8141628628414
306,1436472586724,47.5048362565952
307,1436472587430,39.2589984887957
308,1436472588104,42.7342693144804
309,1436472588806,28.096284693014
310,1436472589553,49.0914733668205
311,1436472590292,56.1997327800813
312,1436472591028,10.4132519702605
313,1436472591767,34.9774904154564
314,1436472592514,52.0245911278128
315,1436472593249,42.1422281814431
316,1436472593969,45.4523089405843
317,1436472594671,30.1260096929606
318,1436472595329,45.2464624676792
319,1436472596081,63.7429935729167
320,1436472596807,24.1554008954333
321,1436472597488,47.9948087093961
322,1436472598076,49.8104916091113
323,1436472598810,43.618039149816
324,1436472599545,35.2332410809818
325,1436472600267,48.6749578847015
326,1436472601023,62.3721904601626
327,1436472601821,62.1982950270642
328,1436472602560,65.8677675380172
329,1436472603295,48.9161945774923
330,1436472604029,55.7173435630503
331,1436472604765,59.6486438984428
332,1436472605527,59.786194076083
333,1436472606346,50.4509571191174
334,1436472607110,53.6641081998553
335,1436472607824,42.2091873081565
336,1436472608516,31.364438659321
337,1436472609236,43.7511994887173
338,1436472609997,63.2481220955859
339,1436472610829,74.3002036697337
340,1436472611597,28.9257308200835
341,1436472612201,63.0359696026699
342,1436472612878,16.6527254735341
343,1436472613614,52.5815194728339
344,1436472614338,61.3644323384616
345,1436472615095,51.2591665653322
346,1436472615855,41.9971171629138
347,1436472616591,49.1760812304096
348,1436472617333,40.3472608350958
349,1436472618059,48.3900117205063
350,1436472618791,58.7217667522532
351,1436472619530,39.0908837531575
352,1436472620263,75.2828407433755
353,1436472621002,66.5350912421692
354,1436472621754,72.6452270075834
355,1436472622456,73.7916592352158
356,1436472623130,72.393554699702
357,1436472623867,73.1187097423715
358,1436472624603,67.0344239489702
359,1436472625335,68.7702840353222
360,1436472626062,47.5252394190093
361,1436472626796,40.0040164464988
362,1436472627554,2.02198844174209
363,1436472628203,28.5574761404911
364,1436472628927,33.9918051171588
365,1436472629642,44.6027432585497
366,1436472630352,32.8194216547426
367,1436472631100,74.1331742948175
368,1436472631834,71.392811517522
369,1436472632511,73.0434708914448
370,1436472633265,41.7606822677745
371,1436472633957,43.1482155825981
372,1436472634639,37.4604827280106
373,1436472635373,2.36974864553787
374,1436472636093,46.1324508350171
375,1436472636761,2.8371650962373
376,1436472637396,6.91839501133799
377,1436472638074,67.8632757405236
378,1436472638754,63.7157579150579
379,1436472639432,17.1614597079499
380,1436472640166,48.8968613887468
381,1436472640895,59.2850523754215
382,1436472641733,34.838417060849
383,1436472642482,35.4658412551209
384,1436472643195,29.073123786436
385,1436472643935,39.5819624978856
386,1436472644666,38.7616745025752
387,1436472645402,51.2699859937681
388,1436472646177,9.81432023804995
389,1436472646926,65.731892371
390,1436472647663,61.0341642717932
391,1436472648369,50.1214071257872
392,1436472649056,56.2528483766646
393,1436472649802,53.341930300586
394,1436472650530,61.2563493039226
395,1436472651284,66.3006711261744
396,1436472651974,67.7453548028574
397,1436472652731,61.0615856926769
398,1436472653363,68.0134806217841
399,1436472654107,58.1685306252835
400,1436472654838,50.5986229326685
401,1436472655572,52.5035754354502
402,1436472656312,58.97531710121
403,1436472657047,42.2313727124553
404,1436472657792,3.70049334692548
405,1436472658512,45.5231751657338
406,1436472659199,34.2650402854574
407,1436472659953,53.7532375993219
408,1436472660731,47.3389273258609
409,1436472661403,36.2525470862605
410,1436472662129,48.6380924061222
411,1436472662859,48.5109818452966
412,1436472663582,1.58760344787736
413,1436472664276,19.3339976357401
414,1436472665024,19.3826994246999
415,1436472665750,46.2653628627412
416,1436472666527,55.6517711633642
417,1436472667278,21.8191092958473
418,1436472667981,40.5738543272911
419,1436472668659,30.7354706975615
420,1436472669393,16.2417647160728
421,1436472670121,45.5792481553654
422,1436472670782,4.62665786271521
423,1436472671427,6.70768163387995
424,1436472672031,3.55059337438157
425,1436472672707,31.1987880289266
426,1436472673436,39.0802829179883
427,1436472674159,9.83841501179696
428,1436472674897,29.5761619754534
429,1436472675546,45.7727197663036
430,1436472676244,41.3641793413274
431,1436472677092,43.2736268182991
432,1436472677833,52.6645874594853
433,1436472678561,63.3098185958022
434,1436472679285,29.9871768552027
435,1436472679986,56.3324446013096
436,1436472680666,47.205846930886
437,1436472681414,47.3588680787568
438,1436472682232,16.0954312781621
439,1436472682980,9.73077382920724
440,1436472683728,20.4884364915384
441,1436472684458,45.7413494946805
442,1436472685219,45.7143874526301
443,1436472685939,44.8234779390039
444,1436472686746,46.5493603119081
445,1436472687466,50.2249393191486
446,1436472688141,8.32533667243934
447,1436472688767,38.4459647316481
448,1436472689438,38.9527762780946
449,1436472690030,51.3632024058547
450,1436472690646,56.5152521927779
451,1436472691400,43.3766144768294
452,1436472692935,54.2167596948044
453,1436472693603,12.3066358321439
454,1436472694336,11.7088258995842
455,1436472695065,39.9604382469971
456,1436472695792,47.9059841823317
457,1436472696589,34.2625145770307
458,1436472697334,28.8123989243372
459,1436472698068,32.0915306129458
460,1436472698826,45.3223603223522
461,1436472699582,38.244520104275
462,1436472700323,41.1076018033354
463,1436472701003,56.7934662325167
464,1436472701624,59.5465791540787
465,1436472702316,42.2008554778325
466,1436472703066,44.3713182278369
467,1436472703825,40.4252032168073
468,1436472704547,62.6843786608933
469,1436472705284,39.1205735705468
470,1436472706982,29.7377436742865
471,1436472707643,32.2700824723623
472,1436472708342,48.6042345309166
473,1436472709085,36.0383914080365
474,1436472709813,54.2191205359424
475,1436472710537,43.3184414712936
476,1436472711235,8.73026578579729
477,1436472711876,49.0294127086431
478,1436472712643,8.80947960911565
479,1436472713390,0.814195899891974
480,1436472714119,7.94948422961283
481,1436472714824,46.687822687373
482,1436472715565,39.1329473611262
483,1436472716310,43.9070856271138
484,1436472717026,4.83112444096696
485,1436472717755,46.1572962067471
486,1436472718513,47.4617653742565
487,1436472719235,47.5421056095278
488,1436472719973,39.3513615668987
489,1436472720782,22.8551325995654
490,1436472721510,49.4408210486954
491,1436472722143,0.900195509746455
492,1436472722904,18.5820982889274
493,1436472723647,6.0958529535731
494,1436472724373,0.891835653819054
495,1436472725106,34.8771502963442
496,1436472726599,36.7390255164628
497,1436472727314,41.0214782043775
498,1436472728165,34.9506287084972
499,1436472729855,31.3917266349089
500,1436472730542,40.4878666006846
501,1436472731270,49.9650176894828
502,1436472731891,35.3306705735593
503,1436472732585,40.9355494087559
504,1436472733322,8.23399957464422
505,1436472734045,29.8731625408135
506,1436472734789,45.8255317507432
507,1436472735474,2.42141006035449
508,1436472736154,6.32585336892201
509,1436472736890,5.09910057826393
510,1436472737629,7.90602389672966
511,1436472738371,7.36296541345423
512,1436472739097,54.8500005183546
513,1436472739833,37.9517295653496
514,1436472740572,23.2778050389312
515,1436472741341,61.721207289267
516,1436472743253,54.2819179550485
517,1436472744007,57.1182226924697
518,1436472744761,42.003240000469
519,1436472745504,41.3168489750824
520,1436472746223,61.8474096925385
521,1436472746965,42.459383088613
522,1436472747682,12.6980275229521
523,1436472748413,54.7203222779053
524,1436472749086,20.8841412417951
525,1436472749820,63.4689409603464
526,1436472750551,64.9318154458258
527,1436472751263,50.8689870521313
528,1436472751966,69.2788129304837
529,1436472752551,45.4081746983269
530,1436472753252,37.4615354144494
531,1436472754014,49.8824425772864
532,1436472754763,55.8749816609922
533,1436472755487,50.1106254046341
534,1436472756229,47.2545658171675
535,1436472756960,64.6172417166407
536,1436472757706,42.4909800246084
537,1436472758440,27.1474792547839
538,1436472759170,48.6073461452132
539,1436472759847,46.8275859894972
540,1436472760589,54.3500053513934
541,1436472761337,39.2101033702486
542,1436472762040,35.2318385438371
543,1436472762710,29.5586617808792
544,1436472763411,61.8869153471529
545,1436472764142,37.6563025298216
546,1436472764869,33.2684712062021
547,1436472765582,41.5662271130702
548,1436472766337,48.9632760081186
549,1436472767110,37.1134601648869
550,1436472767895,13.4078264320528
551,1436472768599,8.28053435562281
552,1436472769314,41.4294002589846
553,1436472770065,8.31642564761822
554,1436472770796,54.8385313524545
555,1436472771565,52.817055972414
556,1436472772307,49.7802420552718
557,1436472772972,40.4463188141928
558,1436472773653,32.9803063458061
559,1436472774361,44.599985688071
560,1436472775102,1.14289040328558
561,1436472775852,1.99096737434733
562,1436472776529,23.3379871534174
563,1436472777234,11.048259552862
564,1436472777978,22.8646425574818
565,1436472778718,36.1369848656433
566,1436472779455,29.6863717483261
567,1436472780188,17.999807147933
568,1436472780922,10.6650818656301
569,1436472781692,6.67517856690059
570,1436472782417,10.9576654354184
571,1436472783131,64.6995786751419
572,1436472783869,7.85776785581452
573,1436472784631,5.45317743030562
574,1436472785352,3.1931439131596
575,1436472786101,37.6544879611983
