id,attr_time,attr_db
1,1436472360136,47.2271020509309
2,1436472360631,43.2768942075482
3,1436472361112,48.9988609076583
4,1436472361600,46.2267589885337
5,1436472362108,44.0891445997194
6,1436472362618,44.4562679344258
7,1436472363112,43.9225207899919
8,1436472363615,45.8845294898343
9,1436472364111,44.2751724375182
10,1436472364637,33.7444947504233
11,1436472365129,39.1194353504435
12,1436472365619,45.6146884491588
13,1436472366117,34.6743048967651
14,1436472366619,44.8011647758143
15,1436472367116,35.3166132830242
16,1436472367597,45.2317654184233
17,1436472368068,29.3238018656513
18,1436472368587,39.921705809258
19,1436472369117,39.3287639286291
20,1436472369575,44.8538891040604
21,1436472369936,46.9065068802195
22,1436472370359,52.4105498039053
23,1436472370814,44.3616288729205
24,1436472371289,36.1937616326937
25,1436472371767,51.5557922413959
26,1436472372236,53.1997030966728
27,1436472372689,43.4078318204896
28,1436472373136,53.0882661093056
29,1436472373590,47.120720713479
30,1436472374035,38.6231695831232
31,1436472374627,35.4778684043832
32,1436472375126,50.4091010005589
33,1436472375617,50.267162640719
34,1436472376140,42.1045535074414
35,1436472376630,28.129001188812
36,1436472377127,31.5269839787832
37,1436472377618,48.3192467384075
38,1436472378082,50.8206561309273
39,1436472378586,33.1624788004378
40,1436472379126,45.3292377490393
41,1436472379500,45.335525166531
42,1436472379998,35.6477477085552
43,1436472380495,31.9427056459655
44,1436472380999,38.6138591299692
45,1436472381543,34.0511079793013
46,1436472382037,32.044849477554
47,1436472382546,27.4242157512974
48,1436472383043,28.0690497592979
49,1436472383610,21.2920442873043
50,1436472384075,33.0895466042113
51,1436472384656,26.3873786552895
52,1436472385156,25.5064778407967
53,1436472385665,33.1607730042179
54,1436472386166,45.351084834467
55,1436472386638,37.5617546477419
56,1436472387132,50.7110999540239
57,1436472387621,36.9890224679284
58,1436472388120,41.1217873429618
59,1436472388613,39.6927638959205
60,1436472389073,47.7001665471785
61,1436472389476,44.6577341872635
62,1436472389898,40.720968384332
63,1436472391485,20.211688210087
64,1436472391870,30.1499371975974
65,1436472392312,27.1663017473815
66,1436472392816,27.9154920331656
67,1436472393292,25.4760897522052
68,1436472393769,18.3789391609146
69,1436472394206,36.6820100663737
70,1436472394710,59.3812974814119
71,1436472395257,61.8955425933719
72,1436472395689,53.0431403045291
73,1436472397132,53.3800257065584
74,1436472397538,46.6125579956192
75,1436472397986,26.6085743636519
76,1436472398460,44.4259786317646
77,1436472398949,42.2176998521105
78,1436472399418,30.4692493683953
79,1436472399919,14.0798657811709
80,1436472400417,8.52926532025936
81,1436472400915,57.5744761287485
82,1436472401398,44.2075530536685
83,1436472401883,15.9325436002421
84,1436472402358,42.9186494438126
85,1436472402834,47.0770297898203
86,1436472404454,4.53004793121984
87,1436472404917,63.4247060886332
88,1436472405454,63.1208395151276
89,1436472405936,55.0041206199334
90,1436472406402,57.1887077959515
91,1436472406898,57.2229345630301
92,1436472407400,54.7752175446835
93,1436472407853,7.85634453374336
94,1436472409035,18.4823889704784
95,1436472409450,2.9815018134957
96,1436472409873,47.962984081065
97,1436472410302,42.0314611820596
98,1436472410755,37.1424210319413
99,1436472411210,58.4379336621981
100,1436472411702,36.9106399364778
101,1436472412177,20.7887485385697
102,1436472412667,20.3851159491588
103,1436472413158,34.3266599435927
104,1436472413647,53.5620852675695
105,1436472414126,59.5492747649289
106,1436472414593,47.4025198254335
107,1436472415089,42.516620306567
108,1436472415579,46.2615752668663
109,1436472416009,22.9182646043526
110,1436472416529,37.7331754610426
111,1436472417014,30.8939001059183
112,1436472417538,53.4269202445648
113,1436472418029,6.2346373216769
114,1436472418553,44.1161215755094
115,1436472419057,40.6203037826796
116,1436472419597,48.2641420088283
117,1436472420081,9.44403201336577
118,1436472420599,23.6428730449338
119,1436472421099,37.6841275488846
120,1436472421614,50.1654491785712
121,1436472422101,46.2069951271688
122,1436472422600,57.0404920882459
123,1436472423104,45.7915040832108
124,1436472423610,40.6523144810517
125,1436472424152,53.029028982909
126,1436472424663,52.0022260044789
127,1436472425168,47.2424793773169
128,1436472425654,52.0550068549019
129,1436472426147,35.7935085867571
130,1436472426629,43.2105705554108
131,1436472427129,44.4816576164841
132,1436472427632,4.55920085236284
133,1436472428126,38.7906773569634
134,1436472428625,47.5853192331623
135,1436472429171,48.7163519364642
136,1436472429678,48.4894984773777
137,1436472430010,41.9123046165485
138,1436472430444,40.3378428147532
139,1436472430888,36.3842766792328
140,1436472431334,2.2954285712918
141,1436472431778,42.9061327333789
142,1436472432114,8.46303425191938
143,1436472432552,48.6716021875662
144,1436472432998,58.2097723896853
145,1436472433442,39.9265510997573
146,1436472433837,42.1177265317264
147,1436472434203,32.9938404059282
148,1436472434557,2.14622259260018
149,1436472434998,1.82976173860649
150,1436472435512,1.20629133907571
151,1436472435987,6.37540376654282
152,1436472436453,45.8980373296413
153,1436472436882,41.5148725018057
154,1436472437304,40.6260741229442
155,1436472437732,44.0891868588902
156,1436472438184,53.0803049239217
157,1436472438660,56.8663874114864
158,1436472439152,54.401046187645
159,1436472439726,47.8058453741551
160,1436472440236,52.0232140084279
161,1436472440722,46.4310436558935
162,1436472441199,54.128603192597
163,1436472441702,46.91020276749
164,1436472442300,44.1602217799573
165,1436472442740,39.8123892989387
166,1436472443175,42.4851754664634
167,1436472443739,36.9924794009833
168,1436472444225,51.8071212524592
169,1436472444776,39.4308429751077
170,1436472445285,30.2012434602048
171,1436472445778,39.3124277375136
172,1436472446278,21.728049212911
173,1436472446781,10.879573109001
174,1436472447275,31.9725329043299
175,1436472447755,29.6478017512651
176,1436472448238,41.9673760337811
177,1436472448748,38.3291726467316
178,1436472449235,51.3265739520321
179,1436472449780,65.7959500257882
180,1436472450213,51.4887642815478
181,1436472450664,51.433720866697
182,1436472451142,38.4771494575036
183,1436472451609,54.8594660461604
184,1436472452105,41.1678876905902
185,1436472452621,42.1462662298336
186,1436472453089,54.6000725976196
187,1436472453592,16.6917847174413
188,1436472454058,27.1793784717155
189,1436472454475,60.8571858162675
190,1436472454888,55.6186770964075
191,1436472455359,53.6219279100164
192,1436472455848,54.6842516893649
193,1436472456354,46.4711997221499
194,1436472456849,46.5421363387511
195,1436472457347,45.1031840943367
196,1436472457850,39.7324951405419
197,1436472458328,50.5122474791278
198,1436472458829,56.1322562278131
199,1436472459330,43.2221113250406
200,1436472459881,43.2594266888049
201,1436472460369,16.3143024087827
202,1436472460857,39.626215979591
203,1436472461348,44.5876333753759
204,1436472461829,47.7801166032311
205,1436472462327,53.0644705731787
206,1436472462766,29.5479393063985
207,1436472463192,6.6422789086073
208,1436472463671,36.7736950965491
209,1436472464163,48.4948936277874
210,1436472464696,39.9652551942324
211,1436472465197,24.3693944493341
212,1436472465698,8.63503768715773
213,1436472466174,3.43668948417634
214,1436472466676,42.5965475950469
215,1436472467165,35.8398114981072
216,1436472467633,6.30506383970738
217,1436472468113,10.1154562683622
218,1436472468531,0.900195509746455
219,1436472468980,15.3668097348245
220,1436472469920,2.52692177267235
221,1436472470359,1.18454942625143
222,1436472471241,3.65027099134043
223,1436472471717,34.5743451728628
224,1436472472198,10.4441079989098
225,1436472473150,1.63007732047447
226,1436472473660,2.02198844174209
227,1436472474160,1.14289040328558
228,1436472474532,37.9666132370172
229,1436472474945,40.2216457877679
230,1436472475896,33.9358860988438
231,1436472476372,19.4006405791313
232,1436472476828,3.09711136821249
233,1436472477329,31.8042000647742
234,1436472477810,32.5860326775675
235,1436472478294,39.3876548455296
236,1436472478768,52.423696591276
237,1436472479268,59.0055941479682
238,1436472479750,52.9898177765052
239,1436472480287,36.9559294607434
240,1436472480758,51.0548337887717
241,1436472481228,39.8362211259594
242,1436472481670,54.571442983174
243,1436472482040,42.8719817423839
244,1436472482427,12.8376726063554
245,1436472482891,51.4497077568726
246,1436472483390,55.4512086340669
247,1436472483858,53.3982885795146
248,1436472484422,39.7207174651112
249,1436472484909,56.7065475078387
250,1436472485418,45.0453788630192
251,1436472485912,37.8844254821742
252,1436472486404,45.8827804706906
253,1436472486894,47.9825928616896
254,1436472487400,44.6641738627216
255,1436472487876,40.0341432262166
256,1436472488367,5.43358592625568
257,1436472488836,44.3594753416351
258,1436472489320,48.8651128347436
259,1436472489797,34.5292553531274
260,1436472490630,0.714927509260971
261,1436472491059,35.3474761803408
262,1436472491532,41.931407467641
263,1436472492012,4.21318174066374
264,1436472492517,44.7476513149966
265,1436472493003,47.6411905945768
266,1436472493514,53.492729327733
267,1436472494132,45.2040958613386
268,1436472494605,23.6237600026426
269,1436472495044,27.3722613898566
270,1436472495500,42.7357233375141
271,1436472495979,51.6589455253626
272,1436472496481,41.1747008574177
273,1436472496972,45.3377978064619
274,1436472497475,43.2794701189014
275,1436472497974,19.0283638985174
276,1436472498467,53.874049459319
277,1436472498957,41.1509511568004
278,1436472499500,37.1181337711611
279,1436472499999,54.5893983244015
280,1436472500507,68.68634471373
281,1436472500975,43.23113151949
282,1436472501470,35.6063204075471
283,1436472501959,29.1795464679126
284,1436472502425,36.8338115011521
285,1436472502910,37.7157029737752
286,1436472503449,60.3947866070067
287,1436472503940,44.0946877316596
288,1436472504472,37.3054516397284
289,1436472504951,35.6598009355962
290,1436472505424,31.9984729273149
291,1436472505911,28.4815652696151
292,1436472506401,20.9526517533971
293,1436472506875,66.3083352127201
294,1436472507357,62.3726674243381
295,1436472507841,59.2274366770043
296,1436472508316,64.181290840088
297,1436472508797,67.4286322525295
298,1436472509280,68.3545021563949
299,1436472509765,26.3903944528946
300,1436472510243,53.0891155813515
301,1436472510638,64.4332912479071
302,1436472511074,42.704261783803
303,1436472511519,46.7111623248576
304,1436472511985,33.1166370332821
305,1436472512424,67.8093104306711
306,1436472512870,61.7749979991843
307,1436472513342,53.3500476929099
308,1436472513823,63.2114963771515
309,1436472514305,43.1219631048025
310,1436472514675,58.1039497382109
311,1436472515132,31.3560303455589
312,1436472515575,51.5464660841744
313,1436472516047,54.5197797967664
314,1436472516571,56.8205091346584
315,1436472517037,42.6376194692333
316,1436472517508,37.9281657706073
317,1436472517960,52.8577115062454
318,1436472518446,39.3968060601686
319,1436472519222,40.5264551995808
320,1436472519580,44.6019044187133
321,1436472519938,44.4060930418761
322,1436472520418,57.3409262362569
323,1436472520906,66.7599727514535
324,1436472521402,62.2062162375361
325,1436472521873,38.3367471296773
326,1436472522348,57.4742762201729
327,1436472522808,53.206604299384
328,1436472523253,65.5239066513506
329,1436472523699,60.7833080165971
330,1436472524190,53.0277466891518
331,1436472524710,67.1948575907152
332,1436472525190,62.4618418439506
333,1436472525675,12.3021295339167
334,1436472526206,10.58965740332
335,1436472526673,56.9409469766205
336,1436472527157,58.6288330659534
337,1436472527666,47.4686035387541
338,1436472528139,55.4453802752484
339,1436472528622,63.3978548391031
340,1436472529127,52.8583670019908
341,1436472529601,35.4543403814696
342,1436472530111,40.3275804891416
343,1436472530628,44.2346325387284
344,1436472531110,46.8939513761068
345,1436472531598,43.5017361271524
346,1436472532091,43.4413408315257
347,1436472532595,15.9954036252848
348,1436472533098,24.9711525595027
349,1436472533595,36.1180487199244
350,1436472534091,26.3573176845695
351,1436472534614,44.1450478155825
352,1436472535055,35.4505768089618
353,1436472535530,50.3622708206153
354,1436472536028,53.8276787405874
355,1436472536537,51.8343173652317
356,1436472536998,47.7896230656911
357,1436472537499,65.4134559601693
358,1436472537988,63.8191597375868
359,1436472538517,5.07552962855308
360,1436472538978,29.3914647975756
361,1436472539540,9.86582218364844
362,1436472540077,21.9411078321323
363,1436472540627,27.9796273841584
364,1436472541049,19.0909535554873
365,1436472541518,36.0905983424143
366,1436472541995,45.6584888403275
367,1436472542498,38.8955802064838
368,1436472542997,34.895537916548
369,1436472543521,49.7667923143609
370,1436472544008,55.1766338259207
371,1436472544532,27.4372082089611
372,1436472544970,37.4605146076801
373,1436472545454,13.1305250385122
374,1436472545951,43.2980231203164
375,1436472546436,6.92548247573702
376,1436472546935,40.8365666709216
377,1436472547436,48.5754984399102
378,1436472547937,46.3506499207937
379,1436472548407,46.6978081669239
380,1436472548894,45.3168944013811
381,1436472549379,40.2240465826346
382,1436472549905,42.1581413920661
383,1436472550374,34.9209817716325
384,1436472550841,34.7491792822438
385,1436472551290,33.1914119958384
386,1436472551642,40.4956629578991
387,1436472552055,45.6203611824552
388,1436472552514,50.2342721562341
389,1436472552982,5.24944476152223
390,1436472553490,39.0344378157928
391,1436472553967,44.5632514854976
392,1436472554443,6.03302588227599
393,1436472555017,6.43994878190879
394,1436472555528,47.7638763308862
395,1436472555933,58.9621971866747
396,1436472556410,60.3448257249639
397,1436472556905,28.8534477974645
398,1436472557411,49.5420919192857
399,1436472557911,38.7031350604095
400,1436472558386,12.9909531050205
401,1436472558876,6.13525653709615
402,1436472559365,15.3915912044182
403,1436472559855,16.5669673375815
404,1436472560338,48.2898057594162
405,1436472560809,25.2158867519528
406,1436472561248,26.7559558068225
407,1436472561700,43.3930804274961
408,1436472562188,58.7483040982267
409,1436472562693,44.6152355695938
410,1436472563176,51.7071610489841
411,1436472563657,49.4105709331237
412,1436472564148,44.9453648950682
413,1436472564652,51.6989634422519
414,1436472565151,43.3317542307222
415,1436472565647,7.72474847463742
416,1436472566121,43.5609724735492
417,1436472566603,37.1237315107867
418,1436472567112,30.4275237119355
419,1436472567621,30.4290302760151
420,1436472568113,35.4951672428545
421,1436472568606,42.5404419082335
422,1436472569096,11.2786677141272
423,1436472569668,9.41872287531645
424,1436472570158,15.3377850058882
425,1436472570684,9.49671238053421
426,1436472571179,3.36092423435435
427,1436472571621,2.32701078820871
428,1436472572005,28.2569358512457
429,1436472572446,3.94403891794222
430,1436472572918,6.56055394465472
431,1436472573405,1.1931706573692
432,1436472573895,9.13541050236535
433,1436472574368,2.86852213259686
434,1436472574903,7.43493577514729
435,1436472575399,32.2185143521697
436,1436472575890,1.33561218406035
437,1436472576340,23.7510255988411
438,1436472576780,26.3009231564521
439,1436472577266,11.0355070410157
440,1436472577745,25.2064551171098
441,1436472578236,44.9610004897057
442,1436472578704,49.0137670794873
443,1436472579207,49.9905800055801
444,1436472579686,29.7959426808923
445,1436472580225,22.9270821803158
446,1436472580713,0.7790303067652
447,1436472581184,53.5879667971212
448,1436472581655,22.2600467525856
449,1436472582127,52.7368868039034
450,1436472582604,62.0799897812046
451,1436472583105,47.0274653870899
452,1436472583608,3.50512716442607
453,1436472584108,23.8828793405093
454,1436472584599,4.34453985307605
455,1436472585104,32.6224170692098
456,1436472585600,2.55369703936846
457,1436472586060,0.188348734813989
458,1436472586577,42.4930735606572
459,1436472587065,44.9638896356958
460,1436472587567,39.9118107675428
461,1436472588066,27.1814733113027
462,1436472588569,28.7012728509006
463,1436472589075,2.4142222331974
464,1436472589594,55.4750831506773
465,1436472590083,59.1596601445093
466,1436472590577,29.9259496002549
467,1436472591076,8.99953408928171
468,1436472591572,28.402559075808
469,1436472592057,38.8653066782414
470,1436472592586,45.6820068127254
471,1436472593085,41.2826977359163
472,1436472593597,49.8505828657284
473,1436472594073,51.3899754782675
474,1436472595786,32.5885346609346
475,1436472596213,48.0197079399049
476,1436472596693,53.7926541306441
477,1436472597180,44.2750371162236
478,1436472597678,58.5653757531902
479,1436472598140,45.3185029187175
480,1436472598588,38.9907694721744
481,1436472599037,30.2902105287224
482,1436472599515,55.7700077963824
483,1436472600027,58.5453501069056
484,1436472600556,60.2752992489884
485,1436472601042,63.8679417212144
486,1436472601620,62.0278157255565
487,1436472602091,64.9028104051348
488,1436472602586,57.3417208283325
489,1436472603082,41.4038006011525
490,1436472603599,43.1828924834433
491,1436472605434,51.5546761443534
492,1436472605823,58.6759638441722
493,1436472606285,48.6682656487907
494,1436472606779,57.4654362081818
495,1436472607247,56.7416693953376
496,1436472607732,39.5786222940848
497,1436472608218,27.6411600964378
498,1436472608690,31.7591185330764
499,1436472609192,48.8739286326996
500,1436472609673,33.5816268203396
501,1436472610175,53.2702252679335
502,1436472610674,60.4090050814056
503,1436472611172,52.6321707370962
504,1436472611652,35.6633959862131
505,1436472612119,56.0708536300592
506,1436472612498,51.1275470059261
507,1436472612904,5.29617560242731
508,1436472613346,44.7827618791355
509,1436472613816,40.6954341465622
510,1436472614305,58.3161787332987
511,1436472614786,24.8021476096972
512,1436472615267,62.8425735676263
513,1436472615738,58.1478883315135
514,1436472616175,46.811449682011
515,1436472616582,55.9055015888831
516,1436472617037,46.7084292444333
517,1436472617531,48.3427938812599
518,1436472618018,55.8731152723605
519,1436472618517,15.597900949462
520,1436472618994,47.1613423047883
521,1436472620647,60.0626836813474
522,1436472621037,61.508185922055
523,1436472621560,62.1066613902121
524,1436472621993,69.5227381001745
525,1436472622448,67.1304287715062
526,1436472622933,61.862504262852
527,1436472623415,66.2701989265421
528,1436472623940,57.273609103465
529,1436472624415,60.0067912795748
530,1436472624889,56.366836756749
531,1436472625401,53.9164004550063
532,1436472625844,47.4308970501552
533,1436472626305,46.7263364785091
534,1436472626769,37.7688784777163
535,1436472627268,21.3542817437783
536,1436472627757,3.07472504232041
537,1436472628186,9.56688066930637
538,1436472629508,31.180175790747
539,1436472629925,25.9600768458755
540,1436472630399,31.1785365730101
541,1436472630897,26.7487127199179
542,1436472631405,65.3677466742295
543,1436472631876,48.900129839185
544,1436472632402,62.9049396172579
545,1436472632842,23.5015282873752
546,1436472633266,41.1765942874982
547,1436472633757,34.1029948033152
548,1436472634234,32.8318768534557
549,1436472634768,35.2569883386043
550,1436472635256,17.1955660608651
551,1436472635762,16.0702359147537
552,1436472636248,39.4158452229986
553,1436472636720,14.8371531495709
554,1436472637183,9.64646022704354
555,1436472637674,45.7539283673041
556,1436472638168,56.5213372052489
557,1436472638678,36.004019107964
558,1436472639171,7.70910616823563
559,1436472639674,5.63804730103777
560,1436472640162,50.3887658760458
561,1436472640662,55.5668012088015
562,1436472641152,43.6257526597493
563,1436472641632,34.6793381959762
564,1436472642119,12.3676059669086
565,1436472642605,42.4908440314136
566,1436472643077,44.3187467963875
567,1436472643573,11.8710352730476
568,1436472644077,43.449111606928
569,1436472644578,36.5859675238677
570,1436472645091,44.6142330063188
571,1436472645597,62.9642437183435
572,1436472646093,21.0014099056238
573,1436472646598,58.3830155935166
574,1436472647121,63.4774834921799
575,1436472647610,58.2014175682206
