id,attr_time,attr_db
1,1436472360146,60.0457701028443
2,1436472360975,37.5639870277291
3,1436472361845,17.6491979176805
4,1436472362736,15.1254021089231
5,1436472363662,8.3806300798869
6,1436472364526,39.0677961323031
7,1436472365362,28.200182969926
8,1436472366212,57.3770613001848
9,1436472367096,30.421379529423
10,1436472367896,24.232182040402
11,1436472368808,47.279439673096
12,1436472369650,22.625332898862
13,1436472370550,44.8634889735995
14,1436472371820,67.1768025170385
15,1436472372587,22.9140926692188
16,1436472373409,37.1078790657803
17,1436472374098,21.2376077314032
18,1436472374730,27.4720300640504
19,1436472375397,27.0337489644753
20,1436472376124,42.034113885535
21,1436472376865,28.0975151181219
22,1436472377596,35.9167442248196
23,1436472378319,49.7952127119
24,1436472379034,38.7113391970337
25,1436472379675,49.3094855959477
26,1436472380391,35.3501794087865
27,1436472381114,20.6400211041744
28,1436472381854,14.0477799978525
29,1436472382596,15.9089299301349
30,1436472383395,15.5264794714256
31,1436472384144,17.255093568661
32,1436472384852,38.2425451662101
33,1436472385597,33.1713652310273
34,1436472386328,36.9534186066107
35,1436472387039,21.8506054050353
36,1436472387767,44.8933339737034
37,1436472388577,45.471548898735
38,1436472389338,26.7665695160286
39,1436472390061,19.0247381385068
40,1436472390802,15.2492379728145
41,1436472391562,24.2369940220679
42,1436472392274,14.3624689622177
43,1436472393037,42.3912466543192
44,1436472393757,35.2672988400989
45,1436472394566,54.6530669566159
46,1436472395243,45.3965677708387
47,1436472395906,36.1069359311049
48,1436472396640,32.5213073571557
49,1436472397378,15.157852012098
50,1436472398127,26.3228287075534
51,1436472398919,11.7996357538511
52,1436472399643,59.2879899286077
53,1436472400351,25.1065019237925
54,1436472401080,45.5761319216047
55,1436472401811,24.258995697762
56,1436472402557,25.5478200295864
57,1436472403304,68.6596493166
58,1436472404023,75.4913243212195
59,1436472404749,58.3822686066512
60,1436472405516,59.6553336724543
61,1436472406230,56.3473462147784
62,1436472406939,7.63817055104892
63,1436472407669,32.584140733685
64,1436472408433,50.3339744149271
65,1436472409177,54.050963336302
66,1436472409904,61.5634826104926
67,1436472410622,32.8722751738231
68,1436472411309,16.2119448925151
69,1436472411982,56.1356997523596
70,1436472412714,39.9649962393333
71,1436472413483,39.6252441655508
72,1436472414194,39.1852190415581
73,1436472414915,22.952696100504
74,1436472415587,36.1635530002104
75,1436472416345,56.6857671492934
76,1436472417062,42.3996901379047
77,1436472417826,51.0687856520165
78,1436472418572,43.4714225782167
79,1436472419275,6.35899027735092
80,1436472419937,43.1164670610704
81,1436472420664,37.4500042489989
82,1436472421418,43.3707823187109
83,1436472422151,55.8689992408254
84,1436472422897,56.4545929344734
85,1436472423622,56.6422697576563
86,1436472424355,30.5387772833813
87,1436472425078,57.6720638345519
88,1436472425819,57.8924807865844
89,1436472426570,2.80487903657608
90,1436472427288,55.1079400043378
91,1436472428012,60.8932257422342
92,1436472428703,46.8801150257396
93,1436472429468,39.442853578372
94,1436472430209,2.94642301026734
95,1436472430948,14.2428913349989
96,1436472431680,58.3058711469146
97,1436472432468,42.8044714733139
98,1436472433206,28.8480596155273
99,1436472434717,4.3961312838001
100,1436472435445,54.4238806952536
101,1436472436070,34.1402089957281
102,1436472437985,47.8993963619987
103,1436472438665,42.642538910079
104,1436472439392,51.4845405695071
105,1436472440072,44.8306967618081
106,1436472440831,50.7862762514393
107,1436472441559,47.0033927894557
108,1436472442315,33.5054599826122
109,1436472443061,56.0100239688492
110,1436472443715,31.4684479744831
111,1436472445122,15.0935781749399
112,1436472445884,40.2902800746022
113,1436472446588,31.9428276085377
114,1436472447304,42.3543341089834
115,1436472447949,59.1066407587165
116,1436472448622,60.4141308980707
117,1436472449386,51.9038580236764
118,1436472450091,42.5212781721791
119,1436472451749,56.9289252173501
120,1436472452529,39.2000767207295
121,1436472453236,66.1734406226038
122,1436472453979,69.0600102379666
123,1436472454730,45.144799728041
124,1436472455447,52.1551633350002
125,1436472456501,45.3820609138967
126,1436472457198,60.3153468422151
127,1436472457912,56.8090056813606
128,1436472458635,54.4928518062702
129,1436472459407,41.9571532890347
130,1436472460152,56.2368948734549
131,1436472460861,54.1561383820359
132,1436472461600,6.49443419143163
133,1436472462354,21.8622280498753
134,1436472463085,49.2603394385572
135,1436472463825,41.691566547414
136,1436472464526,1.14289040328558
137,1436472465197,7.10147566928132
138,1436472465916,42.5298146585069
139,1436472466658,39.397118098269
140,1436472467413,0.607026871526848
141,1436472468858,1.7451238982563
142,1436472470334,21.9934919753353
143,1436472471090,1.43488057469135
144,1436472471844,0.482047885986819
145,1436472472602,2.74408032443651
146,1436472473345,36.6415887994696
147,1436472474799,37.7750337239354
148,1436472475524,2.35610231179914
149,1436472476192,17.6589824238427
150,1436472476888,45.0889740489908
151,1436472477619,47.3859959270429
152,1436472478363,52.9724425068499
153,1436472479115,42.8345365874037
154,1436472479845,58.5074682061788
155,1436472480607,64.355460438218
156,1436472481366,12.1644604105341
157,1436472482083,58.2532278265737
158,1436472482821,56.8241697216758
159,1436472483560,64.7342775563371
160,1436472484378,61.5381964856293
161,1436472485113,53.579721803387
162,1436472485837,50.1077799552378
163,1436472486441,45.5254806971968
164,1436472487130,34.3543918971639
165,1436472487890,58.5380044970331
166,1436472488656,12.3220616409166
167,1436472489288,3.94403891794222
168,1436472489960,42.3317351027604
169,1436472490697,7.43391848358896
170,1436472491454,52.9823313393016
171,1436472492193,64.8859490908768
172,1436472492953,41.680419259434
173,1436472493697,20.4870817253848
174,1436472494522,49.5579974319349
175,1436472495254,42.8609049009102
176,1436472495999,58.0890160478427
177,1436472496730,17.6428600509272
178,1436472497467,55.8157479698012
179,1436472498211,44.400085150921
180,1436472499015,56.4859017466089
181,1436472499737,37.5472056665664
182,1436472500498,32.4790828004754
183,1436472501237,35.6853343545495
184,1436472501969,58.8372542360705
185,1436472502704,66.1567602426811
186,1436472503452,50.4624372255921
187,1436472504194,42.8680346342385
188,1436472504919,13.5087927897685
189,1436472505665,70.462740258083
190,1436472506424,67.8150969544836
191,1436472507180,72.5326188183096
192,1436472507907,74.8274132180993
193,1436472508631,33.7145983821639
194,1436472509354,70.9353037432587
195,1436472510032,74.2048835390061
196,1436472510761,33.4477444691468
197,1436472511494,71.7733572089004
198,1436472512227,58.466498034992
199,1436472512949,45.196819429752
200,1436472513686,32.0604709952451
201,1436472514434,30.4963492160019
202,1436472515105,61.5942882833428
203,1436472515782,41.8729795764536
204,1436472516536,58.7368344316588
205,1436472517259,36.5640242227759
206,1436472517987,58.5490303111276
207,1436472518710,39.4407572579166
208,1436472519542,74.2044528338574
209,1436472520306,51.921429199778
210,1436472521042,57.998363931185
211,1436472521795,67.3852220105444
212,1436472522564,60.5583142303719
213,1436472523330,49.7324441010407
214,1436472524059,51.8669120817594
215,1436472524872,7.00040915730419
216,1436472525608,58.7422256420533
217,1436472526338,40.0783159437789
218,1436472527075,61.2512784993817
219,1436472527812,58.9460379464503
220,1436472528572,15.6035579962208
221,1436472529356,45.987399496738
222,1436472530073,41.6211270350192
223,1436472530842,47.8220943156923
224,1436472531533,38.90571219433
225,1436472532189,32.3723817463461
226,1436472532905,23.5066365252361
227,1436472533645,34.2732530393381
228,1436472534385,56.1728837728198
229,1436472535112,52.0703174472598
230,1436472535760,44.2318761890021
231,1436472536454,63.3234894162681
232,1436472537167,15.0736864844504
233,1436472537894,21.4648431601021
234,1436472538598,31.6097116290916
235,1436472539399,32.7660573894674
236,1436472540112,36.5219475514877
237,1436472540846,59.6154642704144
238,1436472541579,47.2081251360395
239,1436472542342,65.3860262175772
240,1436472543065,36.3601069412781
241,1436472543790,20.1545395277852
242,1436472544605,47.8798171383138
243,1436472545344,5.72749147973111
244,1436472546082,54.5637614874923
245,1436472546816,40.1275014365233
246,1436472547580,47.5022564610261
247,1436472548319,44.9629837702766
248,1436472549065,39.3903934590679
249,1436472549815,40.1960655683996
250,1436472550556,46.4558763062154
251,1436472551265,53.0844657454558
252,1436472551848,45.3845741004437
253,1436472552541,37.9969570556383
254,1436472553283,8.55373391438473
255,1436472554005,21.4070322352281
256,1436472554739,57.9887393944543
257,1436472555457,35.4015834647319
258,1436472556126,42.096867949686
259,1436472556865,33.6526581410227
260,1436472557603,5.9784967413069
261,1436472558332,28.1626078571466
262,1436472559063,52.1325075111976
263,1436472559802,13.4017356708716
264,1436472560566,52.4263528834854
265,1436472561305,62.6137141173092
266,1436472562048,52.1298195541311
267,1436472562806,57.6701021774712
268,1436472563568,48.3134712360977
269,1436472564294,5.30525132063881
270,1436472565098,5.24418796378507
271,1436472565829,26.3057056005008
272,1436472566572,2.94642301026734
273,1436472567303,47.054800865763
274,1436472568040,24.670359079759
275,1436472568801,19.1724960931549
276,1436472569615,22.4216532320309
277,1436472570333,0.387119185497583
278,1436472571063,2.72651532423808
279,1436472571773,6.08789796745265
280,1436472572413,2.74408032443651
281,1436472573129,2.31745535309973
282,1436472573859,47.241979407658
283,1436472574582,1.71509486354764
284,1436472575299,12.9768238951653
285,1436472575897,8.15289164541472
286,1436472576570,6.61263818809645
287,1436472577316,58.2284882033618
288,1436472578046,52.0078359057609
289,1436472578829,46.5065109143871
290,1436472579530,63.7451797717558
291,1436472580268,43.0555302638839
292,1436472581006,59.6401229354735
293,1436472581736,49.1854476456919
294,1436472582489,4.86640020740778
295,1436472583227,9.01671410806568
296,1436472583953,55.82509225121
297,1436472584678,3.63455429621852
298,1436472585451,61.5563816144723
299,1436472586194,43.2850884955349
300,1436472586947,59.6440337663593
301,1436472587685,21.3342462173418
302,1436472588451,61.7430713798588
303,1436472589267,33.7660970642442
304,1436472589993,61.623952546042
305,1436472590715,45.8348820089881
306,1436472591497,49.6842806009642
307,1436472592203,51.3229465370653
308,1436472592876,43.5940958016473
309,1436472593692,38.9653361782593
310,1436472594432,36.3189359439031
311,1436472595149,56.1568815451679
312,1436472595895,41.3108786637669
313,1436472596575,45.0193422259273
314,1436472597324,43.5087714645104
315,1436472598066,56.819821630185
316,1436472598844,66.5821541545508
317,1436472599570,34.1060551764712
318,1436472600318,67.9025712238796
319,1436472601075,41.8202663299404
320,1436472601834,38.7965401179969
321,1436472602592,57.6024158253393
322,1436472603369,44.4697391245728
323,1436472604113,57.470633299385
324,1436472604852,60.7142621148126
325,1436472605586,63.4032819986945
326,1436472606328,51.1675237197705
327,1436472607069,19.8744883336659
328,1436472607804,52.4231585340751
329,1436472608559,50.9696424413541
330,1436472609378,63.6654730635669
331,1436472610112,56.5384106876756
332,1436472610849,59.2786232038732
333,1436472611590,15.5227919708962
334,1436472612365,53.0619970877042
335,1436472612937,65.3248396531232
336,1436472613599,33.1715505910508
337,1436472614454,63.7825905362707
338,1436472615179,61.6261487202637
339,1436472615884,53.3647975995696
340,1436472616619,52.403069551712
341,1436472617358,34.2373943871671
342,1436472618091,78.1194130864805
343,1436472618808,64.4946298051288
344,1436472619623,68.149546742987
345,1436472620346,73.9495029430744
346,1436472621072,44.9190052826118
347,1436472621796,61.2261728484539
348,1436472622571,58.6184596613582
349,1436472623320,68.6600491384763
350,1436472624045,56.7123119596117
351,1436472624773,47.3385828288386
352,1436472625511,39.6209231765359
353,1436472626239,25.0617850663784
354,1436472626944,23.6913138006027
355,1436472627685,44.3748264561589
356,1436472628425,55.4809317368711
357,1436472629169,40.3629049664375
358,1436472629894,70.4266747949639
359,1436472630615,60.2175187340388
360,1436472631345,69.0986235330969
361,1436472632089,39.2653227750954
362,1436472632843,35.5677249974163
363,1436472633498,24.2751302186304
364,1436472634272,48.5101133379296
365,1436472634999,54.1140132485869
366,1436472635672,5.95654101542017
367,1436472636373,62.2573469414805
368,1436472637016,54.6618349693367
369,1436472637723,39.7244077391934
370,1436472638472,11.0325989184756
371,1436472639214,61.9871426313669
372,1436472639943,28.3081265976737
373,1436472640649,14.7646819337281
374,1436472642176,16.2028647034147
375,1436472642916,35.3912012013522
376,1436472643654,43.5069964664262
377,1436472644423,70.0734991469023
378,1436472645162,61.9164811712995
379,1436472645879,66.5597736399775
380,1436472646620,65.4819610679649
381,1436472647360,59.6774409023935
382,1436472648086,68.1964958476305
383,1436472648838,64.0969484594196
384,1436472649608,57.9189125522642
385,1436472650336,39.9988340123678
386,1436472651075,48.4616061110353
387,1436472651744,64.5939603030074
388,1436472653139,49.4329076104444
389,1436472653863,49.3794840274675
390,1436472654592,62.3178531167762
391,1436472655317,69.3853443021454
392,1436472656041,15.1213730795129
393,1436472656737,11.162217168387
394,1436472657395,47.0922806720423
395,1436472658112,58.4339159787989
396,1436472658869,62.5579310909808
397,1436472659589,50.1691374179855
398,1436472660340,43.9108902030764
399,1436472661069,38.1606270542543
400,1436472661820,40.9608444652035
401,1436472662566,3.09711136821249
402,1436472663313,19.4976202950125
403,1436472664041,39.9885020224542
404,1436472664790,57.8903461310771
405,1436472665523,58.692424600702
406,1436472666170,39.5759406019236
407,1436472668000,38.1606458293505
408,1436472668722,47.2324120799737
409,1436472669553,8.77409729547532
410,1436472670325,6.54945451124982
411,1436472671067,4.41011340190887
412,1436472671828,40.8059150924731
413,1436472672653,60.4259410018778
414,1436472673464,2.02198844174209
415,1436472674136,39.4138162484739
416,1436472674852,24.3594048564737
417,1436472675569,36.1622872535557
418,1436472677170,55.2867395838451
419,1436472677862,43.23154664256
420,1436472678664,54.4702290073338
421,1436472679416,44.7567228395213
422,1436472680145,55.1716304853215
423,1436472680884,30.1701374434042
424,1436472681608,6.94840484542761
425,1436472682364,5.39401765164959
426,1436472683091,48.4631131532922
427,1436472683815,20.5387370941208
428,1436472684576,43.0452551566469
429,1436472685284,39.2475446247674
430,1436472685991,50.5200633290967
431,1436472686729,42.475843161623
432,1436472687476,46.1322396222599
433,1436472688219,39.9739090481516
434,1436472688946,59.7939209474661
435,1436472689664,59.2266510211258
436,1436472690405,45.1306742221307
437,1436472691134,27.3812355940104
438,1436472691863,50.4887533040634
439,1436472692580,14.908038484078
440,1436472693358,15.2817684353327
441,1436472694078,41.9473838481448
442,1436472694802,36.0709810094511
443,1436472695570,45.4982888229089
444,1436472696300,11.8567406666469
445,1436472697014,48.8097729637893
446,1436472697739,41.903902778896
447,1436472698481,40.061045815656
448,1436472699220,34.0139114157269
449,1436472699942,51.784539993789
450,1436472700676,55.9024803485558
451,1436472701433,55.7443337111321
452,1436472702157,54.3364163339154
453,1436472702894,47.9595934342779
454,1436472703633,55.3304453601613
455,1436472704463,48.4203612735528
456,1436472705212,43.6991505824754
457,1436472705945,24.4490824576973
458,1436472706656,43.765674675184
459,1436472707428,33.3069889716407
460,1436472708135,47.5367897861403
461,1436472708895,53.6597080226689
462,1436472709691,27.4308650647632
463,1436472710444,48.6753444260329
464,1436472711183,38.259233875419
465,1436472711921,4.84710317045336
466,1436472713382,10.083110969695
467,1436472714056,41.7895184166153
468,1436472714796,42.823920844447
469,1436472715540,20.4401144056503
470,1436472716263,10.746584665232
471,1436472716987,21.1414418995523
472,1436472717690,53.5030157756411
473,1436472718373,35.4071798441713
474,1436472719124,5.04746168849166
475,1436472719861,1.56031076355805
476,1436472720587,45.350144541917
477,1436472721344,5.71247697359297
478,1436472722076,10.3481050944142
479,1436472722842,4.57792448461443
480,1436472724197,34.7410123451641
481,1436472724979,60.4429724155763
482,1436472725625,41.9754300300362
483,1436472726314,43.1854564647839
484,1436472727049,46.5213953140925
485,1436472727798,32.8392278069453
486,1436472728528,39.9853836326932
487,1436472729241,26.2075710957537
488,1436472729967,55.7402809819201
489,1436472730707,38.1137837742661
490,1436472731482,51.5613422241307
491,1436472732206,27.2825350070135
492,1436472732941,47.1446595017679
493,1436472733703,34.2047791651022
494,1436472734328,3.248515472953
495,1436472735001,2.26155740777234
496,1436472735705,3.8479905049711
497,1436472736491,4.26537179250357
498,1436472737211,5.63117320081997
499,1436472737908,50.2242223683899
500,1436472738578,33.9259928709627
501,1436472739312,18.2911972803981
502,1436472740077,57.5951183054267
503,1436472740822,58.6709787229292
504,1436472741563,57.0563466331478
505,1436472742298,57.4401613406573
506,1436472743015,50.5950993406471
507,1436472743735,67.3742905505574
508,1436472744577,65.9774225810567
509,1436472745313,49.3621764851283
510,1436472746046,44.705357452045
511,1436472746797,41.1163547707634
512,1436472747526,57.487197173845
513,1436472748207,22.8852919640518
514,1436472748926,60.057563228844
515,1436472749576,59.3552246424559
516,1436472750293,42.1972252840293
517,1436472751027,55.0742382896811
518,1436472751776,33.8506822781934
519,1436472752534,61.5436839441685
520,1436472753264,60.5304865562813
521,1436472754040,54.6186881321397
522,1436472754726,60.4001343520895
523,1436472755502,60.1724218721534
524,1436472756143,67.4041298333364
525,1436472756890,41.0567953308632
526,1436472757620,35.8034281134212
527,1436472758318,51.9149482585803
528,1436472758980,49.3527893980972
529,1436472759707,64.4798296666774
530,1436472760457,61.5761105504326
531,1436472761145,45.2938059905266
532,1436472761878,72.4458512818697
533,1436472762615,48.1250309907263
534,1436472763351,25.0794590064251
535,1436472764077,32.6319328080609
536,1436472764818,45.4660922292402
537,1436472765574,46.7499030532679
538,1436472766334,52.515997331817
539,1436472767073,15.4923794915916
540,1436472767820,30.0585453872224
541,1436472768589,15.4294053995256
542,1436472769332,60.859684502233
543,1436472770067,49.8080466267243
544,1436472770805,51.6831431522915
545,1436472771578,18.5623593126121
546,1436472772313,22.2309922830236
547,1436472773056,40.6415243740992
548,1436472773802,17.5933173598353
549,1436472774525,7.92072664182704
550,1436472775235,40.0996374105275
551,1436472775973,16.2621167976194
552,1436472776698,17.929780613344
553,1436472777473,41.1212948091114
554,1436472778227,35.261381657722
555,1436472778946,31.3195114175627
556,1436472779690,9.40445234855691
557,1436472780533,5.11321250604411
558,1436472781259,61.6906277291484
559,1436472781974,63.4446522382714
560,1436472782710,8.34786384708841
561,1436472783474,1.75626679861462
562,1436472784212,1.7451238982563
563,1436472784912,47.7713545858546
564,1436472785640,42.4030686538847
565,1436472786376,56.4916090585431
566,1436472787100,49.135322263988
567,1436472787859,15.1661319277781
568,1436472788614,9.51828922661192
569,1436472789357,34.3142633232367
570,1436472790089,18.9962151429671
571,1436472790831,12.4025830239305
572,1436472791577,12.8660767740446
573,1436472792336,20.0457905922423
574,1436472793050,1.99096737434733
575,1436472794554,5.16601442936827
576,1436472795195,48.2644968904036
