id,attr_time,attr_db
1,1436472360484,40.4597242118952
2,1436472361203,39.3368628007153
3,1436472361926,42.6679288108293
4,1436472362768,24.6634791441587
5,1436472363494,19.7644676091755
6,1436472364203,14.9112266606996
7,1436472364911,10.0154588244507
8,1436472365663,32.110985724702
9,1436472366383,20.0819770238927
10,1436472367118,33.0499262186575
11,1436472367918,31.0098823909298
12,1436472368687,33.2423845475306
13,1436472369411,44.459258148096
14,1436472370130,53.7282742090937
15,1436472370857,25.9303957865979
16,1436472371545,47.8048889741672
17,1436472372286,36.7501236430014
18,1436472373027,61.6004512030309
19,1436472373798,47.2482078350277
20,1436472374552,50.5831511367004
21,1436472375277,56.9065144480821
22,1436472375897,47.7357622946893
23,1436472376617,32.0704907986507
24,1436472377347,59.8762091153862
25,1436472378084,46.7674191742078
26,1436472378828,38.7538376828384
27,1436472379589,48.4452042571597
28,1436472380307,57.2849175468379
29,1436472381050,45.2778845128276
30,1436472381795,51.3611375350652
31,1436472382512,45.7199816925995
32,1436472383252,36.0295550228444
33,1436472383992,41.9243135895073
34,1436472384754,34.279919524003
35,1436472385481,41.3906298317548
36,1436472386199,45.978880329177
37,1436472386930,35.9634799639233
38,1436472387702,25.1857594077991
39,1436472388397,26.7974759281024
40,1436472389080,46.4086017413733
41,1436472389799,45.8737323176586
42,1436472390536,21.4730001910921
43,1436472391260,15.7349967996749
44,1436472392003,19.3426784238948
45,1436472392753,31.9660888390863
46,1436472393477,25.8690755377739
47,1436472394202,35.166985248453
48,1436472394933,39.1368438259051
49,1436472395678,47.4800569366037
50,1436472396345,55.1735648201177
51,1436472397102,48.3692555791188
52,1436472397825,41.5262067344813
53,1436472398613,41.3910035153711
54,1436472399357,29.5186714121714
55,1436472400098,8.04717637677012
56,1436472400826,47.413476541959
57,1436472401549,26.1725696634751
58,1436472402259,45.6425054998546
59,1436472402991,37.2725602974521
60,1436472403783,16.6953689948983
61,1436472404504,50.2860797610681
62,1436472405250,61.5840330051665
63,1436472405966,48.2577163395875
64,1436472406747,44.8711725898287
65,1436472407487,40.7345992820376
66,1436472408263,32.2315004028318
67,1436472409003,19.1474501901141
68,1436472409742,45.0672853852753
69,1436472410453,40.7804862162248
70,1436472411199,59.202437692481
71,1436472411920,40.5358075425481
72,1436472412670,9.12595285406072
73,1436472413394,57.6431996344198
74,1436472414115,55.5205986906705
75,1436472414853,48.867393878514
76,1436472415578,59.0647178094612
77,1436472416312,36.2513224980039
78,1436472417055,40.3491900917388
79,1436472417772,14.5924151623024
80,1436472418456,33.5874119604436
81,1436472419118,38.2370779067063
82,1436472419757,32.6709238682227
83,1436472420367,34.9405271414431
84,1436472421071,36.9365470965032
85,1436472421807,48.8954994571973
86,1436472422550,57.0047301241009
87,1436472423276,58.4745464116081
88,1436472424026,58.5153033050333
89,1436472424783,50.0187916513881
90,1436472425514,56.2721580238912
91,1436472426242,57.6634366305958
92,1436472426967,48.4717261487598
93,1436472427727,2.67065732055467
94,1436472428440,45.8134175379133
95,1436472429187,46.4070831114503
96,1436472429906,32.9818723134926
97,1436472430650,38.9769948152503
98,1436472431353,1.09587600088005
99,1436472432090,5.41801183717884
100,1436472432841,31.1928993793043
101,1436472433586,44.2263377137383
102,1436472434304,43.1484696585705
103,1436472435039,2.47924610093217
104,1436472435760,2.2799217420635
105,1436472436372,48.9330328661099
106,1436472437099,54.5160061247878
107,1436472437840,45.9192065385772
108,1436472438574,46.718005517266
109,1436472439308,41.3880584923325
110,1436472440036,58.7184264996937
111,1436472440706,50.2315369767292
112,1436472441414,50.7911216443531
113,1436472442129,44.2648839753382
114,1436472442850,44.7939821164015
115,1436472443608,25.0595380794932
116,1436472444324,45.8002192471854
117,1436472445067,39.1804761173125
118,1436472445829,23.0968312279265
119,1436472446571,17.5811739318782
120,1436472447302,36.9143377240293
121,1436472448043,40.152009185482
122,1436472448774,41.0187620618924
123,1436472449497,57.1848418262149
124,1436472450215,57.3761906183624
125,1436472450958,49.7099755503884
126,1436472451709,50.7486916902466
127,1436472452436,43.3797547498778
128,1436472453145,61.0662095311182
129,1436472453837,5.96609760877475
130,1436472454566,49.7281610395055
131,1436472455297,60.5124119557772
132,1436472456044,52.7257882410114
133,1436472456794,48.8517859858242
134,1436472457533,47.1596796120743
135,1436472458246,36.467660672571
136,1436472458962,44.8827395766044
137,1436472459710,52.7602142132648
138,1436472460449,43.1536684940098
139,1436472461157,54.4270824059892
140,1436472461883,44.6039081200385
141,1436472462623,35.9141750240551
142,1436472463371,30.1428329646353
143,1436472464122,45.2330043552887
144,1436472464847,36.5734227583258
145,1436472465584,1.55194285381829
146,1436472466304,5.26495255260833
147,1436472467050,41.9909171885046
148,1436472467797,34.7272558603982
149,1436472469264,1.03081285292561
150,1436472470022,1.03081285292561
151,1436472471498,22.7300586443401
152,1436472472218,1.37829477431406
153,1436472472928,0.851715999867079
154,1436472474485,39.2567965289295
155,1436472475313,2.88589391766358
156,1436472475960,33.0759679497292
157,1436472476653,11.2390612818463
158,1436472477322,10.6615663079852
159,1436472478699,33.7991205783331
160,1436472479500,45.5414238483444
161,1436472480203,21.1363223303864
162,1436472480852,54.471229164524
163,1436472481581,45.2684538388417
164,1436472482286,10.3240160997731
165,1436472483103,59.4450366821635
166,1436472483800,55.9790903526419
167,1436472485134,57.7021777048466
168,1436472485811,44.9466115047544
169,1436472486537,46.6730253870513
170,1436472487272,45.4196817241422
171,1436472488030,47.4321034749376
172,1436472488844,43.7318457363646
173,1436472489579,45.2501933443941
174,1436472490947,34.9881089737616
175,1436472492457,48.3589929834005
176,1436472493180,48.054556415002
177,1436472493914,42.2555253448315
178,1436472494679,47.1855218602169
179,1436472495386,32.69497236096
180,1436472497049,51.9347175039359
181,1436472497803,17.1173575972719
182,1436472498533,49.3274852034666
183,1436472499251,47.8617614086319
184,1436472499982,40.4033042135538
185,1436472500727,53.6500484454113
186,1436472501396,33.6997592258201
187,1436472502118,27.1112368066849
188,1436472502849,36.3935646779405
189,1436472503580,48.0410174950488
190,1436472504300,34.9168995057553
191,1436472505080,23.5049283787492
192,1436472505858,25.7849663235156
193,1436472506554,11.4883877585324
194,1436472507279,58.5131846067024
195,1436472508013,45.1699371805543
196,1436472508769,59.931219816447
197,1436472509550,54.7727989808171
198,1436472510258,44.8298249243876
199,1436472510990,50.8838259422054
200,1436472511730,43.8985972171223
201,1436472512452,59.7646665644144
202,1436472513177,58.44100347748
203,1436472513918,58.2061873174289
204,1436472514669,59.716156140258
205,1436472515399,60.8146936971052
206,1436472516100,67.3827848268072
207,1436472516727,39.365934509231
208,1436472517414,21.4437334452895
209,1436472518140,43.763870339922
210,1436472518854,39.9201946063197
211,1436472519619,53.5618504413029
212,1436472520345,52.5778655644434
213,1436472521030,53.2411755911885
214,1436472521786,43.8128542012776
215,1436472522511,50.3365098226014
216,1436472523247,62.4974931304173
217,1436472523990,44.3432776893547
218,1436472524787,51.1706224413563
219,1436472525516,15.4009569805308
220,1436472526250,23.1489422796429
221,1436472526990,40.5341352272071
222,1436472527732,57.729715356614
223,1436472528437,55.5416855702159
224,1436472529211,61.5402629299097
225,1436472529947,47.3142575299717
226,1436472530644,31.3724095452634
227,1436472531384,46.6565352783118
228,1436472532117,43.1791969342417
229,1436472532861,36.3400962385021
230,1436472533603,40.4189145585728
231,1436472534312,10.9349232302733
232,1436472535035,43.0350945542215
233,1436472535758,60.3498970473968
234,1436472536518,41.2318115123171
235,1436472537204,59.7313884336345
236,1436472537928,62.5143686477313
237,1436472538727,4.28361587327848
238,1436472539462,42.9029007829975
239,1436472540180,4.54254402983749
240,1436472540890,12.8060750849474
241,1436472541625,25.1069783651215
242,1436472542353,39.2962463374024
243,1436472543097,10.3514585040066
244,1436472543960,47.1640800741856
245,1436472544629,35.4557134119169
246,1436472545352,19.3546363604909
247,1436472546084,27.4878416756192
248,1436472546835,3.53598132085184
249,1436472547586,24.3381040665954
250,1436472548331,48.1096352039922
251,1436472549071,44.5121013520552
252,1436472549829,42.8226285003856
253,1436472550571,25.5920919464379
254,1436472551304,5.50316830002967
255,1436472552045,46.1328351182378
256,1436472552797,7.31757505662674
257,1436472553544,42.9453771477801
258,1436472554283,14.3090600353034
259,1436472555044,6.81977531520893
260,1436472555777,48.9983317477648
261,1436472556503,60.192092511413
262,1436472557234,49.6518426642288
263,1436472557957,45.2346212830991
264,1436472558685,17.8200989244161
265,1436472559393,2.99429956366193
266,1436472560131,2.6144377738781
267,1436472560846,12.6648162227493
268,1436472561532,27.8438366951832
269,1436472562251,50.7705490314011
270,1436472562990,43.5525849276452
271,1436472563744,48.362644699109
272,1436472564473,42.1451447592316
273,1436472565208,48.8873820134117
274,1436472565927,2.55719941426998
275,1436472566636,27.3140888333362
276,1436472567324,30.8895676065351
277,1436472568054,37.4776338862391
278,1436472568810,40.5234002978402
279,1436472569529,7.59056703095959
280,1436472570266,29.0707451110631
281,1436472571000,5.44636763800223
282,1436472571743,20.5907910695925
283,1436472572474,0.312561735112722
284,1436472573190,2.44243433863976
285,1436472573935,1.97074410645008
286,1436472574687,1.82098367859908
287,1436472575404,28.4778372404066
288,1436472576142,14.8311160865875
289,1436472576856,2.09138340184834
290,1436472577594,17.4786098104872
291,1436472578308,58.2832104284035
292,1436472579092,57.9390324324766
293,1436472579838,45.235690456318
294,1436472580558,1.87476644881471
295,1436472581279,50.8469703150324
296,1436472582023,55.1930160689119
297,1436472582784,35.8177961793794
298,1436472583572,1.52728452742625
299,1436472584294,32.5315484356838
300,1436472585037,32.8456986824303
301,1436472585792,0.607026871526848
302,1436472586530,52.2290740751302
303,1436472587225,6.16022793389599
304,1436472587909,40.5259207637857
305,1436472588664,13.3339186412878
306,1436472589407,63.6347470094525
307,1436472590153,58.4354709921417
308,1436472590908,1.35136176160862
309,1436472591651,41.1161842179961
310,1436472592348,44.0271155070719
311,1436472593091,42.6008319482713
312,1436472593829,46.0257723255659
313,1436472594567,44.6402361556342
314,1436472595311,46.4215888076864
315,1436472596022,57.1554610231268
316,1436472596745,34.4772075916271
317,1436472597434,50.0959087235497
318,1436472598168,53.0351180351314
319,1436472598898,38.7924966894769
320,1436472599626,39.250115145772
321,1436472600344,38.4752693328933
322,1436472601044,60.3104660469232
323,1436472601719,40.9024882078573
324,1436472602442,63.7828968793704
325,1436472603154,58.6635935474237
326,1436472603914,53.0679772029968
327,1436472604673,45.1642117510805
328,1436472605407,54.570199156682
329,1436472606131,56.9866280220861
330,1436472606844,56.7667582156445
331,1436472607610,42.6021531789581
332,1436472608335,49.3231507479417
333,1436472609071,45.8095669394923
334,1436472609788,34.8068375921176
335,1436472610509,42.3491250842625
336,1436472611226,44.5511209805662
337,1436472611958,46.6095788771964
338,1436472612734,14.6912697224634
339,1436472613454,47.5673963599418
340,1436472614164,52.830689226962
341,1436472614887,21.2216468922169
342,1436472615636,54.1649988628544
343,1436472616364,54.0215711869389
344,1436472617100,45.0617059433414
345,1436472617713,46.6247925206993
346,1436472618397,15.8186321765882
347,1436472619075,60.3539199854915
348,1436472619752,14.7199817246601
349,1436472620457,48.3094356033879
350,1436472621142,52.4143913751837
351,1436472621818,55.6065642370253
352,1436472622545,62.6625392259663
353,1436472623269,62.8582208409206
354,1436472624023,53.0761252092739
355,1436472624765,48.7745464739307
356,1436472625532,59.4948796806576
357,1436472626274,46.7352641553807
358,1436472627057,44.4481450957994
359,1436472627808,0.685632744095496
360,1436472628547,41.9584841345322
361,1436472629286,44.6729940203438
362,1436472630022,34.646696900072
363,1436472630792,19.9513860005375
364,1436472631528,50.2838598905246
365,1436472632242,45.4852088714161
366,1436472632964,4.5729559138022
367,1436472633733,40.6253516083108
368,1436472634509,37.0041822703199
369,1436472635207,12.8465038407014
370,1436472635948,47.896449303785
371,1436472636703,12.7699035316313
372,1436472637432,2.23152664267907
373,1436472638110,50.4338112339258
374,1436472638880,43.4743092916523
375,1436472639610,6.27781214159976
376,1436472640339,57.5763225954991
377,1436472641083,47.804878579402
378,1436472641812,15.2693184856328
379,1436472642479,31.7694087160426
380,1436472643213,36.6640173003739
381,1436472643953,50.4716974278207
382,1436472644720,48.1650940645935
383,1436472645434,63.0156205635652
384,1436472646186,37.7616141556281
385,1436472646917,68.0739711619512
386,1436472647668,52.2724029330207
387,1436472648386,58.3148029826025
388,1436472649124,51.7683277098132
389,1436472649851,58.7399088871351
390,1436472650621,57.1801869463632
391,1436472651356,64.2925621825058
392,1436472652099,66.6940979430058
393,1436472652816,59.8542660401097
394,1436472653552,59.2421282752785
395,1436472654263,64.0046220466551
396,1436472654999,56.9346381203823
397,1436472655763,57.9927574528038
398,1436472656496,59.5469991207366
399,1436472657224,22.9608743989613
400,1436472657895,0.891835653819054
401,1436472658567,45.5311057952229
402,1436472659302,47.4139591341872
403,1436472660040,51.9147008223726
404,1436472660819,45.919537619107
405,1436472661557,46.5741544851479
406,1436472662241,48.5761671377006
407,1436472662962,42.5003233167704
408,1436472663728,2.48511692889347
409,1436472664455,7.39174580682958
410,1436472665160,4.14824020720407
411,1436472665859,55.1440982626229
412,1436472666590,52.909262177132
413,1436472667317,25.1075005205438
414,1436472668076,39.087710220279
415,1436472668853,8.1778828993015
416,1436472669589,39.901074815975
417,1436472670326,31.8666374831153
418,1436472671074,8.96877393446673
419,1436472671819,30.9987956081831
420,1436472672568,26.6903174540265
421,1436472673346,42.9809482792427
422,1436472674088,13.529837121469
423,1436472674834,1.73166783105997
424,1436472675566,51.5349249237477
425,1436472676302,41.0506436598002
426,1436472677031,51.1091588058174
427,1436472677787,45.8074673770351
428,1436472678429,50.3549863019463
429,1436472679116,32.781956074626
430,1436472679839,53.7276284311619
431,1436472680576,49.7025614223862
432,1436472681284,55.3144542957731
433,1436472683033,10.1306851823039
434,1436472683777,6.93482189299076
435,1436472684490,46.1341605425584
436,1436472685223,48.9023298028037
437,1436472685959,44.6166625542892
438,1436472686719,43.3127482344531
439,1436472687437,42.6079791065922
440,1436472688191,12.1385115826639
441,1436472688953,35.8486536671461
442,1436472689717,20.2852473459954
443,1436472690450,62.0850672204375
444,1436472691170,49.2150090967079
445,1436472691882,43.4085923682223
446,1436472693843,13.5325353985076
447,1436472694549,15.0578069745531
448,1436472695248,43.048969234267
449,1436472695964,38.726151190507
450,1436472696734,41.2351459395258
451,1436472697445,11.0247049116113
452,1436472698208,48.7107927884927
453,1436472698923,38.1847319171649
454,1436472699683,44.3017885226887
455,1436472700432,35.0602661182544
456,1436472701164,52.6964550232869
457,1436472701871,53.0041889703718
458,1436472702543,47.8928506754987
459,1436472703265,39.3304167308027
460,1436472704018,44.7021041857084
461,1436472704772,41.2286539665141
462,1436472705504,44.4272684736175
463,1436472706253,50.2895354881201
464,1436472706933,41.6333347959029
465,1436472708526,42.4221312743656
466,1436472709264,55.6941136465394
467,1436472710000,41.7420756828756
468,1436472710708,14.8357935380792
469,1436472711353,4.05908549572405
470,1436472712075,55.1524003599104
471,1436472712785,25.6649485757368
472,1436472713547,3.5682775806356
473,1436472714263,0.218455834760329
474,1436472714971,36.7063787850615
475,1436472715676,44.1443726704486
476,1436472717125,22.6218205959444
477,1436472717714,45.0420570637059
478,1436472718309,45.5407411898425
479,1436472718976,47.5873314936049
480,1436472719742,44.9080700921823
481,1436472720454,23.1416986773267
482,1436472721185,33.5942708453084
483,1436472721892,33.5784921789297
484,1436472722553,9.21966712236798
485,1436472723268,1.52728452742625
486,1436472724042,5.16601442936827
487,1436472725513,23.5675401350274
488,1436472726262,48.8869517986676
489,1436472726974,39.0447426715155
490,1436472727759,39.4448944086292
491,1436472728472,27.2555262861054
492,1436472729251,54.4956755478217
493,1436472729974,11.8525545566476
494,1436472730727,40.4377289496953
495,1436472731448,43.6509349243796
496,1436472732152,67.2803017797534
497,1436472732890,49.1045367129331
498,1436472733634,43.46710984531
499,1436472734388,44.5226503341147
500,1436472735077,41.1888509688121
501,1436472735819,9.72768849045577
502,1436472736564,23.3115173476465
503,1436472737302,4.17979583291807
504,1436472737991,7.67850178388503
505,1436472738590,29.9391150297341
506,1436472739269,26.4988941915181
507,1436472739980,30.2867094463071
508,1436472740725,30.8922684992996
509,1436472741446,57.0545578167264
510,1436472742153,59.8310791339106
511,1436472742820,51.7159908739367
512,1436472743556,56.8311994881272
513,1436472744318,52.2234865978792
514,1436472745043,56.0854893757791
515,1436472745784,58.9607319446475
516,1436472746528,53.9147403952592
517,1436472747250,39.8124688137663
518,1436472747975,36.7810264214493
519,1436472748760,54.2812444630542
520,1436472749456,12.1934158507309
521,1436472750174,51.6473352279906
522,1436472750917,48.0123441660889
523,1436472751668,28.3224888355397
524,1436472752379,57.6448125180832
525,1436472753109,43.9623148456261
526,1436472753824,50.5709883073069
527,1436472754551,56.6936498349701
528,1436472755265,58.2587641813555
529,1436472755959,60.8336147551232
530,1436472756724,60.9460731629114
531,1436472757425,57.0149361506921
532,1436472758114,35.9885734654663
533,1436472758768,24.0465057900839
534,1436472759465,42.3524969303312
535,1436472760194,44.9424097458334
536,1436472760932,52.6955836167324
537,1436472761679,51.9054042501119
538,1436472762365,36.643156468017
539,1436472763049,65.7171996380431
540,1436472763809,51.4524456565025
541,1436472764548,29.4419781162884
542,1436472765276,31.0118169971019
543,1436472766006,48.0824769050544
544,1436472766752,45.0016512290272
545,1436472767474,51.6614079697861
546,1436472768178,14.7153130848995
547,1436472768899,2.73181644716007
548,1436472769661,40.1313887509369
549,1436472770372,0.756787299377847
550,1436472771105,57.6724619488081
551,1436472771833,42.7299645401576
552,1436472772565,22.5574670800883
553,1436472773264,24.5701829802125
554,1436472774006,39.1088398992902
555,1436472774766,8.98251960854618
556,1436472775521,10.5383011620537
557,1436472776246,10.7036374051705
558,1436472776971,0.746004070633405
559,1436472777758,29.7553185747658
560,1436472778577,39.2241976575432
561,1436472779285,45.7420659433997
562,1436472780046,47.3032012823628
563,1436472780784,6.28038440478227
564,1436472781507,27.5297255530912
565,1436472782221,1.87476644881471
566,1436472782897,31.3611870337199
567,1436472783585,7.8858994514699
568,1436472784382,7.74250392852048
569,1436472784978,27.5412195517229
570,1436472785676,22.638796195216
571,1436472786421,46.0051533182885
572,1436472787142,49.9305786663362
573,1436472787857,34.0306366020113
574,1436472788617,16.016703060149
575,1436472789338,30.5557766957798
