id,attr_time,attr_db
1,1436465583650,12.7531202768883
2,1436465584369,12.9304786260906
3,1436465585047,35.2575474974437
4,1436465585799,20.8544811983108
5,1436465586525,53.3626977451733
6,1436465587311,52.0932037584454
7,1436465588013,49.6493055984293
8,1436465588697,61.4551834717381
9,1436465589412,69.0956808580205
10,1436465590941,59.5720067838109
11,1436465591621,64.7199019269194
12,1436465592330,59.2212628253324
13,1436465593055,58.2896912477076
14,1436465593779,58.7034955923707
15,1436465594933,66.0830240633943
16,1436465595559,64.7376161145673
17,1436465596282,58.5823318309814
18,1436465596997,61.3621966372278
19,1436465597658,59.279276513196
20,1436465599027,67.71492374948
21,1436465599784,70.8605117727179
22,1436465600508,65.7014247038405
23,1436465601215,60.5799255674267
24,1436465601929,53.6752604853078
25,1436465602655,61.2432294402526
26,1436465603315,50.8057850350357
27,1436465604752,59.6918939151928
28,1436465605453,56.9690661496617
29,1436465606128,70.4070940715948
30,1436465606846,65.0596870883927
31,1436465607569,67.8441143597305
32,1436465608225,55.1351243390617
33,1436465610202,63.1193975416348
34,1436465610940,61.332323941615
35,1436465611669,60.2781586991905
36,1436465612360,75.2252385797889
37,1436465612996,59.1752677636816
38,1436465613698,65.0203048938365
39,1436465614446,68.3537688764552
40,1436465615174,62.2983873582879
41,1436465615899,62.2957042554491
42,1436465616667,74.9331209355821
43,1436465617405,61.5666396733234
44,1436465618156,66.8161948796132
45,1436465618899,70.4827728307138
46,1436465619614,69.6668220137751
47,1436465620340,61.9335361622184
48,1436465621076,74.2046281571592
49,1436465621796,61.2189803527483
50,1436465622506,59.9139284384786
51,1436465623142,66.2660909149863
52,1436465623853,59.403714402864
53,1436465624605,59.1617823028106
54,1436465625337,52.7510215056964
55,1436465626051,65.4410613800846
56,1436465626779,57.0170383380354
57,1436465627489,68.2100331971726
58,1436465628184,63.6001353692794
59,1436465628821,60.7884361040591
60,1436465629564,53.984659828111
61,1436465630302,59.8613797305891
62,1436465631053,58.5014139056717
63,1436465631777,60.7791362753418
64,1436465632497,65.2794719836439
65,1436465633233,65.140550757338
66,1436465633987,63.0455694934181
67,1436465634718,70.2179058910241
68,1436465635485,66.3869031792502
69,1436465636239,68.3658339692732
70,1436465636986,65.2537163144828
71,1436465637714,67.8425760952897
72,1436465638425,62.2721350527322
73,1436465639183,63.8920930918043
74,1436465639914,61.3830461918639
75,1436465640669,59.8733370992491
76,1436465641416,68.6207776664333
77,1436465642151,53.7848378534506
78,1436465642823,60.0979283176987
79,1436465643516,68.8543365335161
80,1436465644250,69.6055056943978
81,1436465645017,70.4272850420625
82,1436465645738,69.1434179160491
83,1436465646424,54.8567609383748
84,1436465647143,65.3848518184293
85,1436465647806,64.3183381804864
86,1436465648462,58.6798597655992
87,1436465649185,56.4073930876555
88,1436465649925,62.9265841640028
89,1436465650700,51.2152821120479
90,1436465651474,60.8377117482042
91,1436465652200,70.4716312165695
92,1436465652925,66.4126015100055
93,1436465653630,66.4536301114861
94,1436465654375,61.9485363700677
95,1436465655104,59.6394486183105
96,1436465655811,65.2814420871971
97,1436465656561,59.32883226804
98,1436465657277,49.8809071170937
99,1436465657993,57.9095301615507
100,1436465658739,64.0241415110557
101,1436465659462,62.6448352742017
102,1436465660169,61.8002740557295
103,1436465660906,58.4215251345964
104,1436465661594,61.7106909111521
105,1436465662328,58.387105235829
106,1436465663115,61.1708679713595
107,1436465663796,55.6462493083649
108,1436465664517,58.9405577743864
109,1436465665237,60.881471731708
110,1436465665974,65.7931525305563
111,1436465666732,64.3974499279401
112,1436465667477,72.1377911178121
113,1436465668275,70.4225208881877
114,1436465668941,63.6638696632518
115,1436465669695,66.8605268937679
116,1436465670458,64.6966693577425
117,1436465671221,68.4953002980914
118,1436465671955,59.7215268462762
119,1436465672692,55.979328962912
120,1436465673440,60.0462823244934
121,1436465674181,56.091957430471
122,1436465674934,71.5986039955695
123,1436465675740,62.9629984583498
124,1436465676445,74.7789135237982
125,1436465677155,67.8686913867276
126,1436465677860,58.2772058112927
127,1436465678542,53.7992012827364
128,1436465679213,61.4704874471601
129,1436465679958,61.9002724030594
130,1436465680701,62.8198212225051
131,1436465681436,63.112385149045
132,1436465682132,59.3000482757601
133,1436465682933,63.0622824142925
134,1436465683602,57.9286730213599
135,1436465684269,51.7745702490175
136,1436465685019,54.8467902138935
137,1436465685807,56.4281336919407
138,1436465686535,54.3867451051616
139,1436465687274,56.93998079201
140,1436465688020,54.7083964290186
141,1436465688672,64.3970475782871
142,1436465689370,56.3213776319731
143,1436465690098,54.0547745681203
144,1436465690863,54.0327017629313
145,1436465691618,56.5496585634701
146,1436465692336,53.241048230058
147,1436465693080,55.8855254906992
148,1436465693804,57.0434131542259
149,1436465694554,57.6326100938201
150,1436465695275,52.6504861166492
151,1436465696005,56.0576761270787
152,1436465696732,61.4693041261421
153,1436465697467,54.8256224837864
154,1436465698240,64.6364874390983
155,1436465698940,61.4821643894834
156,1436465699610,48.9520010300935
157,1436465700357,56.1176878116073
158,1436465701102,76.1642366200645
159,1436465701841,72.6053544052532
160,1436465702559,74.0784415734539
161,1436465703289,51.3879109797111
162,1436465704024,59.6055395378261
163,1436465704802,56.3365058192449
164,1436465705511,49.0456405236537
165,1436465706268,54.1324794181275
166,1436465706997,59.0279528690178
167,1436465707713,59.1240974446767
168,1436465708442,66.5038772618438
169,1436465709080,57.2534798819784
170,1436465709755,56.2189169723146
171,1436465710503,63.9424913948382
172,1436465711229,57.1967189085799
173,1436465711969,57.3540051781079
174,1436465712714,60.1117493228907
175,1436465713451,64.6500596136512
176,1436465714178,58.9881267185088
177,1436465714880,60.1850149888419
178,1436465715548,57.9689760912237
179,1436465716310,54.6399272404181
180,1436465717032,56.4646161474842
181,1436465717763,56.4747563917832
182,1436465718519,52.2503467286855
183,1436465719264,62.5238793460562
184,1436465720005,57.6152901636111
185,1436465720717,55.3072833744897
186,1436465721411,54.1584486662549
187,1436465722098,64.8096717621282
188,1436465722831,66.1656767576313
189,1436465723593,62.236740346438
190,1436465724317,64.2007068892007
191,1436465725039,56.0388744681779
192,1436465725761,58.7555488471663
193,1436465726503,56.9714531795764
194,1436465727163,59.489510639037
195,1436465727893,59.3338223095762
196,1436465728692,56.4293643206658
197,1436465729367,60.7501615668894
198,1436465730105,56.3419166398642
199,1436465730848,55.8411355720003
200,1436465731575,53.9551675974381
201,1436465732302,53.7037869798295
202,1436465732957,49.2304306568573
203,1436465733666,54.760130279593
204,1436465734406,54.3090585822545
205,1436465735147,54.8044498797817
206,1436465735872,52.2098777137433
207,1436465736620,58.4171493640016
208,1436465737352,59.1040938049569
209,1436465738095,54.627452179061
210,1436465738832,55.9066917062477
211,1436465739555,58.5956347381071
212,1436465740250,68.8591147954949
213,1436465740930,59.4327859576716
214,1436465741658,60.8326444165383
215,1436465742378,57.538082634659
216,1436465743084,60.5857392594539
217,1436465743762,59.1402281754831
218,1436465744468,49.4450316301891
219,1436465745213,55.9763092288623
220,1436465745975,61.7391358444237
221,1436465746696,45.4831034117784
222,1436465747457,58.751539703754
223,1436465748194,50.8429333021307
224,1436465748935,60.2380125846364
225,1436465749597,52.3464353781338
226,1436465750379,62.2308404004765
227,1436465751119,60.8204120531413
228,1436465751862,56.13051661548
229,1436465752597,60.6742545663236
230,1436465753314,57.3833240483918
231,1436465754002,62.0487701911053
232,1436465754653,60.3663404780986
233,1436465755342,75.6990416292366
234,1436465756070,71.6463097065715
235,1436465756789,54.4637975123438
236,1436465757522,56.6342675918009
237,1436465758251,54.5269485953444
238,1436465758988,59.2719004637213
239,1436465759854,61.1960943301568
240,1436465760588,62.6478193063445
241,1436465761364,52.9343146471348
242,1436465762105,57.3688655445265
243,1436465762833,54.721740629788
244,1436465763566,54.073508434537
245,1436465764309,56.0243394907056
246,1436465765008,57.4145572099406
247,1436465765642,50.5928463540463
248,1436465766365,52.9148643626361
249,1436465767101,62.6583472482302
250,1436465767816,61.8717464859843
251,1436465768579,65.2431868225669
252,1436465769260,64.1629614497604
253,1436465769940,60.0401144509337
254,1436465770665,59.2118609591401
255,1436465771276,59.5240448888383
256,1436465771966,61.4552292574222
257,1436465772702,59.7583097122231
258,1436465773435,61.5902655833221
259,1436465774168,59.9530132854694
260,1436465774894,58.6957320110689
261,1436465775636,57.2640280240775
262,1436465776374,55.885741696287
263,1436465777094,59.3644318047344
264,1436465777749,50.4235300143309
265,1436465778485,53.2935516726671
266,1436465779205,55.9383675977861
267,1436465779944,53.4652968463592
268,1436465780673,56.9261350051988
269,1436465781409,53.159530039615
270,1436465782129,59.7538056711328
271,1436465782826,57.6895678279891
272,1436465783500,59.1607597621629
273,1436465784223,62.7148802473398
274,1436465784960,61.0004227058439
275,1436465785696,61.7444249724808
276,1436465786433,61.1073599834177
277,1436465787138,62.2538391832194
278,1436465787819,65.9385649635725
279,1436465788533,65.8765682903488
280,1436465789276,67.6899145718832
281,1436465789999,58.8566875301168
282,1436465790719,68.8309481440845
283,1436465791454,61.0757976945111
284,1436465792190,65.6975454155048
285,1436465792922,61.5197336723851
286,1436465793614,64.4604312910311
287,1436465795174,61.8270155805045
288,1436465795912,67.0846664217914
289,1436465796652,62.8235250748003
290,1436465797388,62.4344137132372
291,1436465798111,67.1269326708498
292,1436465798772,59.5535904745697
293,1436465799503,60.7632879554145
294,1436465800216,57.3155940919817
295,1436465800972,57.2691898840903
296,1436465801708,59.1243838651499
297,1436465802437,57.4441818790633
298,1436465803176,54.2535933007534
299,1436465803926,59.9083896819152
300,1436465804654,56.7784744324209
301,1436465805394,58.1013966888463
302,1436465807350,55.88193121205
303,1436465808023,55.1668657559173
304,1436465808753,70.2895610666042
305,1436465809452,64.5992138460829
306,1436465810055,54.7553106226476
307,1436465810782,68.0807763030444
308,1436465811558,50.1121310881016
309,1436465812290,58.8937821715085
310,1436465813027,59.9217869990533
311,1436465813755,49.4235785623548
312,1436465814434,65.1956342417151
313,1436465815166,55.9289945309368
314,1436465815878,57.5524553804092
315,1436465816630,54.2298995143808
316,1436465817379,62.564955526378
317,1436465818110,62.2278983268692
318,1436465818853,59.4272078642119
319,1436465819567,64.0237599671257
320,1436465821244,62.617039501543
321,1436465821990,61.7852510646304
322,1436465822767,64.3852471176516
323,1436465823514,63.4345959965115
324,1436465824244,68.5724894764817
325,1436465824973,63.0053915639708
326,1436465825818,60.0270708077071
327,1436465826557,57.5135273471019
328,1436465827286,52.4325686808582
329,1436465828025,41.8474855308479
330,1436465828746,32.0322325806032
331,1436465830641,68.024279636405
332,1436465831276,66.1377724035768
333,1436465831957,64.8624299382351
334,1436465832712,64.9522997670104
335,1436465833452,44.7920942687185
336,1436465834122,38.8858457588442
337,1436465834863,52.4424590340449
338,1436465835638,60.9758694531815
339,1436465836345,60.1175831792097
340,1436465837081,43.5569051348633
341,1436465837810,30.5208844814129
342,1436465838495,67.8718636519686
343,1436465839105,39.5480975256445
344,1436465839859,44.3366272699166
345,1436465840609,31.3641246626851
346,1436465841363,27.0127161917152
347,1436465842094,43.5837700626992
348,1436465842806,34.3168504239252
349,1436465843505,54.4641672428107
350,1436465844240,48.8944791940591
351,1436465844989,50.7208302193256
352,1436465845783,35.5646424594044
353,1436465846500,34.149215996286
354,1436465847234,28.0677753865689
355,1436465848002,38.7556875384376
356,1436465848742,44.560774521455
357,1436465849495,34.9715946190244
358,1436465850227,30.9852450262439
359,1436465851022,40.6390139777717
360,1436465851748,24.4544541560115
361,1436465852475,25.8066002654387
362,1436465853205,17.6481242070336
363,1436465853858,39.4230330524409
364,1436465854612,28.7604927266133
365,1436465855355,38.8107441922525
366,1436465856073,27.3546544036147
367,1436465856791,34.5547380159742
368,1436465857555,45.6676748723618
369,1436465858255,53.9591563954679
370,1436465859050,61.1091967915701
371,1436465859764,60.0501976267719
372,1436465860492,60.0280871036076
373,1436465861209,59.7713404014549
374,1436465861921,62.6786051354611
375,1436465862598,61.7474175192607
376,1436465863340,61.9754448787086
377,1436465864027,59.2835104315791
378,1436465864654,61.0652905914582
379,1436465865403,61.7720838948108
380,1436465866123,59.6256052728934
381,1436465866820,57.8617343018962
382,1436465867584,61.870761669686
383,1436465868320,64.8133814086976
384,1436465869051,59.7804851988041
385,1436465869763,63.1473569916285
386,1436465870483,61.6545072420982
387,1436465871240,58.8118275578219
388,1436465871960,59.7251407689972
389,1436465872699,65.8650953450011
390,1436465873440,59.2627099514042
391,1436465874161,60.3763934684119
392,1436465874884,55.8509653627971
393,1436465875519,68.9149732850825
394,1436465876258,67.7390816962865
395,1436465876995,69.0787497149555
396,1436465877725,68.3810151780973
397,1436465878469,69.9035506018977
398,1436465879207,71.0932253447579
399,1436465879910,60.7981447181608
400,1436465880644,65.2220927293636
401,1436465881377,68.3102059146064
402,1436465882130,66.3202446879107
403,1436465882855,68.2980963863706
404,1436465883598,63.74933896541
405,1436465884340,58.2351753285335
406,1436465885084,67.7191200657617
407,1436465885732,61.9872353207115
408,1436465886406,58.3533136837542
409,1436465887149,56.9220305134928
410,1436465887867,66.28951372578
411,1436465888595,56.2320558960717
412,1436465889273,63.3626896920001
413,1436465890003,62.7843149666786
414,1436465890580,58.8189774647829
415,1436465891273,64.5725377786431
416,1436465891947,58.6027601500348
417,1436465892620,65.686739572573
418,1436465893347,63.9046380513869
419,1436465894067,59.6382995102845
420,1436465894736,64.8625670266727
421,1436465895605,59.5654132203504
422,1436465896247,64.7702446816254
423,1436465896981,63.1361564205669
424,1436465897619,59.4998464395483
425,1436465898328,62.3211197846507
426,1436465899033,65.4952696664835
427,1436465899733,66.7851512880477
428,1436465900514,62.5840124140982
429,1436465901346,61.8519163233017
430,1436465902058,63.8060102076515
431,1436465902787,66.3575940004298
432,1436465903545,63.3143464114598
433,1436465904327,56.3650229270318
434,1436465905062,58.9048341060553
435,1436465905740,59.8760668208992
436,1436465906461,62.6164811815077
437,1436465907198,60.9369190992291
438,1436465907968,60.4924515134469
439,1436465908680,58.5680570568052
440,1436465909383,61.7841563139132
441,1436465910089,65.9075946588414
442,1436465910770,61.0268457727393
443,1436465911481,59.515824836317
444,1436465912198,56.437092794496
445,1436465912941,59.4856378633231
446,1436465913702,56.9476190250202
447,1436465914453,55.0523288700536
448,1436465915185,62.8526489443362
449,1436465915874,56.0629966751069
450,1436465916573,63.0028815325084
451,1436465917292,59.0533128148825
452,1436465918010,63.5232924660301
453,1436465918735,59.5605907970626
454,1436465919461,54.2255146897945
455,1436465920127,55.305627406873
456,1436465920872,57.1256627663427
457,1436465921590,65.238182118212
458,1436465922307,62.7571761681228
459,1436465923031,72.3094961387408
460,1436465923767,66.7589220432234
461,1436465924501,65.5487752271051
462,1436465925232,66.6386232020134
463,1436465925970,65.2035699920571
464,1436465926644,60.7034055030499
465,1436465927360,61.8265760390318
466,1436465928082,64.1757160624295
467,1436465928813,61.3069303233049
468,1436465929575,58.560008907545
469,1436465930305,61.2831276393005
470,1436465931046,58.6328634758154
471,1436465931768,58.2049439717064
472,1436465932499,59.5804148521243
473,1436465933242,59.2431549529888
474,1436465933976,60.3214378252593
475,1436465934720,56.5133902516569
476,1436465935403,58.6842649750474
477,1436465936067,66.1992980696783
478,1436465936759,64.4358421007123
479,1436465937477,61.0890990533501
480,1436465938195,53.7750647925176
481,1436465938945,56.3464080910115
482,1436465939681,56.6804032976283
483,1436465940383,57.0375027496408
484,1436465941036,62.8435558430444
485,1436465941736,61.9392265189899
486,1436465942480,60.7934233766611
487,1436465943208,61.6271717463278
488,1436465943909,59.1236529820217
489,1436465944636,62.4847637858543
490,1436465945369,58.9268960708967
491,1436465946092,61.8214158642876
492,1436465946818,60.7607661741184
493,1436465947544,62.1599754932962
494,1436465948262,63.8693297336791
495,1436465949011,62.2294838078301
496,1436465949760,57.4304434055148
497,1436465950468,69.1896947809049
498,1436465951349,57.4856356870004
499,1436465952042,62.9637080293787
500,1436465952790,64.4916155213778
501,1436465953521,62.5844045406705
502,1436465954250,61.4663254176763
503,1436465955019,55.8691062781384
504,1436465955841,60.3992355015855
505,1436465956560,55.6349952526574
506,1436465957209,57.7503287275772
507,1436465957990,57.4427080112448
508,1436465958735,57.6980220505568
509,1436465959478,58.4943219809375
510,1436465960197,54.8732338277269
511,1436465960910,61.0894343743509
512,1436465961629,60.6270202146834
513,1436465962345,57.4428646874165
514,1436465963098,60.6148987589506
515,1436465963867,63.8616030535657
516,1436465964604,61.7110199829172
517,1436465965336,67.5232289970783
518,1436465966028,68.2076168874479
519,1436465966667,54.0342661161359
520,1436465967359,61.9352856327411
521,1436465968122,59.7630982646946
522,1436465968900,57.0444232067141
523,1436465969625,61.5228082252036
524,1436465970359,59.7062919131527
525,1436465971083,61.5018711067956
526,1436465971796,57.8331126103869
527,1436465972416,60.1689919692647
528,1436465973119,68.8112878782808
529,1436465973814,64.5532964822386
530,1436465974484,59.6154216679285
531,1436465975205,57.2020523064799
532,1436465975995,55.9646000889886
533,1436465976739,62.2386417293799
534,1436465977386,55.1701555192625
535,1436465978119,55.6610949882982
536,1436465978884,56.2025642637286
537,1436465979690,58.1164033436961
538,1436465980415,53.9819526897391
539,1436465981223,59.7762444671993
540,1436465981971,52.3642177961956
541,1436465982697,61.9703587074392
542,1436465983433,59.6235972334001
543,1436465984154,54.5744858343664
544,1436465984903,59.0418590054121
545,1436465985637,54.8683794751029
546,1436465986349,61.6462031251623
547,1436465987063,58.5624272892737
548,1436465987796,60.8018786477253
549,1436465988534,60.7922508478712
550,1436465989245,64.0021160650843
551,1436465990013,58.8511778753428
552,1436465990744,62.0759721636004
553,1436465991453,59.3588614292395
554,1436465992126,62.7520405284698
555,1436465992846,67.3041345696082
556,1436465993605,60.4174716661371
557,1436465994256,61.5819494495059
558,1436465994992,63.2956219066218
559,1436465995725,59.582988230918
560,1436465996413,61.0711438648111
561,1436465997140,59.6971032676571
562,1436465997810,64.3423908625183
563,1436465999408,61.0984224070707
564,1436466000139,60.087524397364
565,1436466000876,61.8152570763878
566,1436466001687,63.987957455941
567,1436466002415,66.5641508892227
568,1436466003140,66.3838208092299
569,1436466003876,65.4995871082934
570,1436466004602,64.506626825676
571,1436466005329,60.23606202857
572,1436466006049,56.3317554248173
573,1436466006847,63.3651481345964
574,1436466007525,61.270085320425
575,1436466008190,62.8440442770783
