id,attr_time,attr_db
1,1436465583564,10.4712158290094
2,1436465584290,12.5855339762177
3,1436465585019,11.5974430202248
4,1436465585755,11.6263255681011
5,1436465586512,9.58424378367566
6,1436465587236,27.1876692388334
7,1436465587971,12.5709201134361
8,1436465588700,45.1378173625036
9,1436465589451,61.2231271061705
10,1436465590150,63.0460053126099
11,1436465590812,60.6950730898438
12,1436465591518,65.8751434898249
13,1436465592220,74.072904988528
14,1436465592923,64.8733090752455
15,1436465593636,64.8045153436098
16,1436465594376,63.7932239001723
17,1436465595121,64.5283029378925
18,1436465595859,66.0340486944467
19,1436465596562,53.7071449536189
20,1436465597318,64.9774732615319
21,1436465598001,69.3738377360941
22,1436465598740,62.7596089457571
23,1436465599466,63.4079930804848
24,1436465600218,59.772004301502
25,1436465600938,64.3943558395582
26,1436465601681,61.3951456229737
27,1436465602403,61.277322783927
28,1436465603131,59.8111822977306
29,1436465603858,62.3678714393343
30,1436465604608,59.831746663231
31,1436465605365,62.0368563905372
32,1436465606077,59.1364551533105
33,1436465606803,59.2540870193632
34,1436465607556,62.0709891156356
35,1436465608227,64.8300988101046
36,1436465608954,66.3689754701771
37,1436465609754,62.9345751178436
38,1436465610482,61.0988466691356
39,1436465611185,64.2911034438891
40,1436465611908,67.61690542973
41,1436465612642,68.2600853151832
42,1436465613366,59.339725422757
43,1436465614097,57.6583711336567
44,1436465614912,75.022265021536
45,1436465615670,61.6804151846991
46,1436465616387,59.5924838416289
47,1436465617110,60.7601895306602
48,1436465617823,63.7089150898448
49,1436465618498,60.9303949536335
50,1436465619245,58.6566962045445
51,1436465619908,59.3301922367137
52,1436465620629,64.5228972252506
53,1436465621362,67.6484721122165
54,1436465622091,72.045979869867
55,1436465622801,64.4366153830169
56,1436465623496,64.3377015044984
57,1436465624303,60.0434256803881
58,1436465625083,59.7890881294915
59,1436465625814,72.5468103543719
60,1436465626521,61.155946835897
61,1436465627245,62.786455892401
62,1436465627950,57.9427830230282
63,1436465628562,65.6772349844644
64,1436465629254,63.2356642547635
65,1436465629985,69.9141695201118
66,1436465630756,60.172070228197
67,1436465631488,60.607529411879
68,1436465632232,58.8864034246645
69,1436465632874,64.921044679059
70,1436465633543,56.9875760492732
71,1436465634334,63.2810677757092
72,1436465635059,63.6005813465102
73,1436465635870,62.2436060129435
74,1436465636540,64.1040513016056
75,1436465637266,75.1764091504154
76,1436465637976,70.0155704389401
77,1436465638650,70.6769882838982
78,1436465639374,57.42564845527
79,1436465640123,58.77203770698
80,1436465640849,60.1188157377312
81,1436465641566,61.3681494939393
82,1436465642287,59.0514319388895
83,1436465642994,65.1171804672066
84,1436465643680,72.8707929451756
85,1436465644401,65.5207037979693
86,1436465645114,56.2363544084612
87,1436465645848,62.6553085152037
88,1436465646580,63.1108574845858
89,1436465647312,71.3086662940245
90,1436465648033,70.4438163395346
91,1436465648693,72.6446328276913
92,1436465649430,58.9547154338948
93,1436465650193,58.8329467957764
94,1436465650934,58.0688554948199
95,1436465651671,59.30636920956
96,1436465652428,62.3946692951307
97,1436465653201,60.4342628537955
98,1436465653935,62.879166284636
99,1436465654636,72.3173906181525
100,1436465655350,67.3992960589547
101,1436465656097,65.9213311251346
102,1436465656709,62.1956471640097
103,1436465657351,62.8407969380498
104,1436465658040,66.56721507281
105,1436465658781,68.6306862000084
106,1436465659432,57.9706587413789
107,1436465660180,59.694855243356
108,1436465660900,61.5788771046082
109,1436465661631,60.7718980263871
110,1436465662376,62.3079178370338
111,1436465663136,70.591876667947
112,1436465663847,69.6258624715855
113,1436465664559,66.2297601684531
114,1436465665279,59.2942291580213
115,1436465666017,63.0139384636626
116,1436465666741,60.8480615177212
117,1436465667474,62.1039592513975
118,1436465668202,64.4725664122897
119,1436465668914,62.7523770979097
120,1436465669614,62.3309958056129
121,1436465670274,76.3304854687958
122,1436465671014,66.5163791765329
123,1436465671743,62.1096903474984
124,1436465672473,57.1094797765584
125,1436465673228,55.5006372724611
126,1436465673959,58.1144226071571
127,1436465674671,57.8330982827184
128,1436465675391,57.3807425637184
129,1436465676138,60.0727408619783
130,1436465676833,67.3558888954334
131,1436465677511,64.6887334660559
132,1436465678180,64.8620990253797
133,1436465679663,66.9499415158803
134,1436465680350,65.939513812127
135,1436465681100,62.0418586292647
136,1436465681830,64.1238270437985
137,1436465682554,64.5473394849426
138,1436465683278,65.5872064092593
139,1436465684010,61.9204030519931
140,1436465685759,66.061660840699
141,1436465686433,61.8007386310414
142,1436465687166,62.1493735328464
143,1436465687902,66.4305870894042
144,1436465688623,57.6314590826565
145,1436465689356,63.1049523589564
146,1436465690128,60.4924254245073
147,1436465690708,66.9557570898451
148,1436465692559,58.1181231396822
149,1436465693313,60.7085100703129
150,1436465694031,61.8652140249638
151,1436465694744,65.7230960836144
152,1436465695478,67.3734914411843
153,1436465696163,66.4156427155368
154,1436465697433,52.4003346540363
155,1436465698104,63.4464147706563
156,1436465698824,63.7515837001819
157,1436465699597,67.4571731339979
158,1436465700311,61.6538626077229
159,1436465700975,66.9819050986385
160,1436465701689,60.3777319003987
161,1436465702378,66.9669695170675
162,1436465703061,67.1588464537735
163,1436465703767,66.6584445222696
164,1436465704471,71.6600182942268
165,1436465705194,65.0133498223926
166,1436465705916,59.1564388213622
167,1436465706661,53.392509871972
168,1436465707401,59.5338049966694
169,1436465708128,56.2110453448898
170,1436465708860,45.9517216873558
171,1436465709661,48.3407500909776
172,1436465710373,47.3615007770865
173,1436465711060,47.7915226133024
174,1436465711776,59.3777339681023
175,1436465712534,50.5306924009982
176,1436465713304,66.2000105490825
177,1436465713975,55.723476661082
178,1436465714519,50.2653479401672
179,1436465715071,60.4269110370309
180,1436465715689,64.0379064792134
181,1436465716420,45.3088541231243
182,1436465717098,45.6323037317219
183,1436465717814,51.519198154567
184,1436465718563,52.7250414418774
185,1436465719198,62.9465833015996
186,1436465719771,46.8496693668847
187,1436465720345,55.7172389466023
188,1436465720921,43.393276828337
189,1436465721490,65.515788605448
190,1436465722816,49.7358103278952
191,1436465723449,52.1410784884696
192,1436465724218,53.2566714698047
193,1436465724956,62.9619126865575
194,1436465725684,63.5910565339548
195,1436465726360,64.4545256626812
196,1436465726937,45.3246016823435
197,1436465727472,56.472744018388
198,1436465728031,43.087894513358
199,1436465728633,43.2853708425629
200,1436465729436,45.8156347123205
201,1436465730163,47.7896276722331
202,1436465730876,47.9487174784974
203,1436465731529,40.761367794382
204,1436465732111,66.8485386580064
205,1436465732673,55.0159451222133
206,1436465733227,61.9860204170956
207,1436465735003,50.4269989054366
208,1436465735688,45.9517665779044
209,1436465736410,53.2634790898138
210,1436465737178,53.9396151787485
211,1436465737935,53.9847722373738
212,1436465738515,55.5612633941087
213,1436465739099,43.9645883704922
214,1436465739649,62.0236116949174
215,1436465740216,47.6874285274019
216,1436465740887,61.3562926577156
217,1436465741619,56.0874143834087
218,1436465742374,51.459462014788
219,1436465743053,53.7254489640098
220,1436465743648,44.9759116550871
221,1436465744244,48.4045486620669
222,1436465744837,49.7174332136638
223,1436465745423,55.9814601992005
224,1436465745999,46.40161465409
225,1436465747439,71.280329004936
226,1436465748200,56.3599833803319
227,1436465748889,64.8478090689176
228,1436465749554,60.9277709529497
229,1436465750335,65.0435325538547
230,1436465751051,58.626126368424
231,1436465751800,60.5522581353147
232,1436465752531,63.2024595906261
233,1436465753262,57.8247061796691
234,1436465753974,65.8159841694306
235,1436465754699,64.9674909513888
236,1436465755419,66.6791559660655
237,1436465756085,51.0886947874484
238,1436465756854,63.2102864321612
239,1436465757568,74.8557585901818
240,1436465758291,65.417977637861
241,1436465759008,64.4559552096
242,1436465759653,47.4755456351073
243,1436465760388,56.5696825843211
244,1436465761091,48.6003381278069
245,1436465761815,61.4096227100759
246,1436465762533,69.4812814099714
247,1436465763273,57.4423452832225
248,1436465764033,57.0609181105453
249,1436465764752,56.216823649839
250,1436465765483,60.2305790396524
251,1436465766211,59.9461074868188
252,1436465766888,60.641536838215
253,1436465767644,62.0546052682581
254,1436465768349,52.3533710002997
255,1436465769147,56.7417922934107
256,1436465769860,55.3816231963097
257,1436465770596,52.97551663451
258,1436465771384,59.4068026174869
259,1436465772100,54.1397901092148
260,1436465772823,55.3566398409151
261,1436465773543,50.7958382684986
262,1436465774270,52.3606641670042
263,1436465775015,50.9220920127872
264,1436465775756,52.119783605434
265,1436465776485,55.7275732525912
266,1436465777092,48.0702375083094
267,1436465777780,70.2196516766663
268,1436465778513,69.5983720115863
269,1436465779231,52.4624076893444
270,1436465779948,69.7873307883097
271,1436465780670,62.9494435107586
272,1436465781385,62.3027870199146
273,1436465782151,66.1861052921972
274,1436465782864,67.1583593056619
275,1436465783596,66.2568962954916
276,1436465784312,55.7168380414557
277,1436465785072,51.2978326639658
278,1436465785800,61.607998430176
279,1436465786510,52.8167275153142
280,1436465787228,53.9443647411723
281,1436465787996,52.9565926461169
282,1436465788701,52.0604334075752
283,1436465789464,51.1357581703198
284,1436465790202,56.05484180078
285,1436465790941,50.500954784793
286,1436465791668,52.8729053777039
287,1436465792390,51.4653883338926
288,1436465793164,48.7790660172499
289,1436465793881,49.1215600886026
290,1436465794610,51.7921004699893
291,1436465795299,51.6404610444783
292,1436465796029,50.6502168566728
293,1436465796745,52.8684820497215
294,1436465797461,51.7372974515355
295,1436465798209,53.0869514215976
296,1436465798905,48.0694255381121
297,1436465799571,57.2671097636074
298,1436465800301,59.1003874441434
299,1436465801030,55.6860416323387
300,1436465801749,65.6846659018422
301,1436465802466,59.5104148665393
302,1436465803184,58.5882542612685
303,1436465803932,56.3582331847115
304,1436465804651,61.6666849818865
305,1436465805294,55.5641629861257
306,1436465805983,46.7762791940655
307,1436465806719,52.7666174094495
308,1436465807440,44.6366325875878
309,1436465808188,67.4604729985719
310,1436465808919,59.4637003994985
311,1436465809639,66.0160186357276
312,1436465810356,64.4086076164419
313,1436465811096,56.0459434389984
314,1436465811835,64.9963392428036
315,1436465812585,61.4355174415201
316,1436465813333,59.1068797569725
317,1436465814061,42.4808110129573
318,1436465814774,68.2192237453861
319,1436465815487,62.9457790468816
320,1436465816154,60.8563286721819
321,1436465816884,62.654528172063
322,1436465817493,65.2506326404514
323,1436465818084,69.8380500890517
324,1436465818737,60.1106073878109
325,1436465819324,64.0148517486059
326,1436465820009,68.3434295182102
327,1436465820740,66.0025023155828
328,1436465821480,63.4307238024547
329,1436465822177,67.3715483534133
330,1436465822849,54.5486153153754
331,1436465823584,55.7404818776582
332,1436465824314,47.7879807020688
333,1436465825108,50.4407978466846
334,1436465825825,67.4177312667687
335,1436465826546,70.2149728670915
336,1436465827264,67.7891142174889
337,1436465828004,66.4438302944979
338,1436465828706,51.0875023103573
339,1436465829489,69.2221502492918
340,1436465830218,53.6852631296636
341,1436465830896,37.4596688139249
342,1436465831626,46.9130238367036
343,1436465832375,56.6725689739576
344,1436465833104,55.5503887201115
345,1436465833828,57.2405871708565
346,1436465834596,48.1703689740676
347,1436465835330,66.7349523023774
348,1436465836288,50.9346419314904
349,1436465836844,61.0238319015383
350,1436465837394,68.0101745112856
351,1436465837959,60.9588670707725
352,1436465838532,63.6986917857874
353,1436465839104,57.6040217014069
354,1436465839701,62.5366953522735
355,1436465840296,53.4737511348973
356,1436465840873,66.4771521297605
357,1436465841458,67.8562846627146
358,1436465842058,42.3772091481551
359,1436465842693,40.8763480743043
360,1436465843305,34.7139922357287
361,1436465843903,26.3213212677483
362,1436465844521,57.3071437370423
363,1436465845148,27.9802889146039
364,1436465845828,68.0764897317142
365,1436465846567,67.8275324784984
366,1436465847162,63.3851835912366
367,1436465847750,45.5512880380765
368,1436465848458,42.7272574582989
369,1436465849234,37.9385463920341
370,1436465849956,41.6054036218406
371,1436465850703,38.6756292789855
372,1436465851440,36.2916291081451
373,1436465852176,30.8010146328415
374,1436465852917,30.346807513071
375,1436465853644,42.243805859321
376,1436465854382,36.6473455824556
377,1436465855101,33.2960085396315
378,1436465855814,36.4165770285537
379,1436465856564,36.2137209011802
380,1436465857262,43.9850313394187
381,1436465857894,40.7935379102577
382,1436465858624,30.4800055722672
383,1436465859318,38.8357649590596
384,1436465860008,40.8922731487627
385,1436465860728,61.1520863352635
386,1436465861446,59.3761094459727
387,1436465862228,60.9775744639367
388,1436465862913,60.9849634883043
389,1436465863640,69.3161709270309
390,1436465864396,61.6716823162076
391,1436465865207,70.8078394323138
392,1436465865910,72.0668908051643
393,1436465866650,70.3698248459711
394,1436465867375,71.9058698701239
395,1436465868102,67.7958985974716
396,1436465868825,64.9647705560007
397,1436465869569,68.775650130098
398,1436465870309,59.27106209767
399,1436465871076,63.6964718401651
400,1436465871781,63.3742705376022
401,1436465872470,58.4586126524457
402,1436465873143,68.0837371392648
403,1436465873883,69.2363497274294
404,1436465874614,72.4182987621492
405,1436465875344,65.0245270780033
406,1436465876064,65.4224387486034
407,1436465876805,66.3721384174211
408,1436465877471,62.8983157259079
409,1436465878044,63.1346683497649
410,1436465878719,60.1931070150045
411,1436465879447,68.8980785944392
412,1436465880207,62.7902863251763
413,1436465880925,69.9892010599767
414,1436465881670,71.6748758927864
415,1436465882360,69.3352933529774
416,1436465884110,61.9416503118523
417,1436465884886,63.6539599679614
418,1436465885607,60.198852467935
419,1436465886333,62.3834579063414
420,1436465887060,66.6102258925217
421,1436465887786,64.2752556853783
422,1436465888477,65.2304875322403
423,1436465889142,66.6007050325682
424,1436465889843,68.0576404992488
425,1436465890566,69.8241086989795
426,1436465891294,66.6945898471336
427,1436465892012,68.7745886418085
428,1436465892619,59.3847406206945
429,1436465894028,65.2051846992388
430,1436465894695,62.2623423660197
431,1436465895419,69.9211865146237
432,1436465896136,61.903545730263
433,1436465896877,66.4277826300594
434,1436465897607,64.05910000259
435,1436465898317,68.9215303340148
436,1436465899066,57.7527348745365
437,1436465899732,68.2874837085189
438,1436465900446,65.1018799326416
439,1436465901193,68.218433877847
440,1436465901874,69.6563930395761
441,1436465902476,60.5529928857781
442,1436465903173,59.8911125961329
443,1436465903913,57.0629749523501
444,1436465904642,64.8769429882066
445,1436465905374,60.811310157955
446,1436465906083,60.7113327654321
447,1436465906826,63.1165126836815
448,1436465907518,58.6998417675272
449,1436465909000,63.1931982058777
450,1436465909653,68.4589928408159
451,1436465910413,64.1086522027307
452,1436465911158,59.9168165671547
453,1436465911881,61.0635450797853
454,1436465912600,60.740915355568
455,1436465913336,62.2769314323565
456,1436465913992,62.1377870957306
457,1436465914730,60.7901475738664
458,1436465915459,57.9869656245053
459,1436465916196,61.0259381044358
460,1436465916850,63.6707419953364
461,1436465918020,64.3103115420728
462,1436465918703,58.5419653499658
463,1436465919416,62.7800066984212
464,1436465920156,62.258813281184
465,1436465920880,65.8803455967324
466,1436465921592,61.7854163949619
467,1436465922268,58.6323095063402
468,1436465922989,56.6014577913459
469,1436465923731,62.6139056581556
470,1436465924452,59.4208233156463
471,1436465925190,58.9696551818577
472,1436465925908,57.9237842450956
473,1436465926628,62.3938626129591
474,1436465927350,61.9669203490865
475,1436465928047,63.1202854458967
476,1436465928735,58.886249852555
477,1436465929472,63.9579218735574
478,1436465930255,67.8556574456404
479,1436465930922,58.1027223638437
480,1436465931646,60.7029715387428
481,1436465932367,63.3175263600251
482,1436465933163,60.0850072990787
483,1436465933809,56.9673135527929
484,1436465934533,60.2487307707048
485,1436465935264,59.0057131861326
486,1436465935975,60.8762595476264
487,1436465936691,62.1296094113152
488,1436465937361,67.2270008181033
489,1436465938092,69.4306770631417
490,1436465938755,55.8029724617016
491,1436465939473,59.3633695183069
492,1436465940199,59.1645661585996
493,1436465940958,56.4616626114836
494,1436465941690,60.2811400723025
495,1436465942426,57.3939091907204
496,1436465943158,60.0852832211483
497,1436465943885,59.4276561436335
498,1436465944599,62.09411127208
499,1436465945338,60.6291682245317
500,1436465946007,61.3198638632568
501,1436465946730,64.0277325826763
502,1436465947446,57.2671962579197
503,1436465948171,63.8255798036083
504,1436465948890,59.1408862880594
505,1436465949623,63.4402369270801
506,1436465950349,59.779367069509
507,1436465951066,62.0132725902538
508,1436465951793,58.4768758038317
509,1436465952537,63.9202410351464
510,1436465953206,66.9420081613855
511,1436465953937,69.2520859262246
512,1436465954652,67.4953492264362
513,1436465955357,62.3164938818124
514,1436465956078,58.5029751689347
515,1436465956751,61.3835482585314
516,1436465957474,59.387139735795
517,1436465958195,58.7359922654957
518,1436465958857,58.3221200226786
519,1436465959576,64.9247714716093
520,1436465960307,65.487518960465
521,1436465961052,65.4642166015716
522,1436465961762,68.4088483301191
523,1436465962469,67.3268255417139
524,1436465963189,58.8848135164812
525,1436465963968,61.4549243083251
526,1436465964691,61.0479459559848
527,1436465965412,55.1869247560319
528,1436465966133,56.5196833038792
529,1436465966794,63.6965460270638
530,1436465967536,60.4455202659564
531,1436465968305,61.7474010382243
532,1436465969026,61.5195742659151
533,1436465969753,58.9898130483786
534,1436465970493,64.4412165320429
535,1436465971211,61.4741270850176
536,1436465971929,61.6265052518346
537,1436465972661,58.3119134762936
538,1436465973326,61.3011952872307
539,1436465973978,62.787586743771
540,1436465974718,69.3568357711274
541,1436465975453,59.0751316554857
542,1436465976208,61.676515710186
543,1436465976919,68.0945172583613
544,1436465977600,62.9846089999757
545,1436465978324,65.0432494520189
546,1436465979040,63.2695656098128
547,1436465979759,59.91592481301
548,1436465980484,62.8869160201965
549,1436465981219,63.6624769967794
550,1436465981968,61.4069076063686
551,1436465982692,62.680009415608
552,1436465983374,62.5578523316744
553,1436465984084,59.8303468121008
554,1436465984837,63.8252872814329
555,1436465985555,64.4357129817941
556,1436465986297,62.9921062692291
557,1436465986998,58.8635371654863
558,1436465987672,60.6518391185288
559,1436465988400,63.8886434434419
560,1436465989151,64.3497628278704
561,1436465989839,57.1584835646376
562,1436465990420,59.5032770097163
563,1436465990972,68.7922884553563
564,1436465991556,66.5697198179688
565,1436465992246,70.0464432469583
566,1436465992989,63.4499066242631
567,1436465993746,61.9665875738837
568,1436465994663,66.1865737631204
569,1436465995212,66.486367508425
570,1436465995763,63.3831714815212
571,1436465996311,64.9537700613991
572,1436465997425,67.2588311582665
573,1436465998074,57.7845445959579
574,1436465998768,64.6816706289315
575,1436465999407,63.5124378496436
576,1436466000096,62.8830682209308
