id,attr_time,attr_db
1,1436465583035,6.9286164392112
2,1436465583761,9.7808945086027
3,1436465584493,32.7472483269836
4,1436465585225,16.9171502159496
5,1436465585952,24.4158032000274
6,1436465586622,10.0845784563772
7,1436465587348,14.3730887087883
8,1436465588275,22.6105673439716
9,1436465588875,28.2334924970096
10,1436465589456,32.4664862405217
11,1436465590107,51.2785219429998
12,1436465590837,54.6454265678715
13,1436465591566,69.1986814066884
14,1436465592353,55.9619549726944
15,1436465593090,58.4284643850148
16,1436465593901,55.8491990497893
17,1436465594634,59.0379556173252
18,1436465595373,59.1489045906329
19,1436465596119,57.9834424033623
20,1436465596855,57.6502004585349
21,1436465597584,54.7755590881185
22,1436465598300,60.4810469307246
23,1436465598990,71.2558229501379
24,1436465599719,67.8418497020151
25,1436465600456,66.6034625168909
26,1436465601203,60.9804700498681
27,1436465601941,65.5710974910427
28,1436465602628,67.7987212384909
29,1436465603299,68.1380264902111
30,1436465604031,67.2148941531037
31,1436465604758,66.9133455239787
32,1436465605482,68.3171021117955
33,1436465606224,66.9687685673836
34,1436465606933,68.696041605109
35,1436465607644,67.8113259738506
36,1436465608356,67.2723811471775
37,1436465609019,71.4909089595309
38,1436465609713,59.3891274236001
39,1436465610435,62.0889305766888
40,1436465611171,63.8564797909835
41,1436465611957,59.9445122453643
42,1436465612658,59.1574010648374
43,1436465613324,66.2863970291205
44,1436465614069,68.0154723257193
45,1436465614798,55.8073980255142
46,1436465615480,57.245003430971
47,1436465616155,74.4588580109063
48,1436465616885,67.4851680908176
49,1436465617630,70.5219427777169
50,1436465618353,64.3069893938604
51,1436465619072,69.639142208873
52,1436465619787,68.7921623068329
53,1436465620469,66.5057507046846
54,1436465621208,64.7959634601553
55,1436465621940,67.2072071887214
56,1436465622679,72.0458492671408
57,1436465623478,69.4922634166253
58,1436465624118,75.8680746044222
59,1436465624861,66.6161806843346
60,1436465625590,63.4191703837146
61,1436465626280,60.6569682789101
62,1436465626962,68.9680424286082
63,1436465627702,64.0893334038012
64,1436465628433,59.7376499594521
65,1436465629111,63.0014381468693
66,1436465629740,70.3319333342524
67,1436465630435,67.4260003116781
68,1436465631178,67.6352134252578
69,1436465631898,70.439849118992
70,1436465632629,68.2897896065527
71,1436465633395,73.4743411517638
72,1436465634068,59.7681817119894
73,1436465634790,66.185197007488
74,1436465635510,68.9089676161109
75,1436465636249,66.9398863677395
76,1436465636968,56.1783356527247
77,1436465637701,53.2241218162627
78,1436465638434,65.4675289343609
79,1436465639159,70.5853076648767
80,1436465639877,71.2311403989046
81,1436465640550,68.6231672846648
82,1436465641279,70.6676005043368
83,1436465641925,70.8148137306926
84,1436465642653,76.3405186175844
85,1436465643428,72.7599200811532
86,1436465644197,71.2224426063695
87,1436465644922,70.4049986811469
88,1436465645681,64.8927556344488
89,1436465646428,68.4200105567749
90,1436465647159,60.0471423267503
91,1436465647889,60.9184455534037
92,1436465648635,68.6784116164303
93,1436465649315,66.947487503744
94,1436465649938,67.8785345569854
95,1436465650619,66.7428216464138
96,1436465651335,69.6926633815752
97,1436465652027,67.2163146970592
98,1436465652751,69.016685872702
99,1436465653475,73.0020717340689
100,1436465654228,68.5417698142397
101,1436465654958,61.5614446386946
102,1436465655629,63.3206931472119
103,1436465656253,65.218333324065
104,1436465656986,62.2343903625941
105,1436465657734,69.6346818031462
106,1436465658481,72.639353305088
107,1436465659208,72.9976765725149
108,1436465659952,66.4676441578291
109,1436465660698,66.873383949918
110,1436465661425,65.7041518131111
111,1436465662160,70.0250258895299
112,1436465662831,66.8175365656934
113,1436465663565,69.4754979289486
114,1436465664340,70.1449137376419
115,1436465665110,70.655951185448
116,1436465665826,74.9275434458022
117,1436465666616,72.6924037677294
118,1436465667276,65.5818344683803
119,1436465668013,59.1817661454627
120,1436465668740,62.2830356069316
121,1436465669488,63.2668713991125
122,1436465670227,67.4664285906742
123,1436465670964,70.0831886663822
124,1436465671693,68.7177097704502
125,1436465672422,69.2024540490318
126,1436465673154,67.0778574090405
127,1436465673807,70.031563672324
128,1436465674620,69.7301863463771
129,1436465675369,58.9784424799885
130,1436465676090,64.0413378990809
131,1436465676810,56.1112382999897
132,1436465677571,65.6223308443093
133,1436465678313,63.0724791116301
134,1436465679061,68.0487357541246
135,1436465679791,66.5782456047968
136,1436465680529,73.6650727445668
137,1436465681270,69.3987811313945
138,1436465681997,72.0026762174529
139,1436465682741,65.6547889596765
140,1436465683480,64.6484261034517
141,1436465684325,69.0538638223132
142,1436465685003,68.941972850216
143,1436465685747,67.4589259329884
144,1436465686494,65.9424155454757
145,1436465687213,66.0631759023064
146,1436465687881,68.1997388289275
147,1436465688614,72.6889095871298
148,1436465689417,64.6309047753735
149,1436465690098,73.0042695066065
150,1436465690823,69.3878146443465
151,1436465691559,68.5881637154908
152,1436465692302,65.7689357949859
153,1436465693043,63.0178693844741
154,1436465693781,62.2285631389131
155,1436465694525,66.2154979571253
156,1436465695240,65.1533248168974
157,1436465695895,66.7844944626928
158,1436465696648,65.4110183908644
159,1436465697372,57.0499653057257
160,1436465698086,53.5118314926789
161,1436465698796,50.2729756884628
162,1436465699437,64.6039274477983
163,1436465700113,68.4060251642465
164,1436465700832,65.6767524105967
165,1436465701569,67.6752958143453
166,1436465702330,69.6546302665299
167,1436465703073,70.3190649510603
168,1436465703807,71.8522637462355
169,1436465704499,68.4884643874848
170,1436465705166,67.4079228453966
171,1436465705834,70.5721200678579
172,1436465706580,66.1012896654545
173,1436465707342,66.9593795416305
174,1436465708069,62.8449642828552
175,1436465708861,50.3198777027743
176,1436465709589,60.9621812659509
177,1436465710282,53.3906526617473
178,1436465710974,72.2577936203896
179,1436465711704,67.2368453341532
180,1436465712441,65.3937125399013
181,1436465713174,67.0564860944679
182,1436465713931,67.9148706417718
183,1436465714663,68.5149277476689
184,1436465715388,72.1899252696965
185,1436465716079,70.5077501844745
186,1436465716732,69.5332827907935
187,1436465717433,64.3491806720865
188,1436465718169,66.3202503695117
189,1436465718883,64.3517717454105
190,1436465719570,60.4266205743902
191,1436465720234,65.9261398161782
192,1436465720951,60.6673630237297
193,1436465721660,50.1402911749518
194,1436465722389,63.9965114331449
195,1436465723090,71.0095223090364
196,1436465723837,71.1351332369038
197,1436465724569,67.187192911476
198,1436465725306,68.2681741394816
199,1436465726038,65.9674441039162
200,1436465726800,67.9429273501153
201,1436465727538,69.0666149761798
202,1436465728256,67.8294096263277
203,1436465728968,68.1691057177558
204,1436465729700,65.0574069786389
205,1436465730400,70.7359713423838
206,1436465731088,67.0373154435782
207,1436465731815,64.332689489696
208,1436465732661,70.5333994490501
209,1436465733393,70.9989585109468
210,1436465734131,68.9628049163605
211,1436465734866,66.6159148224109
212,1436465735592,59.6823924086654
213,1436465736337,56.9853599798326
214,1436465737081,54.3484460055245
215,1436465737810,57.7369570844254
216,1436465738555,59.6938360626082
217,1436465739265,60.2712912451998
218,1436465739906,54.7376607285928
219,1436465740612,52.8915383602093
220,1436465741391,55.2338571589231
221,1436465742114,60.5587573466238
222,1436465742836,68.9864488675892
223,1436465743602,68.3622710179943
224,1436465744350,69.121624063843
225,1436465745097,69.7084191529768
226,1436465745828,69.9190525728172
227,1436465746580,69.6672544205646
228,1436465747322,68.9260838675758
229,1436465748048,67.8662082936226
230,1436465748801,58.9194245630423
231,1436465749617,63.9525893801057
232,1436465750325,64.8411874128608
233,1436465750922,65.5432019035206
234,1436465751602,72.6006486234538
235,1436465752356,72.3376244452705
236,1436465753084,73.0346222404792
237,1436465753833,71.3501956751132
238,1436465754606,66.8494812133694
239,1436465755807,68.3967797222305
240,1436465756550,63.2932352406246
241,1436465757285,65.1491611153184
242,1436465758010,65.3252956246659
243,1436465758737,65.1730917783929
244,1436465759474,62.8036007496594
245,1436465760212,62.284623368953
246,1436465760931,64.5783223475006
247,1436465761637,68.767550125307
248,1436465762410,66.4308015934407
249,1436465763133,71.3289905458165
250,1436465763863,65.9662009266834
251,1436465765607,72.5938753506517
252,1436465766336,70.0747377952547
253,1436465767068,72.1662169819152
254,1436465767806,73.351573567538
255,1436465768539,74.1349181490383
256,1436465769264,69.6204607632482
257,1436465770003,72.9172118773128
258,1436465770681,70.3924479091375
259,1436465771281,66.2977562773097
260,1436465771964,53.6426581914418
261,1436465772703,58.3808360392927
262,1436465773459,57.2330150523197
263,1436465774243,62.2694521899182
264,1436465774844,54.4618780367802
265,1436465775542,71.8175495143143
266,1436465776271,76.1548646057636
267,1436465777013,70.2686705494263
268,1436465777757,70.3970699245608
269,1436465778483,66.9330406424175
270,1436465779200,68.6021105656224
271,1436465781020,63.5140264454344
272,1436465781679,68.4144814767428
273,1436465782423,67.2819583651999
274,1436465783028,56.215785457574
275,1436465783717,70.8879271794259
276,1436465784439,71.5841884822323
277,1436465785185,70.6875455409706
278,1436465785926,69.0245198135274
279,1436465786661,70.3021838554118
280,1436465787326,68.8256819145099
281,1436465788060,69.5866019136984
282,1436465790035,72.9614084132814
283,1436465790710,63.4218301673914
284,1436465791440,62.730323758157
285,1436465792163,63.960335391445
286,1436465792879,64.7859423792425
287,1436465793606,64.2679252984456
288,1436465794333,64.0630270651074
289,1436465794982,67.0433894515845
290,1436465795713,66.3816419754534
291,1436465796468,69.2258854524003
292,1436465797164,69.3737784439612
293,1436465797843,56.6753820903067
294,1436465798593,61.6488670592877
295,1436465799324,62.0251830035407
296,1436465800060,55.3333760954492
297,1436465800771,54.9081779028166
298,1436465801508,68.0799694947292
299,1436465802231,69.9682500515543
300,1436465802970,68.612223125788
301,1436465803698,70.4817831124948
302,1436465804438,67.5578698954749
303,1436465805140,70.5680593378909
304,1436465805791,65.9431878890115
305,1436465806487,69.3424580420963
306,1436465807228,67.1459333653329
307,1436465807953,69.6785809946447
308,1436465808679,67.2631015869606
309,1436465809405,65.807370057882
310,1436465810144,68.2932013181086
311,1436465810868,68.6837048325422
312,1436465811601,63.6330305014481
313,1436465812296,63.305433502676
314,1436465812985,70.8624050625673
315,1436465813720,67.7030260389997
316,1436465814456,67.2142904643523
317,1436465815200,68.7299519988054
318,1436465815936,67.024022133018
319,1436465816669,69.0604454249406
320,1436465817376,67.3714980308898
321,1436465818027,68.8980501360227
322,1436465818762,63.9473383963185
323,1436465819459,63.4825304663033
324,1436465820141,53.081184573672
325,1436465820860,60.8265796766787
326,1436465821546,62.3955406238913
327,1436465822228,68.3624636499848
328,1436465822966,66.2160229631414
329,1436465823708,68.2175793605879
330,1436465824430,69.2061278478763
331,1436465825155,69.5190022653474
332,1436465825898,70.6312705703096
333,1436465826629,68.9945368860543
334,1436465827330,67.3804121615698
335,1436465828053,69.917218940864
336,1436465828768,70.6919296310496
337,1436465829503,69.6784869585123
338,1436465830237,65.384506539909
339,1436465830903,64.7318060229896
340,1436465831509,64.8494176212354
341,1436465832205,33.2475211790235
342,1436465833003,46.875312827311
343,1436465833729,49.7912083407536
344,1436465834483,65.6340871245045
345,1436465835173,36.0812971906706
346,1436465835676,35.2678312657057
347,1436465836182,23.858014192282
348,1436465836634,27.3589387932148
349,1436465837094,25.2770940315041
350,1436465837592,22.2412289367785
351,1436465838058,27.8112605343213
352,1436465838453,36.672159337582
353,1436465838898,41.3885697353578
354,1436465839400,63.1904319074231
355,1436465839947,49.1129973739937
356,1436465840451,31.9252996450531
357,1436465840965,21.3891878807903
358,1436465841420,24.0566562159884
359,1436465841904,34.7661170796328
360,1436465842367,42.3264572028352
361,1436465842852,39.8021131568318
362,1436465843318,37.1075148173242
363,1436465843748,35.1670808191242
364,1436465844222,29.3573998738051
365,1436465844713,28.2706412448273
366,1436465845205,23.6757556974336
367,1436465845681,35.0676984377141
368,1436465846208,25.9390467599113
369,1436465846685,19.673281699672
370,1436465847166,49.911302272975
371,1436465847671,43.2316397977344
372,1436465848153,32.7069295726087
373,1436465848649,18.8557154754652
374,1436465849136,18.1224216198899
375,1436465849693,26.2325485985729
376,1436465850197,22.2771823837159
377,1436465850640,20.830767717601
378,1436465851058,19.7515120304597
379,1436465851536,43.3216637911737
380,1436465852032,35.9518807150845
381,1436465852535,34.1530890782102
382,1436465853019,25.1156411065459
383,1436465853490,19.0324907244107
384,1436465853997,17.6293891186547
385,1436465854494,41.6851972003017
386,1436465854983,32.3720797891393
387,1436465855454,39.8009365119559
388,1436465855949,51.2386370673542
389,1436465856364,32.2626606396018
390,1436465856820,28.2656945649389
391,1436465857292,35.1921639495216
392,1436465857810,30.7864136841236
393,1436465858310,30.1967707775455
394,1436465858805,28.8701747239561
395,1436465859356,29.4290186653955
396,1436465859858,17.7890996929198
397,1436465860294,49.8819769440579
398,1436465860736,25.2813976534201
399,1436465861181,49.2761135844285
400,1436465861612,60.4409035278554
401,1436465862101,68.6506418673364
402,1436465862617,68.6411584913538
403,1436465863122,68.3085107744225
404,1436465863608,68.4508313201284
405,1436465864142,67.0283842342166
406,1436465864695,68.2502820157501
407,1436465865193,70.3947081663125
408,1436465865721,72.3910076234093
409,1436465866236,64.6284494689013
410,1436465866691,68.5696873933979
411,1436465867171,67.4852643721392
412,1436465867650,64.3572589128209
413,1436465868158,63.2540328719956
414,1436465868665,61.1143317678444
415,1436465869154,70.8911826692341
416,1436465869674,67.4028918966699
417,1436465870146,70.4216772983829
418,1436465870652,70.7262329468278
419,1436465871118,72.7321191596867
420,1436465871512,58.0737447199981
421,1436465871929,59.5223211500349
422,1436465872370,68.3202495441999
423,1436465872825,72.1985083208493
424,1436465873312,73.2626669134672
425,1436465873791,69.3476621759588
426,1436465874321,73.1834517747148
427,1436465874814,73.3733360995165
428,1436465875311,72.8473343599785
429,1436465875801,72.0980367923758
430,1436465876279,65.2698922836033
431,1436465876692,68.5297039893385
432,1436465877184,67.2014066688705
433,1436465877674,67.7456198173129
434,1436465878172,70.6962180926567
435,1436465878654,66.2563529106701
436,1436465879159,69.6060223197042
437,1436465879671,69.95769005223
438,1436465880158,66.5049689857954
439,1436465880655,72.0874338599627
440,1436465881145,64.4428334227308
441,1436465881645,65.4177234187842
442,1436465882138,71.2056525833432
443,1436465882537,63.0213197199361
444,1436465882968,69.8711685120529
445,1436465883431,71.582594681638
446,1436465883919,70.8262427602426
447,1436465884398,75.662664794941
448,1436465884877,70.9741258258814
449,1436465885335,70.9817267502908
450,1436465885743,67.7647734023649
451,1436465886253,68.8150819546575
452,1436465886744,68.4550389163649
453,1436465887244,63.0666700142105
454,1436465887755,59.3686136520436
455,1436465888251,68.926223892157
456,1436465888935,63.9147591134834
457,1436465889328,70.2786755302688
458,1436465889691,65.0615499440749
459,1436465890167,65.379168482558
460,1436465890667,71.5678014250547
461,1436465891161,62.1669808964947
462,1436465891609,69.7393246145991
463,1436465891969,67.7321381110819
464,1436465892359,67.7915440885544
465,1436465892777,66.5506614020507
466,1436465893209,63.5645940939154
467,1436465893629,70.4978097593406
468,1436465894132,68.9105952136695
469,1436465894573,71.5821964748187
470,1436465895019,69.2781529267416
471,1436465895453,63.1317491351865
472,1436465895925,57.0731109567045
473,1436465896277,68.2869123901415
474,1436465896695,63.2498624364599
475,1436465897172,72.2512283147318
476,1436465897671,66.6693592060281
477,1436465898153,68.8184564576897
478,1436465898633,68.6829773287647
479,1436465899133,64.587182762848
480,1436465899631,69.2506145847726
481,1436465900066,69.3711746202926
482,1436465900533,65.5947275642771
483,1436465901043,56.2470054999148
484,1436465901539,69.7472579034312
485,1436465902027,68.9821815942502
486,1436465902498,66.1296930796865
487,1436465903004,65.9957932067556
488,1436465903492,70.2093340471534
489,1436465903963,58.3748225331827
490,1436465904396,69.4482059046092
491,1436465904814,68.8036569138419
492,1436465905273,70.4494173987337
493,1436465905747,70.5948543963867
494,1436465906239,71.0977594970556
495,1436465906731,67.7987986025979
496,1436465907196,67.3885911196728
497,1436465907576,69.65621562913
498,1436465908000,66.5149138960451
499,1436465908471,65.4952180092922
500,1436465908951,73.9978855061346
501,1436465909492,65.0696800821266
502,1436465909950,64.4717697754266
503,1436465910435,68.9108106910259
504,1436465910934,65.2577032738041
505,1436465911412,64.1578604488384
506,1436465911904,68.8044479655371
507,1436465912374,62.8304931876245
508,1436465912846,67.4193309098423
509,1436465913319,70.4606602878677
510,1436465913800,73.4062505745758
511,1436465914275,66.957722091735
512,1436465914761,69.994681600723
513,1436465915250,66.3545657164588
514,1436465915748,60.1790177129288
515,1436465916198,65.3250434464766
516,1436465916594,69.182903104621
517,1436465916984,71.9675088593
518,1436465917442,64.7065744309876
519,1436465917920,67.6832520485195
520,1436465918392,61.7848435002958
521,1436465918865,69.3235104882158
522,1436465919297,68.8027829280074
523,1436465919730,63.6797874736069
524,1436465920209,67.9715603188185
525,1436465920704,61.4070980220301
526,1436465921201,65.7969648438518
527,1436465921702,70.9262510906432
528,1436465922175,60.2872901536288
529,1436465922639,64.9705224510136
530,1436465923114,67.5357442014974
531,1436465923601,56.9124661545278
532,1436465924101,54.6371275212018
533,1436465924652,69.9637263458663
534,1436465925129,68.5961684302512
535,1436465925605,58.4299563006868
536,1436465926123,71.0753850356272
537,1436465926517,66.1814105669112
538,1436465926883,69.1529937833423
539,1436465927328,68.0518825056709
540,1436465927805,67.5015953329729
541,1436465928306,63.5545660864854
542,1436465928802,62.1394875875371
543,1436465929257,67.5103697594298
544,1436465929642,74.4406990426038
545,1436465930059,58.9065347722537
546,1436465930525,67.3373868907812
547,1436465931013,65.8989427316822
548,1436465931516,68.2162438781762
549,1436465932083,65.8988935627215
550,1436465932543,65.8759234203793
551,1436465932993,66.311964672924
552,1436465933466,64.2406534239365
553,1436465933958,67.9453443914907
554,1436465934447,70.7164532256402
555,1436465934931,69.2892677154255
556,1436465935432,69.0988888636422
557,1436465935911,70.4160679026085
558,1436465936364,74.9924212501024
559,1436465936767,57.5894677791776
560,1436465937214,65.3455047714603
561,1436465937671,67.1483136008641
562,1436465938181,74.1220246142316
563,1436465938679,71.7574192739458
564,1436465939222,66.0302696636016
565,1436465939714,68.983360137841
566,1436465940210,62.4012734239185
567,1436465940660,69.1274370972206
568,1436465941104,61.4696996001499
569,1436465941594,68.2122024513941
570,1436465942093,71.7761484692621
571,1436465942605,69.4259429174684
572,1436465943118,73.9208276296681
573,1436465943572,70.5083041063661
574,1436465944010,63.5642213199382
575,1436465944464,69.698336251948
