id,attr_time,attr_db
1,1436465583502,11.4106460345048
2,1436465584170,10.7747350938773
3,1436465584918,11.9858916856503
4,1436465585679,13.8506822781934
5,1436465586470,40.5587483015461
6,1436465587123,17.2873443699036
7,1436465587873,12.5229350849204
8,1436465588605,41.8222390375975
9,1436465589321,31.1330445379955
10,1436465590056,26.8003793588299
11,1436465590801,65.4749134917425
12,1436465591538,73.5394780027121
13,1436465592278,31.6210340809282
14,1436465593048,30.6626421929418
15,1436465593822,35.9575188453198
16,1436465594510,36.9152710543052
17,1436465595259,41.6552485497924
18,1436465595998,40.6536548859453
19,1436465596647,55.0336578962628
20,1436465597222,73.9764270293145
21,1436465597927,39.8916399650453
22,1436465598659,49.4076703149313
23,1436465599379,37.6814097814869
24,1436465600139,45.0392140210112
25,1436465600864,39.7750696960994
26,1436465601619,54.1504984776303
27,1436465602355,37.8161050594784
28,1436465603100,35.3565412994755
29,1436465603793,37.3659826311254
30,1436465604432,49.6979289009363
31,1436465605137,44.9431998290439
32,1436465605876,39.1490182011123
33,1436465606606,39.2458683015997
34,1436465607348,46.7466658371057
35,1436465608102,33.203157531364
36,1436465608841,35.1743466484863
37,1436465609585,41.0673969229803
38,1436465610336,42.5777945445957
39,1436465611077,67.4672709056278
40,1436465611818,70.0867306787085
41,1436465612552,58.319415415793
42,1436465613287,36.7967297799827
43,1436465613950,74.18618626229
44,1436465614620,73.5310699567278
45,1436465615362,43.2183679261163
46,1436465616119,43.7482590559383
47,1436465616774,53.9671549757193
48,1436465617519,42.6370415385792
49,1436465618238,71.2327462355538
50,1436465618970,39.8347566638821
51,1436465619700,34.4527318736675
52,1436465620427,35.4112850105326
53,1436465621174,70.751493553432
54,1436465621832,75.2954020773434
55,1436465622565,67.6298515828961
56,1436465623318,39.627566139065
57,1436465624064,29.3232909222653
58,1436465624743,52.7381036891893
59,1436465625469,61.7755478120677
60,1436465626219,35.645894880481
61,1436465626909,33.1625970973338
62,1436465627639,49.5723745943762
63,1436465628377,72.6368938258921
64,1436465629105,54.8676289365179
65,1436465629829,47.7909776331216
66,1436465630561,61.2526983848852
67,1436465631297,44.7749119508735
68,1436465631987,41.901497518235
69,1436465632736,60.9009831775704
70,1436465633458,56.5895551466054
71,1436465634197,45.8225600222025
72,1436465634915,50.1067727647852
73,1436465635630,45.4412918945038
74,1436465636387,68.5378390166132
75,1436465637109,69.82605503228
76,1436465637723,66.4634150507691
77,1436465638360,38.0135732092455
78,1436465639092,64.994337069383
79,1436465639825,71.950387765265
80,1436465640566,45.4260445522597
81,1436465641305,42.7440614502534
82,1436465643243,57.4618237045562
83,1436465643873,37.5308993993771
84,1436465644541,51.2569566241311
85,1436465645279,40.6058239560381
86,1436465646018,75.3945335930377
87,1436465646748,71.0327108110243
88,1436465647426,55.1413009446285
89,1436465648200,44.5045872298143
90,1436465648930,53.50562113382
91,1436465649648,45.2950871014532
92,1436465650382,63.3448916511135
93,1436465651089,50.4773527246201
94,1436465651750,58.5699758568289
95,1436465653785,77.040463607755
96,1436465654459,45.9662912866472
97,1436465655089,52.6926650475346
98,1436465655788,56.5171892752609
99,1436465656578,62.7295560862505
100,1436465657305,69.2197831048396
101,1436465657968,45.2788798981497
102,1436465658648,36.1782411719162
103,1436465659377,52.2010383482419
104,1436465660139,37.0051104900199
105,1436465660964,45.8520523698916
106,1436465661727,36.9307995952123
107,1436465662405,77.1842023877332
108,1436465663164,75.5176900706061
109,1436465663977,39.464029920731
110,1436465664710,61.2990320915964
111,1436465665416,43.0868265145909
112,1436465666087,51.7637449950216
113,1436465666768,47.1556198057956
114,1436465668183,51.0394222072283
115,1436465668948,69.8542012360838
116,1436465669682,68.6084806749337
117,1436465670415,59.6508811412858
118,1436465671141,62.6232498068818
119,1436465671857,39.7863732752564
120,1436465672588,61.0631070224126
121,1436465673309,41.8988604715821
122,1436465674039,52.3530030564525
123,1436465674745,47.4039762302517
124,1436465675386,35.8447808313467
125,1436465677232,52.4798516238026
126,1436465677916,64.8810794020073
127,1436465678649,71.3895314149326
128,1436465679378,64.4492598529043
129,1436465680111,39.9226910393133
130,1436465680828,50.018434147234
131,1436465681559,48.9658229035384
132,1436465682298,53.923074248506
133,1436465683025,39.9035700721774
134,1436465683755,56.9482110531142
135,1436465684491,38.088441989098
136,1436465685219,54.5271578695236
137,1436465685887,42.3569301146372
138,1436465686677,56.0079821285339
139,1436465687457,42.2697708799324
140,1436465688161,56.5373796053881
141,1436465688950,42.5358454921135
142,1436465689701,53.6909842767896
143,1436465690445,41.0029643498002
144,1436465691181,51.6806645204856
145,1436465691921,34.4368540976823
146,1436465692682,35.9069445545242
147,1436465693420,44.2923909849702
148,1436465694162,36.2218126801519
149,1436465694879,40.6174171495475
150,1436465695622,35.8703257789939
151,1436465696304,50.5513555872497
152,1436465697040,36.9676237281997
153,1436465697775,53.3634252474875
154,1436465698529,37.824423662624
155,1436465699217,52.8474013022214
156,1436465699960,40.5503427672454
157,1436465700695,44.2950159565434
158,1436465701435,39.5773517205109
159,1436465702180,38.8801282764285
160,1436465702925,74.9982584726908
161,1436465703665,74.2873100886723
162,1436465704412,65.3717253174414
163,1436465705132,44.8129309205032
164,1436465705783,59.599961203951
165,1436465706523,45.5594846230396
166,1436465707272,44.9229138598084
167,1436465708050,43.0732975713744
168,1436465708796,51.4178308208303
169,1436465709613,37.2450989721383
170,1436465710592,47.6283980232379
171,1436465711335,53.0374095845188
172,1436465712068,52.9478393345757
173,1436465712810,39.1562687487596
174,1436465713535,77.5203928804002
175,1436465714256,46.6380370806111
176,1436465715019,42.5895035574601
177,1436465715705,41.7143356378957
178,1436465716366,36.3497041931911
179,1436465717114,40.4780160244096
180,1436465717829,37.0017273544726
181,1436465718502,51.7528338670514
182,1436465719189,44.8389912442946
183,1436465719906,40.8872773339886
184,1436465720641,52.9937598955374
185,1436465721371,37.829461473172
186,1436465722151,35.9931909564753
187,1436465722882,35.80895660928
188,1436465723620,34.7224082387923
189,1436465724373,33.7769753324703
190,1436465725095,31.9335451267794
191,1436465725766,33.7242685634506
192,1436465726419,39.5499002178215
193,1436465727164,44.7336620404007
194,1436465727880,40.5970645783721
195,1436465728541,46.3030089363899
196,1436465729270,40.8466486488738
197,1436465730008,22.2677941153886
198,1436465730730,37.5362678682138
199,1436465731482,35.2319796783421
200,1436465732222,49.930875174898
201,1436465732958,41.8620718161672
202,1436465733758,42.7319941726629
203,1436465734496,41.537619849048
204,1436465735227,57.1036750024533
205,1436465735922,36.1191332858067
206,1436465736573,38.3541475574937
207,1436465737289,42.0062531301233
208,1436465738012,39.7840617301629
209,1436465738733,46.8529531417459
210,1436465739485,41.4848944769345
211,1436465740111,51.3730753248152
212,1436465740856,42.6104584282465
213,1436465741584,43.6433233880313
214,1436465742309,42.06255763085
215,1436465743036,33.6106910695644
216,1436465743754,42.7518296044397
217,1436465744485,36.7802966825843
218,1436465745220,74.7600262528901
219,1436465745973,26.4556545937193
220,1436465746698,31.209993608524
221,1436465747428,40.6851711820392
222,1436465748077,39.7915832835341
223,1436465748767,57.882609277359
224,1436465749505,43.2451093215147
225,1436465750243,51.8627964605102
226,1436465750920,33.15925238547
227,1436465751649,32.9961164784088
228,1436465752374,49.7857929311833
229,1436465753093,33.2265235475643
230,1436465753779,46.5551979540247
231,1436465754520,43.6903935593237
232,1436465755251,37.1988516262639
233,1436465756000,41.4406119274456
234,1436465756739,72.1813040794262
235,1436465757460,56.4507231385593
236,1436465758150,57.3114136643356
237,1436465758881,33.1264932259866
238,1436465759550,53.7050971477074
239,1436465760292,39.7744466856176
240,1436465760956,64.3153868343195
241,1436465761649,61.449761253287
242,1436465762379,59.7762867319352
243,1436465763098,43.4494943487001
244,1436465763849,43.4646935774701
245,1436465764571,34.3172426110434
246,1436465765304,41.9165840579354
247,1436465766021,34.52177212011
248,1436465766747,40.899777867459
249,1436465767474,37.5938518343749
250,1436465768191,41.9184647558759
251,1436465768864,40.3589060966662
252,1436465769661,39.2960482320403
253,1436465770456,33.8015759400182
254,1436465771124,39.7113289656828
255,1436465771828,41.2509113447436
256,1436465772556,46.3479264281435
257,1436465773295,38.9716780733687
258,1436465774014,54.2816738142767
259,1436465774753,40.0288287055536
260,1436465775476,56.2596617831671
261,1436465776191,39.631888041315
262,1436465776932,44.6452950800933
263,1436465777687,41.676836578641
264,1436465778453,49.0715285134326
265,1436465779124,38.0394577347995
266,1436465779832,40.007760365802
267,1436465780548,44.3085252556005
268,1436465781283,43.9154823999747
269,1436465782001,46.3806878713501
270,1436465782721,41.1093748871439
271,1436465783404,48.9555847181189
272,1436465784111,44.6111269993427
273,1436465784839,52.2460159212098
274,1436465785602,43.7116198475514
275,1436465786324,51.4961570095833
276,1436465787044,45.2869483635126
277,1436465787813,47.7671497482285
278,1436465788551,43.9286951032054
279,1436465789296,49.5074895905086
280,1436465789999,44.059120519402
281,1436465790752,29.7713378886058
282,1436465791482,29.9622456945107
283,1436465792188,55.1344674266175
284,1436465792889,41.1891167483615
285,1436465793624,47.4955187949645
286,1436465794376,43.7708619709373
287,1436465795057,46.6675660953292
288,1436465795795,43.27507175492
289,1436465796518,47.5172194839258
290,1436465797241,50.2294747477067
291,1436465797973,51.1969741731967
292,1436465798704,47.07277283763
293,1436465799347,54.4577400969191
294,1436465799972,40.4415188604396
295,1436465800643,43.023210525467
296,1436465801396,40.4916486259691
297,1436465802124,49.4684326279188
298,1436465802911,38.2315629316047
299,1436465803636,34.5644115020962
300,1436465804383,40.6777350808997
301,1436465805126,37.0601195047396
302,1436465805852,40.6838003262436
303,1436465806590,34.824922872725
304,1436465807321,37.672902083904
305,1436465808059,36.0992121685196
306,1436465808806,38.1154389461491
307,1436465809547,38.0787098162254
308,1436465810304,35.5752397851587
309,1436465810952,41.774611112815
310,1436465811697,43.0611044117663
311,1436465812462,41.0332146836958
312,1436465813163,44.8201857787538
313,1436465813905,45.2545869511841
314,1436465814642,46.6347412688202
315,1436465815371,42.8910581166584
316,1436465816119,48.7358522432447
317,1436465816860,42.9148346712823
318,1436465817606,53.1586896045138
319,1436465818332,40.8887690335207
320,1436465819061,53.9571978105664
321,1436465819750,43.5979271976923
322,1436465820459,48.6060962864277
323,1436465821170,42.2516930042853
324,1436465821869,54.2481084206837
325,1436465822602,43.5788188439053
326,1436465823352,52.5849174625049
327,1436465824099,43.1062745486932
328,1436465824799,45.1728286921103
329,1436465825472,64.3898308345704
330,1436465826220,67.2162910625406
331,1436465826953,52.6552640010704
332,1436465827687,47.6329786543882
333,1436465828409,52.6477629569441
334,1436465829143,37.056427755212
335,1436465829872,44.6900029098766
336,1436465830632,34.5491455275488
337,1436465831339,65.5754588373235
338,1436465831988,68.4175941221474
339,1436465832706,38.2407092780107
340,1436465833464,52.2310444392122
341,1436465834234,40.6401346134224
342,1436465834910,57.7532018600308
343,1436465835623,42.209912988071
344,1436465836349,68.6934411174423
345,1436465837068,55.7734585973512
346,1436465837795,44.3761127886904
347,1436465838522,50.0622712272638
348,1436465839207,40.7732803888073
349,1436465839817,31.6837472360864
350,1436465840517,42.4349576626068
351,1436465841259,61.2087393394023
352,1436465841996,39.8911111614339
353,1436465842677,37.0957002216816
354,1436465843328,32.2434983780248
355,1436465844042,48.3689929576679
356,1436465844770,43.3090990293757
357,1436465845486,67.5811072006583
358,1436465847586,39.3969883592182
359,1436465848313,35.7424198143059
360,1436465849069,39.1848598461999
361,1436465849802,44.9010070958636
362,1436465850543,45.4026261318955
363,1436465851285,38.2272928520889
364,1436465852031,38.2779871104091
365,1436465852779,43.9719068719408
366,1436465853503,29.1261100392752
367,1436465854157,23.5287941720161
368,1436465854896,24.9039980717235
369,1436465855636,44.88132476669
370,1436465856432,31.5482482686289
371,1436465857124,44.6984664734376
372,1436465857863,36.6426073527521
373,1436465858600,41.4551685114891
374,1436465859322,42.0000542275587
375,1436465860048,28.2652420318563
376,1436465861978,49.1218057326483
377,1436465862712,41.8478546223022
378,1436465863441,54.0309902038949
379,1436465864082,40.8143691850806
380,1436465864785,40.8927427086828
381,1436465865511,41.0355523397317
382,1436465866250,39.313718228935
383,1436465866974,51.8383779024192
384,1436465867702,45.2989327557159
385,1436465868427,44.5707860337382
386,1436465869145,41.0288988285521
387,1436465869875,41.0826656269394
388,1436465870607,41.5295407888885
389,1436465871346,43.190714015188
390,1436465872096,41.6084440437887
391,1436465872827,44.4271840073638
392,1436465873554,40.0770329893078
393,1436465874309,38.153137569136
394,1436465875001,39.8502126884229
395,1436465875729,47.6588236546029
396,1436465876480,39.7310137312825
397,1436465877179,47.0011188093758
398,1436465877877,44.3686531187331
399,1436465878600,50.161697506042
400,1436465879412,44.3715918846137
401,1436465880099,65.9740735636836
402,1436465880824,62.7470194960021
403,1436465881554,61.9955380174073
404,1436465882294,53.5986549238471
405,1436465883005,61.8637324349895
406,1436465884619,45.0140023863141
407,1436465885372,38.5927600574701
408,1436465886115,41.3100195294423
409,1436465886830,41.7378813379912
410,1436465887581,37.5497813673817
411,1436465888229,42.463350491482
412,1436465888920,41.9390373153128
413,1436465889675,37.8904496821157
414,1436465890407,45.1220976314619
415,1436465891127,39.3999925180144
416,1436465891859,40.5314747007412
417,1436465892584,38.7170251893366
418,1436465893331,44.4485416308213
419,1436465894107,40.1398856104809
420,1436465894834,40.1967807108503
421,1436465895496,35.5086041739915
422,1436465896162,35.5149122131926
423,1436465897599,35.2775686475954
424,1436465898262,38.9924209573544
425,1436465899031,36.6004050206415
426,1436465899788,36.7535886918135
427,1436465900499,34.4034847407198
428,1436465901233,39.1516353546921
429,1436465901950,35.312084714351
430,1436465902692,40.4049773430669
431,1436465903525,34.7729817389579
432,1436465904261,39.1971831594811
433,1436465905010,42.469423019133
434,1436465905741,31.4229832542132
435,1436465906466,38.3547944984541
436,1436465907145,36.6234136185559
437,1436465907859,38.5678058630024
438,1436465908614,37.9788926092354
439,1436465909320,44.381268639106
440,1436465909951,39.3515274469792
441,1436465910640,42.733996530808
442,1436465911390,45.5272928072141
443,1436465912095,53.1441169021267
444,1436465912837,37.4900516874108
445,1436465913574,47.0197923326585
446,1436465914307,37.2315975544256
447,1436465915080,53.0819231490186
448,1436465915798,36.0875068522148
449,1436465916493,56.5549115419494
450,1436465917154,42.9814638156391
451,1436465917894,60.1081469637151
452,1436465918631,43.1213611035796
453,1436465919388,58.8067658864041
454,1436465920093,40.3607757671937
455,1436465920734,34.4058049677744
456,1436465921455,34.3987029753323
457,1436465922190,29.4089663005303
458,1436465922919,31.6201211049365
459,1436465923651,39.2891145514825
460,1436465924389,39.7005100734609
461,1436465925159,63.4709919563522
462,1436465925902,55.1119878640952
463,1436465926626,48.1201464762203
464,1436465927253,53.6102783654453
465,1436465927969,44.4856968945571
466,1436465928707,51.5532576701266
467,1436465929502,47.9241275685965
468,1436465930287,57.5047778844687
469,1436465931001,47.4329977686225
470,1436465931732,53.0027188828821
471,1436465932461,49.3115353324169
472,1436465933182,51.5580058601381
473,1436465933915,45.9555642487981
474,1436465934679,39.0702895539082
475,1436465935433,58.3505502369162
476,1436465936141,45.4733171168268
477,1436465936829,57.0853559877755
478,1436465937549,40.9634944197171
479,1436465938201,64.7651232079369
480,1436465938927,43.7188096072619
481,1436465939676,65.1168245913801
482,1436465940394,40.5315441670237
483,1436465941064,62.5926499925236
484,1436465941789,45.6702973765732
485,1436465942529,61.6260158769462
486,1436465943265,45.5980815865032
487,1436465944020,62.3591855345968
488,1436465944756,44.1258881944814
489,1436465945499,63.7065240662918
490,1436465946231,42.1101575223948
491,1436465946985,59.6089112232096
492,1436465947725,41.2453185114631
493,1436465948447,63.0624493942445
494,1436465949146,43.79424246325
495,1436465949860,61.1756331133491
496,1436465950586,43.3634456382053
497,1436465951276,57.6591120881149
498,1436465951967,51.8029747280505
499,1436465952705,57.6908944427739
500,1436465953427,47.530553008275
501,1436465954166,55.9674646657237
502,1436465954901,52.8883949428999
503,1436465955691,54.3118748229666
504,1436465956408,53.4780969668069
505,1436465957133,54.788243350571
506,1436465957866,43.388363543223
507,1436465958604,45.5695135260013
508,1436465959336,41.2370368306646
509,1436465959988,50.5980823967198
510,1436465960657,44.2602723023055
511,1436465961400,58.1441852721875
512,1436465962065,43.9584820327135
513,1436465962767,55.1446318568065
514,1436465963444,38.7942335902951
515,1436465964178,35.5058288193149
516,1436465964905,34.2331858624744
517,1436465965651,39.2044499100611
518,1436465966399,37.5521816603973
519,1436465967131,36.3282601562022
520,1436465967874,39.5822683849406
521,1436465968636,34.2792967886896
522,1436465969382,38.0787240794226
523,1436465970062,37.6052414065808
524,1436465970762,43.6614483263635
525,1436465971491,38.7209498090156
526,1436465972216,46.1406846302897
527,1436465972917,45.2310806953796
528,1436465973645,58.6684613024724
529,1436465974418,45.7124254557081
530,1436465975168,59.0205657191602
531,1436465975911,44.7263159678694
532,1436465976649,48.7847806602811
533,1436465977382,44.7624124610984
534,1436465978122,53.5322432783306
535,1436465978854,45.3821210456451
536,1436465979594,47.8879632714792
537,1436465980217,42.4816198870839
538,1436465980914,54.0361551369647
539,1436465981638,42.6800338617777
540,1436465982392,44.3531207102422
541,1436465983114,37.2244977452959
542,1436465983889,36.9723299567894
543,1436465984648,37.9520862544199
544,1436465985400,37.0152353542764
545,1436465986117,33.8503558657456
546,1436465986849,39.8709332410654
547,1436465987579,55.2638313262339
548,1436465988314,44.84683463025
549,1436465989051,52.0086281950559
550,1436465989776,46.8867591169548
551,1436465990483,52.1629935018121
552,1436465991176,44.054988001666
553,1436465991912,54.1257172292625
554,1436465992659,42.6311367490209
555,1436465993440,43.0540445339528
556,1436465994148,64.44219622324
557,1436465994893,45.5501033195498
558,1436465995621,51.9347936065704
559,1436465996376,47.1461868388773
560,1436465997107,47.7148777237653
561,1436465997860,47.6691931297397
562,1436465998601,43.261242474096
563,1436465999365,57.1150348635682
564,1436466000093,45.9315602652345
565,1436466000715,55.1161159416704
566,1436466001387,37.2664370900282
567,1436466002112,37.6104347935061
568,1436466002827,33.8520832003282
569,1436466003588,47.4177925071355
570,1436466004329,42.7921532465476
571,1436466005064,44.9097024144118
572,1436466005798,39.2456520146976
573,1436466006532,47.267241363458
574,1436466007272,43.3763417227305
575,1436466008012,47.3457458371091
576,1436466008749,45.557053903114
