id,attr_time,attr_db
1,1436465583501,13.799712685516
2,1436465584253,10.6897465089409
3,1436465584974,9.82647661039337
4,1436465585694,11.6392420927024
5,1436465586414,12.4472082321973
6,1436465587146,61.0662329828813
7,1436465587927,40.4410766324814
8,1436465588685,68.8948129141175
9,1436465589402,68.9529944458096
10,1436465590125,67.7097135090311
11,1436465590883,67.745862100151
12,1436465591607,69.9762176716595
13,1436465592330,68.8069373605308
14,1436465593057,70.4752448260114
15,1436465593816,66.9650593287629
16,1436465594514,71.5795654632978
17,1436465595242,75.911554496129
18,1436465595979,73.0374618713894
19,1436465596708,73.5902610750019
20,1436465597410,70.9913996902246
21,1436465598140,65.8484253374605
22,1436465598918,74.9171018783494
23,1436465599602,67.306746764874
24,1436465600294,63.0180686845032
25,1436465600986,61.9374941531241
26,1436465601724,59.8676800050411
27,1436465602452,62.0871333974167
28,1436465603217,63.9289402401354
29,1436465603935,64.3838191197572
30,1436465604656,60.3953920655443
31,1436465605385,61.3531437864252
32,1436465606120,64.6782006538014
33,1436465606850,60.8327419973967
34,1436465607564,63.8851234677032
35,1436465608251,62.0694773817278
36,1436465608974,61.8220158984612
37,1436465609702,61.946357874687
38,1436465610427,64.1721823324271
39,1436465611155,68.0353315189633
40,1436465611894,65.6497570137953
41,1436465612553,72.3797493376042
42,1436465613327,69.4764783115155
43,1436465614050,70.8889511973239
44,1436465614770,68.2378245322279
45,1436465615487,70.831918458527
46,1436465616228,71.613354326682
47,1436465616953,73.6140148107451
48,1436465617674,72.5370536040552
49,1436465618359,68.5703761260889
50,1436465619124,73.3819414092105
51,1436465619792,65.047794317084
52,1436465620515,59.3121035951734
53,1436465621255,64.1996833855468
54,1436465622019,65.5159252572276
55,1436465622678,62.1353705853463
56,1436465623473,60.2160108505757
57,1436465624211,61.0950952270876
58,1436465624938,64.8425847608417
59,1436465625665,59.0982949450815
60,1436465626392,58.9675288338928
61,1436465627127,64.3821466583331
62,1436465627865,71.8829682880808
63,1436465628498,69.2157227045464
64,1436465629213,69.8604703417435
65,1436465629966,70.1057068653104
66,1436465630720,66.8898263980271
67,1436465631446,73.4412575794267
68,1436465632172,68.6040386252002
69,1436465632777,61.960354619946
70,1436465633469,61.9606635643494
71,1436465634237,61.3528355972808
72,1436465634973,64.4215381974639
73,1436465635703,60.4539319443969
74,1436465636439,61.8660880602762
75,1436465637175,70.5110260457865
76,1436465637906,73.1822763375599
77,1436465638555,68.9510262198411
78,1436465639265,71.2584776977632
79,1436465639989,74.3093803674521
80,1436465640736,72.3301217577007
81,1436465641390,74.4250637421341
82,1436465642839,63.4315847862539
83,1436465643478,62.8163989353647
84,1436465644178,61.5885968394281
85,1436465644911,59.293101561532
86,1436465645635,51.6994986736718
87,1436465646368,69.1542964211934
88,1436465647096,70.3119598660947
89,1436465647819,70.6417597670128
90,1436465649414,68.3017076051472
91,1436465650075,71.5888183056738
92,1436465650827,71.4524835641695
93,1436465651565,70.9951423953631
94,1436465652288,73.6397399124236
95,1436465653008,71.848545720216
96,1436465653744,65.681857463929
97,1436465654435,65.485340009016
98,1436465656440,69.9061683080155
99,1436465657140,71.4323283424011
100,1436465657886,71.8482263375775
101,1436465658648,72.2829436204674
102,1436465659265,71.0306915440769
103,1436465660776,74.1737493962176
104,1436465661450,61.9105944443875
105,1436465662264,59.842497997273
106,1436465662986,63.70761255705
107,1436465663640,65.1560140946773
108,1436465664344,61.1322729140911
109,1436465665080,58.9304952694314
110,1436465665826,66.448743055129
111,1436465666562,62.1712632226796
112,1436465667302,60.347259454644
113,1436465668117,61.0146756212241
114,1436465668838,59.8476483757212
115,1436465669468,68.0800446198532
116,1436465670178,68.7644164621991
117,1436465670915,76.1785090922903
118,1436465671651,70.0508351786584
119,1436465672365,70.4029673072929
120,1436465673083,69.992452704597
121,1436465673913,71.274643607137
122,1436465674639,69.2961020794667
123,1436465675361,65.6515896972582
124,1436465676088,70.8916562823999
125,1436465676825,70.9106161870429
126,1436465677546,72.4646580272183
127,1436465678196,61.057367586452
128,1436465678880,61.8240085037502
129,1436465679550,68.4353190075683
130,1436465680275,61.0622907380204
131,1436465680997,60.0064635214885
132,1436465681726,60.9761276158476
133,1436465682427,62.4491628850636
134,1436465683203,57.0435150243275
135,1436465684024,62.651752199948
136,1436465684750,62.3853197443977
137,1436465685475,59.8200227120762
138,1436465686201,60.4728545337384
139,1436465686915,63.3240462431216
140,1436465687668,69.2771208540994
141,1436465688420,66.056717779937
142,1436465689137,59.3677935162944
143,1436465689813,67.7123676238898
144,1436465690543,66.4948563561677
145,1436465691255,69.9328532908346
146,1436465691966,75.5551067678913
147,1436465692688,70.3766005801032
148,1436465693440,62.5796015617659
149,1436465694163,63.0117562629194
150,1436465694886,63.6012173922384
151,1436465695603,61.3770339348841
152,1436465696349,59.836158015554
153,1436465697087,60.9449572517721
154,1436465697811,58.9444491683011
155,1436465698573,59.0526925927482
156,1436465699266,60.6654025700078
157,1436465699896,58.1941494479518
158,1436465700576,65.7905151313089
159,1436465701299,68.6106295150448
160,1436465702029,71.7256625291155
161,1436465702799,71.8423514916464
162,1436465703523,68.568250602024
163,1436465704249,68.9273068620558
164,1436465704993,67.9115529156783
165,1436465705695,71.0631654230995
166,1436465706396,74.7105291258189
167,1436465707150,69.1414531984708
168,1436465707919,72.2728055652186
169,1436465708650,67.7982739094906
170,1436465709370,62.1872328105461
171,1436465710118,60.7488973947336
172,1436465710863,51.3528282048231
173,1436465711592,60.5860635076324
174,1436465712296,59.4726601209831
175,1436465713042,61.5282079944504
176,1436465713716,60.3525514033432
177,1436465714409,63.0342455046001
178,1436465715084,57.0329921308765
179,1436465715823,61.654427670954
180,1436465716551,69.6802898680263
181,1436465717267,71.3439113230212
182,1436465717991,68.6642764353771
183,1436465718606,72.25485389739
184,1436465719318,75.2228577962554
185,1436465720042,69.244623102571
186,1436465720794,64.8121463719024
187,1436465721520,68.4062179508034
188,1436465722255,63.436851958275
189,1436465722992,64.6968693617371
190,1436465723757,65.829829629809
191,1436465724468,60.7125101904291
192,1436465725143,60.7152689734799
193,1436465725798,60.3915854228199
194,1436465726520,60.238509854748
195,1436465727257,58.3019577788219
196,1436465728001,63.674751857482
197,1436465728717,72.1308471486321
198,1436465729428,67.5074811514292
199,1436465730157,70.3655373773637
200,1436465730878,71.5286247511528
201,1436465731608,70.8797845906674
202,1436465732345,66.5190675982987
203,1436465733066,68.8382734426585
204,1436465733818,69.0150995435151
205,1436465734546,68.1780028894775
206,1436465735270,72.6748236260033
207,1436465736004,74.1638618372233
208,1436465736686,70.5850690665382
209,1436465737304,57.0723365388689
210,1436465737985,59.1670907327632
211,1436465738710,60.2089465634096
212,1436465739516,58.7060090382348
213,1436465740244,56.8317632836923
214,1436465740988,57.7908604702537
215,1436465741671,60.6532699329698
216,1436465742404,65.2088511840858
217,1436465743184,68.3918203407827
218,1436465743917,68.8089878905245
219,1436465744656,64.8480496959291
220,1436465745374,70.6516568877464
221,1436465746101,67.7148626039323
222,1436465746844,64.0122853324988
223,1436465747565,65.9420886665675
224,1436465748267,63.3739882159565
225,1436465748937,68.3608438654499
226,1436465749627,72.2337315822669
227,1436465750348,65.3752393076697
228,1436465751094,71.1766226832472
229,1436465751820,67.2761159044195
230,1436465752545,64.4120445887432
231,1436465753283,71.5338953581373
232,1436465754059,70.9282969755891
233,1436465754787,72.7250626845774
234,1436465755526,70.4528589135014
235,1436465756243,74.8890502590744
236,1436465756983,71.0116885994166
237,1436465757728,67.5365811538984
238,1436465758468,64.6985049781262
239,1436465759194,67.5229985193144
240,1436465759926,69.3368114201375
241,1436465760566,65.214882687582
242,1436465761304,64.4703434203905
243,1436465762025,60.1226487900689
244,1436465762777,63.5252266058696
245,1436465763504,63.0284231783088
246,1436465764179,58.9154587240337
247,1436465764852,59.9162719430009
248,1436465765561,60.7336884191238
249,1436465766302,62.5205958923455
250,1436465767033,65.1001566303637
251,1436465767754,62.8469571322044
252,1436465768475,59.5155522448046
253,1436465769222,60.6992670344567
254,1436465769949,55.494605564363
255,1436465770675,58.1977391599169
256,1436465771347,64.3556386194142
257,1436465772070,67.6688630440267
258,1436465772833,63.517903768429
259,1436465773565,64.297878280035
260,1436465774328,65.2443495475533
261,1436465775072,59.2694148621791
262,1436465775763,68.2163936125849
263,1436465776487,66.3744963389152
264,1436465777222,71.4570932688796
265,1436465777959,70.9615417218309
266,1436465778694,69.7501782221545
267,1436465779424,68.7450000701587
268,1436465780235,61.3150605959552
269,1436465780882,68.7715530245816
270,1436465781602,66.4003781918237
271,1436465782334,66.3651837650003
272,1436465783124,68.247059578636
273,1436465783888,66.6094265386111
274,1436465784620,73.2778590336578
275,1436465785353,68.2023411382032
276,1436465786075,65.4221535761565
277,1436465786814,66.1385574828044
278,1436465787531,71.1712934357431
279,1436465788284,67.2096331917057
280,1436465789081,63.4000933598764
281,1436465789815,69.9477414286428
282,1436465790537,67.6656156067608
283,1436465791272,68.4119553608603
284,1436465791973,65.5909792956548
285,1436465792649,67.3033298603885
286,1436465793331,70.9243294732261
287,1436465794062,70.8931145064532
288,1436465794810,69.3200546127072
289,1436465795520,73.7755071959932
290,1436465796270,73.1004206780688
291,1436465797023,59.1090653300049
292,1436465797625,61.0882205295317
293,1436465798344,61.1268934276521
294,1436465799066,59.8653430114385
295,1436465799795,62.1068115474011
296,1436465800488,66.1907158304275
297,1436465801168,61.0625169386408
298,1436465801897,60.2934443490309
299,1436465802627,60.4069958667728
300,1436465803368,62.7688874617286
301,1436465804062,64.713794964387
302,1436465804711,62.6388601396042
303,1436465805404,55.156389091564
304,1436465806136,67.2919030353208
305,1436465806903,62.553967492739
306,1436465807595,59.6488687695693
307,1436465808262,65.3818741652086
308,1436465809007,66.3598985329762
309,1436465809733,67.3150206934697
310,1436465810465,65.8606822195282
311,1436465811195,68.3136667370445
312,1436465811910,68.7855212170855
313,1436465812650,68.2095106857555
314,1436465813384,69.4757671910639
315,1436465814128,65.8730147389355
316,1436465814809,71.1496757961169
317,1436465815526,73.4333413871074
318,1436465816279,74.7983989033789
319,1436465817069,73.7153768084326
320,1436465817709,65.9861627916266
321,1436465818402,63.4375753821012
322,1436465819098,60.1858460654962
323,1436465819859,61.5875474687973
324,1436465820578,57.4701021918805
325,1436465821224,60.6242311031603
326,1436465821906,60.0609905163431
327,1436465822623,62.1359689993336
328,1436465823366,63.8599948110025
329,1436465824108,62.7992948036306
330,1436465824800,68.1078815810214
331,1436465825400,67.3180761922474
332,1436465826065,72.1927592040639
333,1436465826857,70.7384487729183
334,1436465827588,72.2366119968395
335,1436465828282,73.0500460227141
336,1436465828992,63.7578747246542
337,1436465829724,48.7866301575371
338,1436465830459,67.4577540127725
339,1436465831210,28.1500437223585
340,1436465831939,31.928624039693
341,1436465832660,57.6472958583432
342,1436465833432,49.0487358547501
343,1436465834168,32.389508883597
344,1436465834894,22.4530562323935
345,1436465835623,25.0162566526041
346,1436465836356,26.8652783417585
347,1436465837091,37.2819781537713
348,1436465837818,36.3847828970625
349,1436465838526,38.0144827062742
350,1436465839256,29.5098401828737
351,1436465839977,27.2703541695473
352,1436465840690,61.1389910334328
353,1436465841360,34.0631092574237
354,1436465842130,32.9936469304161
355,1436465842848,20.4282272610464
356,1436465843594,29.0307429490479
357,1436465844281,42.5991645333715
358,1436465844913,22.0193515458197
359,1436465845499,52.4759896145473
360,1436465846730,29.0132580927173
361,1436465847433,28.1986047919501
362,1436465848141,32.3255093670614
363,1436465848804,21.2604968128344
364,1436465849545,28.1343883518617
365,1436465850285,34.8414567095523
366,1436465851021,39.4892859905418
367,1436465851766,31.9195941102174
368,1436465852499,26.4763759560652
369,1436465853227,39.1350995526701
370,1436465854011,35.7937961603416
371,1436465854745,40.0354635712276
372,1436465855468,36.411051805947
373,1436465856171,28.8069902221987
374,1436465857225,37.1050968427686
375,1436465857965,32.6894449118555
376,1436465858700,30.7927269344486
377,1436465859382,60.0093395274675
378,1436465860066,71.2802106213488
379,1436465860771,69.1867167185466
380,1436465861492,68.2002246183397
381,1436465862221,68.938671229727
382,1436465862959,68.1050341628649
383,1436465863665,69.0507292834675
384,1436465864343,67.4963076385844
385,1436465865072,72.2710782986138
386,1436465865799,72.9578961706649
387,1436465866534,70.6151561283325
388,1436465867252,70.8373269099958
389,1436465867994,72.0448831932259
390,1436465868731,70.9201518794937
391,1436465869447,68.453919650922
392,1436465870149,67.8980803817731
393,1436465870847,70.7118471671236
394,1436465872623,62.7164565017412
395,1436465873347,64.298329736512
396,1436465874115,61.6811309515451
397,1436465874837,69.8525072531503
398,1436465875550,61.919838082424
399,1436465876293,60.9605587872453
400,1436465877031,61.3877531869027
401,1436465877744,61.7943684937395
402,1436465878486,65.9869576013466
403,1436465879247,61.4686521294278
404,1436465879839,66.8070785779396
405,1436465881105,64.0279505535013
406,1436465881873,67.574374143106
407,1436465882600,67.0779154770107
408,1436465883330,69.444833542339
409,1436465884109,70.2505052680753
410,1436465884836,72.5657347681823
411,1436465885556,71.1944260268639
412,1436465886298,66.2874186097856
413,1436465887033,68.4298727563352
414,1436465887748,64.6041358758887
415,1436465888467,69.9998794708621
416,1436465889272,66.0750661599698
417,1436465889995,69.9588775405579
418,1436465890703,69.7769679773876
419,1436465891372,72.9229783671316
420,1436465892098,70.0756978463222
421,1436465892851,65.7012476909013
422,1436465893556,62.1011036218684
423,1436465894344,71.9589842719905
424,1436465895080,75.4212727724155
425,1436465895748,65.0996543254745
426,1436465896476,62.1522029172857
427,1436465897202,65.6199649167258
428,1436465897950,70.4503082913846
429,1436465898740,73.96075636638
430,1436465899461,72.6867756918956
431,1436465900192,71.3937982966169
432,1436465900918,67.0772216602293
433,1436465901552,64.8050364434965
434,1436465902275,70.4048530095494
435,1436465903000,67.3771102628756
436,1436465903775,65.8246353082028
437,1436465904542,75.3817382319681
438,1436465905378,70.2394981586281
439,1436465906107,69.6390768439824
440,1436465906837,72.209664947585
441,1436465907560,68.8429947217917
442,1436465908243,69.0424050543125
443,1436465908920,74.6006747176148
444,1436465909652,70.5551613895942
445,1436465910376,73.87514846585
446,1436465911091,73.5711021930115
447,1436465911803,64.3431797373166
448,1436465912548,65.3612311954262
449,1436465913291,65.1514773881208
450,1436465914035,58.8761528822431
451,1436465914778,63.0046526322436
452,1436465915501,63.4581490605867
453,1436465916166,61.4299912665306
454,1436465916829,63.5026515654531
455,1436465917558,64.2366579562287
456,1436465918282,61.1486894673461
457,1436465919006,58.0502708328419
458,1436465919728,64.7020423388038
459,1436465920464,65.7148158585977
460,1436465921238,65.84212528107
461,1436465921867,67.9788558485098
462,1436465922550,68.8072516851317
463,1436465923266,75.583544745161
464,1436465924024,73.6765976577882
465,1436465924768,70.2772376657417
466,1436465925501,71.8351094893862
467,1436465926227,72.5645003496548
468,1436465926963,72.0336690056961
469,1436465927699,72.4665301371855
470,1436465928420,67.3585086738357
471,1436465929129,65.9457745252994
472,1436465929893,65.9780129253412
473,1436465930612,67.527724298314
474,1436465931350,64.6032079826084
475,1436465932092,64.0945859896195
476,1436465932857,64.9125926214639
477,1436465933594,62.8851632115041
478,1436465934330,64.8461547119292
479,1436465935060,60.5561949449192
480,1436465935806,64.4599505187246
481,1436465936546,64.5081946159264
482,1436465937262,64.2262159074903
483,1436465938004,63.7004316793924
484,1436465938647,61.8253387051958
485,1436465939343,63.6537036162658
486,1436465940081,62.4412289935604
487,1436465940821,62.8983509313763
488,1436465941543,62.5074840345418
489,1436465942147,62.3869344678901
490,1436465942824,75.0129921509016
491,1436465943545,66.0452512296606
492,1436465944267,71.5428363920959
493,1436465944996,72.4770135758364
494,1436465945745,68.2089363355336
495,1436465946472,71.3331999028513
496,1436465947203,69.301382962369
497,1436465947940,73.0973988395098
498,1436465948678,69.1791093373326
499,1436465949328,65.5745669858719
500,1436465950038,71.7904094914767
501,1436465950775,66.3763431839682
502,1436465951499,70.2380040056378
503,1436465952231,75.0785379495472
504,1436465952962,75.6394802467967
505,1436465953648,74.6495236415275
506,1436465954299,68.3139807011159
507,1436465955016,63.1922999461914
508,1436465955755,60.5393000510228
509,1436465956477,61.8310109715247
510,1436465957155,62.6076219827385
511,1436465957837,62.8969322795011
512,1436465958547,64.7283299943354
513,1436465959263,62.1994144010562
514,1436465959924,61.6805808313991
515,1436465960666,56.474093554772
516,1436465961396,61.2419242748599
517,1436465962091,64.083532678751
518,1436465962822,64.2697604517618
519,1436465963494,69.4346259459423
520,1436465964293,68.5802368497749
521,1436465965009,70.350304184888
522,1436465965766,65.0128244335001
523,1436465966492,70.7236635748812
524,1436465967229,72.5675548059127
525,1436465967965,68.1300431430174
526,1436465968679,66.1840838545632
527,1436465969400,70.4033049922926
528,1436465970051,73.4010593419343
529,1436465970798,73.0115466826699
530,1436465971507,74.3579018571259
531,1436465972243,74.0531394070507
532,1436465972976,76.2144849730533
533,1436465973716,74.7845745509682
534,1436465974421,73.1670459191098
535,1436465975121,66.700100410382
536,1436465975845,59.5764731205232
537,1436465976574,67.1740613744795
538,1436465977311,64.2633143925022
539,1436465978053,62.4177409851293
540,1436465978776,62.3292034362019
541,1436465979493,60.5837967740511
542,1436465980231,62.6537701377736
543,1436465980958,61.5297339349771
544,1436465981673,59.6571553049426
545,1436465982392,61.7192781136677
546,1436465983125,65.5777861783157
547,1436465983885,61.5871584288488
548,1436465984594,61.6728023736611
549,1436465985248,64.1648313872549
550,1436465985946,64.1094894247048
551,1436465986665,69.3785907672497
552,1436465987389,69.1117356426116
553,1436465988069,73.8183258738472
554,1436465988797,70.7138612498381
555,1436465989498,71.3819544522328
556,1436465990158,73.4641573487791
557,1436465990878,74.8520247842886
558,1436465991604,73.5307003432187
559,1436465992323,74.5905490079882
560,1436465993183,64.8522565419032
561,1436465993917,67.396695661787
562,1436465994701,71.4447343701709
563,1436465995438,67.0959701334733
564,1436465996175,69.6953571160027
565,1436465996936,64.6927487578972
566,1436465997657,66.4035060123395
567,1436465998387,68.89637205205
568,1436465999117,71.5421678915224
569,1436465999870,67.333678800637
570,1436466000504,74.8337508619131
571,1436466001211,63.4076689585272
572,1436466001930,66.7973464678786
573,1436466002624,62.5478281769762
574,1436466003336,63.3980524319346
575,1436466004148,65.1214396344676
