id,attr_time,attr_light
1,1436546581517,22.0
2,1436546581542,23.0
3,1436546581559,23.0
4,1436546581579,23.0
5,1436546581600,23.0
6,1436546581620,23.0
7,1436546581642,23.0
8,1436546581659,23.0
9,1436546581682,23.0
10,1436546581702,23.0
11,1436546581722,23.0
12,1436546581741,23.0
13,1436546581762,23.0
14,1436546581782,23.0
15,1436546581800,23.0
16,1436546581818,23.0
17,1436546581842,23.0
18,1436546581861,23.0
19,1436546581881,23.0
20,1436546581901,23.0
21,1436546581923,23.0
22,1436546581942,23.0
23,1436546581961,23.0
24,1436546581982,23.0
25,1436546582002,23.0
26,1436546582024,23.0
27,1436546582044,23.0
28,1436546582061,23.0
29,1436546582082,23.0
30,1436546582148,23.0
31,1436546582149,23.0
32,1436546582150,23.0
33,1436546582176,23.0
34,1436546582179,23.0
35,1436546582201,23.0
36,1436546582221,23.0
37,1436546582239,23.0
38,1436546582265,23.0
39,1436546582280,22.0
40,1436546582301,22.0
41,1436546582320,22.0
42,1436546582340,22.0
43,1436546582365,22.0
44,1436546582381,22.0
45,1436546582402,22.0
46,1436546582422,22.0
47,1436546582443,22.0
48,1436546582462,22.0
49,1436546582482,22.0
50,1436546582502,22.0
51,1436546582524,22.0
52,1436546582539,22.0
53,1436546582560,22.0
54,1436546582581,22.0
55,1436546582599,22.0
56,1436546582623,22.0
57,1436546582642,22.0
58,1436546582662,22.0
59,1436546582682,22.0
60,1436546582703,22.0
61,1436546582723,22.0
62,1436546582740,22.0
63,1436546582763,22.0
64,1436546582783,22.0
65,1436546582803,22.0
66,1436546582822,22.0
67,1436546582847,22.0
68,1436546582922,22.0
69,1436546582923,22.0
70,1436546582924,22.0
71,1436546582925,22.0
72,1436546582942,22.0
73,1436546582966,22.0
74,1436546582981,21.0
75,1436546583002,21.0
76,1436546583022,21.0
77,1436546583041,21.0
78,1436546583060,21.0
79,1436546583081,21.0
80,1436546583105,21.0
81,1436546583122,21.0
82,1436546583143,21.0
83,1436546583162,21.0
84,1436546583183,21.0
85,1436546583203,21.0
86,1436546583223,21.0
87,1436546583243,21.0
88,1436546583260,21.0
89,1436546583283,21.0
90,1436546583302,21.0
91,1436546583321,21.0
92,1436546583343,21.0
93,1436546583363,21.0
94,1436546583382,21.0
95,1436546583402,21.0
96,1436546583423,21.0
97,1436546583443,21.0
98,1436546583464,21.0
99,1436546583483,21.0
100,1436546583502,21.0
101,1436546583524,21.0
102,1436546583543,21.0
103,1436546583563,21.0
104,1436546583582,21.0
105,1436546583663,21.0
106,1436546583664,21.0
107,1436546583665,21.0
108,1436546583666,21.0
109,1436546583683,21.0
110,1436546583704,21.0
111,1436546583721,21.0
112,1436546583746,21.0
113,1436546583774,21.0
114,1436546583782,21.0
115,1436546583801,21.0
116,1436546583823,21.0
117,1436546583844,21.0
118,1436546583864,21.0
119,1436546583883,21.0
120,1436546583904,21.0
121,1436546583924,21.0
122,1436546583944,21.0
123,1436546583964,21.0
124,1436546583982,21.0
125,1436546584003,21.0
126,1436546584024,21.0
127,1436546584042,21.0
128,1436546584062,21.0
129,1436546584082,21.0
130,1436546584102,21.0
131,1436546584123,21.0
132,1436546584142,21.0
133,1436546584164,21.0
134,1436546584184,21.0
135,1436546584205,21.0
136,1436546584224,21.0
137,1436546584243,21.0
138,1436546584262,21.0
139,1436546584284,21.0
140,1436546584302,21.0
141,1436546584322,21.0
142,1436546584396,21.0
143,1436546584401,21.0
144,1436546584402,21.0
145,1436546584403,21.0
146,1436546584423,21.0
147,1436546584446,21.0
148,1436546584461,21.0
149,1436546584483,21.0
150,1436546584502,21.0
151,1436546584522,21.0
152,1436546584547,21.0
153,1436546584565,21.0
154,1436546584584,21.0
155,1436546584601,21.0
156,1436546584621,20.0
157,1436546584641,20.0
158,1436546584665,20.0
159,1436546584684,20.0
160,1436546584703,20.0
161,1436546584725,20.0
162,1436546584744,20.0
163,1436546584774,20.0
164,1436546584781,20.0
165,1436546584812,20.0
166,1436546584821,20.0
167,1436546584841,20.0
168,1436546584862,20.0
169,1436546584881,21.0
170,1436546584902,21.0
171,1436546584934,21.0
172,1436546584945,21.0
173,1436546584963,21.0
174,1436546584982,21.0
175,1436546585003,21.0
176,1436546585022,21.0
177,1436546585043,22.0
178,1436546585061,22.0
179,1436546585094,23.0
180,1436546585102,23.0
181,1436546585121,26.0
182,1436546585141,26.0
183,1436546585171,32.0
184,1436546585181,32.0
185,1436546585201,36.0
186,1436546585221,36.0
187,1436546585240,37.0
188,1436546585260,37.0
189,1436546585280,37.0
190,1436546585300,37.0
191,1436546585320,35.0
192,1436546585340,35.0
193,1436546585360,34.0
194,1436546585380,34.0
195,1436546585400,36.0
196,1436546585420,36.0
197,1436546585440,37.0
198,1436546585460,37.0
199,1436546585480,39.0
200,1436546585500,39.0
201,1436546585522,46.0
202,1436546585542,46.0
203,1436546585563,43.0
204,1436546585583,43.0
205,1436546585602,49.0
206,1436546585628,49.0
207,1436546585648,53.0
208,1436546585665,53.0
209,1436546585682,54.0
210,1436546585710,54.0
211,1436546587301,54.0
212,1436546587302,55.0
213,1436546587303,55.0
214,1436546587304,55.0
215,1436546587305,55.0
216,1436546587306,55.0
217,1436546587307,55.0
218,1436546587308,54.0
219,1436546587309,54.0
220,1436546587310,55.0
221,1436546587311,55.0
222,1436546587312,56.0
223,1436546587313,56.0
224,1436546587314,57.0
225,1436546587315,57.0
226,1436546587316,59.0
227,1436546587317,59.0
228,1436546587318,60.0
229,1436546587319,60.0
230,1436546587320,61.0
231,1436546587321,61.0
232,1436546587322,59.0
233,1436546587323,59.0
234,1436546587324,55.0
235,1436546587325,55.0
236,1436546587326,51.0
237,1436546587327,51.0
238,1436546587328,45.0
239,1436546587329,45.0
240,1436546587330,40.0
241,1436546587331,40.0
242,1436546587332,36.0
243,1436546587333,36.0
244,1436546587334,33.0
245,1436546587335,33.0
246,1436546587336,28.0
247,1436546587337,28.0
248,1436546587338,24.0
249,1436546587339,24.0
250,1436546587340,20.0
251,1436546587341,17.0
252,1436546587342,17.0
253,1436546587343,17.0
254,1436546587344,17.0
255,1436546587345,21.0
256,1436546587346,21.0
257,1436546587347,24.0
258,1436546587348,24.0
259,1436546587349,25.0
260,1436546587350,25.0
261,1436546587351,26.0
262,1436546587352,26.0
263,1436546587353,27.0
264,1436546587354,27.0
265,1436546587355,27.0
266,1436546587356,27.0
267,1436546587357,28.0
268,1436546587358,28.0
269,1436546587359,29.0
270,1436546587360,29.0
271,1436546587361,30.0
272,1436546587362,30.0
273,1436546587363,31.0
274,1436546587364,31.0
275,1436546587365,33.0
276,1436546587366,33.0
277,1436546587367,36.0
278,1436546587368,36.0
279,1436546587369,40.0
280,1436546587370,40.0
281,1436546587371,44.0
282,1436546587372,44.0
283,1436546587373,47.0
284,1436546587374,47.0
285,1436546587375,49.0
286,1436546587376,49.0
287,1436546587377,50.0
288,1436546587378,50.0
289,1436546587379,51.0
290,1436546587380,51.0
291,1436546587381,50.0
292,1436546587382,49.0
293,1436546587383,49.0
294,1436546587384,48.0
295,1436546587402,48.0
296,1436546587422,48.0
297,1436546587442,48.0
298,1436546587462,47.0
299,1436546587482,47.0
300,1436546587502,46.0
301,1436546587522,46.0
302,1436546587542,45.0
303,1436546587565,45.0
304,1436546587584,44.0
305,1436546587603,44.0
306,1436546587625,41.0
307,1436546587643,41.0
308,1436546587663,39.0
309,1436546587685,39.0
310,1436546587706,36.0
311,1436546587747,36.0
312,1436546587748,34.0
313,1436546587786,34.0
314,1436546587787,34.0
315,1436546587804,34.0
316,1436546587825,35.0
317,1436546587846,35.0
318,1436546587872,37.0
319,1436546587902,37.0
320,1436546587903,39.0
321,1436546587924,39.0
322,1436546587946,40.0
323,1436546587964,40.0
324,1436546587984,40.0
325,1436546588008,40.0
326,1436546588025,40.0
327,1436546588047,40.0
328,1436546588065,39.0
329,1436546588084,39.0
330,1436546588107,38.0
331,1436546588124,38.0
332,1436546588145,38.0
333,1436546588165,39.0
334,1436546588183,39.0
335,1436546588204,40.0
336,1436546588225,40.0
337,1436546588244,41.0
338,1436546588265,41.0
339,1436546588283,42.0
340,1436546588304,42.0
341,1436546588325,43.0
342,1436546588344,43.0
343,1436546588364,44.0
344,1436546588384,44.0
345,1436546588411,44.0
346,1436546588425,44.0
347,1436546588445,43.0
348,1436546588465,43.0
349,1436546588484,43.0
350,1436546588504,43.0
351,1436546588524,42.0
352,1436546588545,42.0
353,1436546588572,39.0
354,1436546588583,39.0
355,1436546588604,35.0
356,1436546588625,35.0
357,1436546588644,30.0
358,1436546588663,30.0
359,1436546588685,30.0
360,1436546588709,30.0
361,1436546588729,36.0
362,1436546588745,36.0
363,1436546588766,45.0
364,1436546588789,45.0
365,1436546588809,50.0
366,1436546588826,50.0
367,1436546588845,54.0
368,1436546588866,54.0
369,1436546588886,56.0
370,1436546588907,56.0
371,1436546588926,57.0
372,1436546588949,58.0
373,1436546588964,58.0
374,1436546588986,59.0
375,1436546589006,59.0
376,1436546589028,59.0
377,1436546589049,59.0
378,1436546589069,59.0
379,1436546589086,59.0
380,1436546589105,59.0
381,1436546589125,59.0
382,1436546589145,59.0
383,1436546589167,59.0
384,1436546589273,59.0
385,1436546589274,59.0
386,1436546589275,59.0
387,1436546589279,59.0
388,1436546589280,59.0
389,1436546589333,59.0
390,1436546589334,59.0
391,1436546589335,59.0
392,1436546589379,59.0
393,1436546589380,59.0
394,1436546589387,59.0
395,1436546589406,59.0
396,1436546589429,59.0
397,1436546589447,59.0
398,1436546589467,60.0
399,1436546589486,60.0
400,1436546589506,60.0
401,1436546589529,60.0
402,1436546589549,60.0
403,1436546589566,60.0
404,1436546589586,60.0
405,1436546589609,60.0
406,1436546589629,60.0
407,1436546589649,60.0
408,1436546589667,60.0
409,1436546589687,60.0
410,1436546589712,60.0
411,1436546589727,60.0
412,1436546589751,60.0
413,1436546589766,60.0
414,1436546589786,60.0
415,1436546589806,60.0
416,1436546589827,60.0
417,1436546589853,60.0
418,1436546589867,60.0
419,1436546589901,60.0
420,1436546589906,60.0
421,1436546589928,60.0
422,1436546589988,60.0
423,1436546589989,60.0
424,1436546589990,60.0
425,1436546590006,60.0
426,1436546590026,60.0
427,1436546590046,60.0
428,1436546590068,60.0
429,1436546590087,60.0
430,1436546590107,60.0
431,1436546590126,59.0
432,1436546590152,59.0
433,1436546590168,59.0
434,1436546590187,59.0
435,1436546590207,59.0
436,1436546590227,59.0
437,1436546590249,59.0
438,1436546590270,59.0
439,1436546590288,59.0
440,1436546590309,59.0
441,1436546590329,59.0
442,1436546590351,59.0
443,1436546590375,59.0
444,1436546590394,59.0
445,1436546590434,59.0
446,1436546590435,59.0
447,1436546590449,59.0
448,1436546590573,59.0
449,1436546590574,59.0
450,1436546590575,59.0
451,1436546590576,59.0
452,1436546590577,59.0
453,1436546590578,59.0
454,1436546590590,59.0
455,1436546590611,59.0
456,1436546590630,59.0
457,1436546590648,59.0
458,1436546590668,59.0
459,1436546590698,59.0
460,1436546590706,59.0
461,1436546590726,59.0
462,1436546590746,59.0
463,1436546590768,59.0
464,1436546590787,59.0
465,1436546590808,59.0
466,1436546590828,59.0
467,1436546590850,59.0
468,1436546590868,59.0
469,1436546590889,59.0
470,1436546590906,59.0
471,1436546590926,59.0
472,1436546590951,59.0
473,1436546590968,59.0
474,1436546590990,59.0
475,1436546591009,59.0
476,1436546591029,59.0
477,1436546591050,59.0
478,1436546591071,59.0
479,1436546591091,59.0
480,1436546591106,60.0
481,1436546591129,60.0
482,1436546591149,60.0
483,1436546591166,60.0
484,1436546591189,60.0
485,1436546591208,60.0
486,1436546591233,60.0
487,1436546591253,60.0
488,1436546591274,60.0
489,1436546591290,60.0
490,1436546591312,60.0
491,1436546591395,60.0
492,1436546591396,60.0
493,1436546591397,60.0
494,1436546591398,60.0
495,1436546591422,60.0
496,1436546591428,60.0
497,1436546591458,60.0
498,1436546591468,60.0
499,1436546591500,60.0
500,1436546591521,60.0
501,1436546591528,60.0
502,1436546591548,60.0
503,1436546591568,60.0
504,1436546591588,60.0
505,1436546591612,60.0
506,1436546591631,60.0
507,1436546591652,60.0
508,1436546591672,60.0
509,1436546591691,60.0
510,1436546591711,60.0
511,1436546591731,60.0
512,1436546591751,60.0
513,1436546591770,60.0
514,1436546591788,60.0
515,1436546591812,60.0
516,1436546591829,60.0
517,1436546593479,60.0
518,1436546593480,60.0
519,1436546593481,60.0
520,1436546593482,60.0
521,1436546593483,60.0
522,1436546593484,60.0
523,1436546593485,60.0
524,1436546593486,60.0
525,1436546593487,59.0
526,1436546593488,59.0
527,1436546593489,60.0
528,1436546593490,60.0
529,1436546593491,60.0
530,1436546593492,60.0
531,1436546593493,60.0
532,1436546593494,60.0
533,1436546593495,60.0
534,1436546593496,60.0
535,1436546593497,60.0
536,1436546593498,60.0
537,1436546593499,60.0
538,1436546593500,60.0
539,1436546593501,60.0
540,1436546593502,60.0
541,1436546593503,60.0
542,1436546593504,60.0
543,1436546593505,60.0
544,1436546593506,60.0
545,1436546593507,60.0
546,1436546593508,60.0
547,1436546593509,60.0
548,1436546593510,60.0
549,1436546593511,60.0
550,1436546593512,60.0
551,1436546593513,60.0
552,1436546593514,60.0
553,1436546593515,60.0
554,1436546593516,60.0
555,1436546593517,60.0
556,1436546593518,60.0
557,1436546593519,60.0
558,1436546593520,60.0
559,1436546593521,60.0
560,1436546593522,60.0
561,1436546593523,60.0
562,1436546593524,60.0
563,1436546593525,60.0
564,1436546593526,60.0
565,1436546593527,60.0
566,1436546593528,59.0
567,1436546593529,59.0
568,1436546593530,59.0
569,1436546593531,59.0
570,1436546593532,59.0
571,1436546593533,59.0
572,1436546593534,59.0
573,1436546593535,59.0
574,1436546593536,59.0
575,1436546593537,58.0
576,1436546593538,58.0
577,1436546593539,57.0
578,1436546593540,57.0
579,1436546593541,53.0
580,1436546593542,53.0
581,1436546593543,52.0
582,1436546593544,52.0
583,1436546593545,57.0
584,1436546593546,57.0
585,1436546593547,57.0
586,1436546593548,57.0
587,1436546593549,57.0
588,1436546593550,57.0
589,1436546593551,56.0
590,1436546593552,56.0
591,1436546593553,56.0
592,1436546593554,56.0
593,1436546593555,55.0
594,1436546593556,55.0
595,1436546593557,55.0
596,1436546593558,55.0
597,1436546593559,55.0
598,1436546593560,55.0
599,1436546593561,55.0
600,1436546593562,55.0
601,1436546593563,55.0
602,1436546593564,55.0
603,1436546593568,55.0
604,1436546593588,55.0
605,1436546593608,55.0
606,1436546593628,55.0
607,1436546593648,55.0
608,1436546593668,55.0
609,1436546593688,55.0
610,1436546593708,55.0
611,1436546593728,55.0
612,1436546593751,55.0
613,1436546593769,55.0
614,1436546593791,55.0
615,1436546593813,55.0
616,1436546593829,55.0
617,1436546593852,55.0
618,1436546593872,55.0
619,1436546593893,55.0
620,1436546593913,55.0
621,1436546593933,55.0
622,1436546593953,55.0
623,1436546593973,55.0
624,1436546593992,55.0
625,1436546594011,55.0
626,1436546594031,55.0
627,1436546594052,55.0
628,1436546594076,55.0
629,1436546594093,55.0
630,1436546594109,55.0
631,1436546594129,55.0
632,1436546594149,56.0
633,1436546594170,56.0
634,1436546594194,56.0
635,1436546594212,56.0
636,1436546594233,56.0
637,1436546594254,56.0
638,1436546594272,56.0
639,1436546594290,56.0
640,1436546594314,56.0
641,1436546594334,56.0
642,1436546594354,56.0
643,1436546594371,56.0
644,1436546594394,56.0
645,1436546594414,56.0
646,1436546594433,56.0
647,1436546594454,56.0
648,1436546594473,56.0
649,1436546594494,56.0
650,1436546594514,56.0
651,1436546594534,56.0
652,1436546594563,56.0
653,1436546594574,56.0
654,1436546594593,56.0
655,1436546594664,56.0
656,1436546594665,56.0
657,1436546594666,56.0
658,1436546594764,56.0
659,1436546594780,56.0
660,1436546594781,56.0
661,1436546594782,56.0
662,1436546594783,56.0
663,1436546594784,56.0
664,1436546594792,56.0
665,1436546594811,56.0
666,1436546594865,56.0
667,1436546594866,56.0
668,1436546594886,56.0
669,1436546594892,56.0
670,1436546594918,56.0
671,1436546594932,55.0
672,1436546594955,55.0
673,1436546594971,55.0
674,1436546594994,55.0
675,1436546595013,55.0
676,1436546595033,55.0
677,1436546595052,56.0
678,1436546595072,56.0
679,1436546595091,57.0
680,1436546595113,57.0
681,1436546595135,57.0
682,1436546595153,57.0
683,1436546595175,52.0
684,1436546595191,52.0
685,1436546595215,52.0
686,1436546595234,52.0
687,1436546595254,54.0
688,1436546595274,54.0
689,1436546595296,57.0
690,1436546595315,57.0
691,1436546595335,59.0
692,1436546595354,59.0
693,1436546595373,60.0
694,1436546595393,60.0
695,1436546595421,60.0
696,1436546595513,60.0
697,1436546595514,60.0
698,1436546595515,60.0
699,1436546595516,60.0
700,1436546595517,60.0
701,1436546595534,60.0
702,1436546595553,60.0
703,1436546595572,60.0
704,1436546595593,60.0
705,1436546595615,60.0
706,1436546595634,60.0
707,1436546595657,60.0
708,1436546595674,60.0
709,1436546595695,60.0
710,1436546595714,60.0
711,1436546595735,60.0
712,1436546595755,60.0
713,1436546595775,60.0
714,1436546595795,60.0
715,1436546595814,60.0
716,1436546595835,60.0
717,1436546595855,60.0
718,1436546595875,60.0
719,1436546595893,60.0
720,1436546595913,59.0
721,1436546595935,59.0
722,1436546595952,59.0
723,1436546595972,59.0
724,1436546595994,59.0
725,1436546596015,59.0
726,1436546596037,59.0
727,1436546596058,59.0
728,1436546596074,59.0
729,1436546596093,59.0
730,1436546596113,59.0
731,1436546596133,59.0
732,1436546596153,59.0
733,1436546596226,59.0
734,1436546596227,59.0
735,1436546596228,59.0
736,1436546596245,59.0
737,1436546596252,59.0
738,1436546596273,59.0
739,1436546596295,60.0
740,1436546596312,60.0
741,1436546596338,60.0
742,1436546596355,60.0
743,1436546596374,60.0
744,1436546596395,60.0
745,1436546596437,60.0
746,1436546596438,60.0
747,1436546596454,60.0
748,1436546596474,60.0
749,1436546596496,60.0
750,1436546596512,60.0
751,1436546596536,60.0
752,1436546596556,60.0
753,1436546596576,60.0
754,1436546596595,60.0
755,1436546596615,60.0
756,1436546596636,60.0
757,1436546596657,60.0
758,1436546596673,60.0
759,1436546596695,60.0
760,1436546596715,60.0
761,1436546596735,60.0
762,1436546596754,60.0
763,1436546596777,60.0
764,1436546596797,60.0
765,1436546596818,60.0
766,1436546596836,60.0
767,1436546596853,60.0
768,1436546596874,60.0
769,1436546596894,60.0
770,1436546596915,60.0
771,1436546596985,60.0
772,1436546596986,60.0
773,1436546596987,60.0
774,1436546597003,60.0
775,1436546597013,60.0
776,1436546597037,60.0
777,1436546597053,60.0
778,1436546597073,60.0
779,1436546597093,60.0
780,1436546597117,60.0
781,1436546597133,60.0
782,1436546597153,60.0
783,1436546597173,60.0
784,1436546597195,60.0
785,1436546597214,60.0
786,1436546597237,60.0
787,1436546597256,60.0
788,1436546597276,60.0
789,1436546597297,60.0
790,1436546597317,60.0
791,1436546597337,60.0
792,1436546597354,60.0
793,1436546597379,60.0
794,1436546597397,60.0
795,1436546597417,60.0
796,1436546597434,60.0
797,1436546597453,60.0
798,1436546597473,60.0
799,1436546597498,60.0
800,1436546597519,60.0
801,1436546597534,60.0
802,1436546597553,60.0
803,1436546597574,60.0
804,1436546597594,60.0
805,1436546597614,60.0
806,1436546597634,60.0
807,1436546597725,60.0
808,1436546597726,60.0
809,1436546597727,60.0
810,1436546597728,60.0
811,1436546597736,60.0
812,1436546597754,60.0
813,1436546597775,60.0
814,1436546597794,60.0
815,1436546597817,60.0
816,1436546597834,60.0
817,1436546597854,60.0
818,1436546597881,60.0
819,1436546597895,60.0
820,1436546597915,60.0
821,1436546597934,60.0
822,1436546597977,60.0
823,1436546597990,60.0
824,1436546597994,60.0
825,1436546598014,60.0
826,1436546598034,60.0
827,1436546598054,60.0
828,1436546598074,60.0
829,1436546598094,60.0
830,1436546598114,60.0
831,1436546598134,60.0
832,1436546598157,60.0
833,1436546598177,60.0
834,1436546598195,60.0
835,1436546598214,60.0
836,1436546598234,60.0
837,1436546598255,60.0
838,1436546598273,60.0
839,1436546598296,60.0
840,1436546598316,60.0
841,1436546598336,60.0
842,1436546598354,60.0
843,1436546598375,60.0
844,1436546598397,60.0
845,1436546598413,60.0
846,1436546598433,60.0
847,1436546598456,60.0
848,1436546598473,60.0
849,1436546598494,60.0
850,1436546598514,60.0
851,1436546598533,60.0
852,1436546598556,60.0
853,1436546598574,60.0
854,1436546598595,60.0
855,1436546598615,60.0
856,1436546598635,60.0
857,1436546598656,60.0
858,1436546598675,60.0
859,1436546598694,60.0
860,1436546598716,60.0
861,1436546598736,60.0
862,1436546598754,60.0
863,1436546598776,60.0
864,1436546598797,59.0
865,1436546600220,59.0
866,1436546600221,59.0
867,1436546600222,59.0
868,1436546600223,59.0
869,1436546600224,59.0
870,1436546600225,60.0
871,1436546600226,60.0
872,1436546600227,59.0
873,1436546600228,59.0
