id,attr_time,attr_x,attr_y,attr_z
1,1436542100006,-36.375,-20.556,-10.691
2,1436542100027,-36.375,-20.556,-10.691
3,1436542100043,-36.375,-20.556,-10.691
4,1436542100067,-36.071,-20.556,-10.691
5,1436542100085,-36.071,-20.556,-10.691
6,1436542100109,-36.071,-20.556,-10.691
7,1436542100125,-36.071,-20.556,-10.691
8,1436542100150,-36.071,-20.556,-10.691
9,1436542100168,-36.071,-20.556,-10.691
10,1436542100184,-36.071,-20.556,-11.024
11,1436542100204,-36.071,-20.556,-11.024
12,1436542100224,-36.071,-20.556,-11.024
13,1436542100245,-36.071,-20.556,-11.024
14,1436542100269,-36.071,-20.556,-11.024
15,1436542100333,-36.071,-20.556,-11.024
16,1436542100334,-36.071,-20.556,-11.024
17,1436542100335,-36.071,-20.556,-11.024
18,1436542100345,-36.071,-20.556,-11.024
19,1436542100364,-36.071,-20.556,-11.024
20,1436542100387,-36.071,-20.556,-11.024
21,1436542100404,-36.071,-20.556,-11.024
22,1436542100425,-36.071,-20.556,-11.024
23,1436542100446,-36.071,-20.556,-11.024
24,1436542100465,-36.071,-20.556,-11.024
25,1436542100487,-36.071,-20.556,-11.024
26,1436542100505,-36.071,-20.556,-11.024
27,1436542100528,-36.071,-20.556,-10.717
28,1436542100547,-36.071,-20.556,-10.717
29,1436542100567,-36.071,-20.556,-10.717
30,1436542100588,-36.071,-20.556,-10.717
31,1436542100607,-36.071,-20.556,-10.717
32,1436542100627,-36.071,-20.556,-10.717
33,1436542100647,-36.071,-20.556,-10.391
34,1436542100667,-36.071,-20.556,-10.391
35,1436542100687,-36.071,-20.556,-10.391
36,1436542100707,-36.071,-20.556,-10.391
37,1436542100725,-36.071,-20.556,-10.391
38,1436542100747,-36.071,-20.556,-10.391
39,1436542100768,-36.071,-20.556,-10.054
40,1436542100785,-36.071,-20.556,-10.054
41,1436542100806,-36.071,-20.556,-10.054
42,1436542100825,-36.071,-20.556,-10.054
43,1436542100848,-36.071,-20.556,-10.054
44,1436542100867,-36.071,-20.556,-10.054
45,1436542100886,-36.071,-20.556,-10.054
46,1436542100908,-36.071,-20.556,-10.054
47,1436542100926,-36.071,-20.556,-9.722
48,1436542100946,-36.071,-20.556,-9.722
49,1436542100966,-36.071,-20.556,-9.722
50,1436542100987,-36.071,-20.556,-9.722
51,1436542101009,-36.071,-20.556,-9.722
52,1436542101057,-36.071,-20.556,-9.722
53,1436542101058,-36.376,-20.556,-9.722
54,1436542101067,-36.376,-20.556,-9.722
55,1436542101085,-36.376,-20.556,-9.722
56,1436542101107,-36.376,-20.556,-9.722
57,1436542101139,-36.376,-20.556,-9.722
58,1436542101146,-36.376,-20.556,-9.416
59,1436542101221,-36.376,-20.556,-9.416
60,1436542101222,-36.376,-20.556,-9.416
61,1436542101225,-36.376,-20.556,-9.416
62,1436542101226,-36.376,-20.556,-9.416
63,1436542101245,-36.376,-20.556,-9.416
64,1436542101267,-36.376,-20.556,-9.416
65,1436542101288,-36.376,-20.556,-9.416
66,1436542101307,-36.376,-20.556,-9.416
67,1436542101327,-36.376,-20.556,-9.416
68,1436542101348,-36.376,-20.556,-9.416
69,1436542101368,-36.376,-20.556,-9.416
70,1436542101389,-36.376,-20.556,-9.416
71,1436542101407,-36.376,-20.556,-9.416
72,1436542101427,-36.376,-20.556,-9.416
73,1436542101448,-36.376,-20.556,-9.416
74,1436542101474,-36.376,-20.556,-9.416
75,1436542101487,-36.376,-20.556,-9.416
76,1436542101507,-36.376,-20.556,-9.416
77,1436542101527,-36.376,-20.556,-9.416
78,1436542101548,-36.376,-20.556,-9.725
79,1436542101566,-36.376,-20.556,-9.725
80,1436542101586,-36.376,-20.556,-9.725
81,1436542101606,-36.376,-20.556,-9.725
82,1436542101627,-36.376,-20.556,-9.725
83,1436542101663,-36.376,-20.556,-9.725
84,1436542101665,-36.376,-20.556,-9.725
85,1436542101685,-36.376,-20.556,-9.725
86,1436542101718,-36.376,-20.556,-9.725
87,1436542101766,-36.376,-20.556,-9.725
88,1436542101847,-36.376,-20.556,-9.725
89,1436542101849,-36.376,-20.556,-9.725
90,1436542101850,-36.376,-20.556,-9.725
91,1436542101851,-36.376,-20.556,-9.725
92,1436542101852,-36.376,-20.556,-9.725
93,1436542101853,-36.376,-20.556,-9.725
94,1436542101894,-36.376,-20.556,-9.725
95,1436542101895,-36.376,-20.556,-9.725
96,1436542101929,-36.376,-20.556,-10.043
97,1436542101930,-36.376,-20.556,-10.043
98,1436542101947,-36.376,-20.556,-10.043
99,1436542101965,-36.376,-20.556,-10.043
100,1436542101985,-36.376,-20.556,-10.043
101,1436542102029,-36.376,-20.556,-10.043
102,1436542102030,-36.376,-20.556,-10.043
103,1436542102052,-36.376,-20.556,-10.043
104,1436542102066,-36.376,-20.556,-10.043
105,1436542102086,-36.376,-20.556,-10.043
106,1436542102106,-36.376,-20.556,-10.043
107,1436542102126,-36.376,-20.556,-10.359
108,1436542102146,-36.376,-20.556,-10.359
109,1436542102167,-36.376,-20.556,-10.359
110,1436542102186,-36.376,-20.556,-10.359
111,1436542102206,-36.376,-20.556,-10.359
112,1436542102226,-36.376,-20.556,-10.359
113,1436542102246,-36.376,-20.556,-10.359
114,1436542102266,-36.376,-20.556,-10.359
115,1436542102286,-36.376,-20.556,-10.359
116,1436542102309,-36.376,-20.556,-10.359
117,1436542102327,-36.376,-20.556,-10.664
118,1436542102347,-36.376,-20.556,-10.664
119,1436542102366,-36.376,-20.556,-10.664
120,1436542102387,-36.07,-20.556,-10.664
121,1436542102408,-36.07,-20.556,-10.664
122,1436542102428,-36.07,-20.556,-10.664
123,1436542102449,-36.07,-20.556,-10.664
124,1436542102466,-36.07,-20.556,-10.664
125,1436542102488,-36.07,-20.556,-10.664
126,1436542102508,-36.07,-20.556,-10.664
127,1436542102527,-36.07,-20.556,-10.664
128,1436542102548,-36.07,-20.556,-10.664
129,1436542102579,-36.07,-20.556,-10.664
130,1436542102585,-36.07,-20.556,-10.664
131,1436542102606,-36.07,-20.556,-10.664
132,1436542102626,-36.07,-20.556,-10.664
133,1436542102648,-36.07,-20.556,-10.664
134,1436542102667,-36.07,-20.556,-10.664
135,1436542102686,-36.07,-20.556,-10.664
136,1436542102706,-36.07,-20.556,-10.664
137,1436542102727,-36.07,-20.556,-10.664
138,1436542102747,-36.07,-20.556,-10.664
139,1436542102769,-36.07,-20.556,-10.664
140,1436542102786,-36.07,-20.556,-10.664
141,1436542102807,-36.07,-20.556,-10.664
142,1436542102827,-36.07,-20.556,-10.664
143,1436542102847,-36.07,-20.556,-10.664
144,1436542102869,-36.07,-20.556,-10.664
145,1436542102886,-36.07,-20.556,-10.664
146,1436542102907,-36.07,-20.556,-10.664
147,1436542102926,-36.07,-20.556,-10.664
148,1436542102947,-36.07,-20.556,-10.325
149,1436542102969,-36.07,-20.556,-10.325
150,1436542102987,-36.07,-20.556,-10.325
151,1436542103006,-36.07,-20.556,-10.325
152,1436542103028,-36.07,-20.556,-10.325
153,1436542103048,-36.07,-20.556,-10.325
154,1436542103073,-36.07,-20.556,-10.325
155,1436542103088,-36.07,-20.556,-10.325
156,1436542103110,-36.07,-20.556,-10.325
157,1436542103127,-36.07,-20.556,-10.021
158,1436542103147,-36.07,-20.556,-10.021
159,1436542103167,-36.07,-20.556,-10.021
160,1436542103187,-36.07,-20.556,-10.021
161,1436542103211,-36.07,-20.556,-10.021
162,1436542103258,-36.07,-20.556,-10.021
163,1436542103259,-36.07,-20.556,-10.021
164,1436542103274,-36.07,-20.556,-10.021
165,1436542103287,-36.07,-20.556,-10.021
166,1436542103312,-36.07,-20.556,-10.021
167,1436542103327,-36.07,-20.556,-10.021
168,1436542103348,-36.376,-20.556,-9.69
169,1436542103369,-36.376,-20.556,-9.69
170,1436542103387,-36.376,-20.556,-9.69
171,1436542103408,-36.376,-20.556,-9.69
172,1436542103433,-36.376,-20.556,-9.69
173,1436542103448,-36.376,-20.556,-9.69
174,1436542103470,-36.376,-20.556,-9.69
175,1436542103488,-36.376,-20.556,-9.69
176,1436542103510,-36.376,-20.556,-9.69
177,1436542103530,-36.376,-20.556,-9.69
178,1436542103549,-36.376,-20.556,-9.69
179,1436542103570,-36.376,-20.556,-9.69
180,1436542103590,-36.376,-20.556,-9.69
181,1436542103608,-36.376,-20.556,-9.69
182,1436542103630,-36.376,-20.556,-9.69
183,1436542103648,-36.376,-20.556,-9.69
184,1436542103669,-36.376,-20.556,-9.69
185,1436542103690,-36.376,-20.556,-9.69
186,1436542103710,-36.376,-20.556,-9.69
187,1436542103730,-36.376,-20.556,-9.69
188,1436542103747,-36.376,-20.556,-9.69
189,1436542103770,-36.376,-20.556,-9.69
190,1436542103790,-36.376,-20.556,-9.69
191,1436542103810,-36.376,-20.556,-9.69
192,1436542103831,-36.376,-20.556,-9.69
193,1436542103849,-36.376,-20.556,-9.69
194,1436542103869,-36.376,-20.556,-9.69
195,1436542103890,-36.376,-20.556,-9.69
196,1436542103909,-36.376,-20.556,-9.69
197,1436542103977,-36.376,-20.556,-9.69
198,1436542103980,-36.376,-20.556,-9.69
199,1436542103982,-36.376,-20.556,-9.69
200,1436542103998,-36.376,-20.556,-10.015
201,1436542104007,-36.376,-20.556,-10.015
202,1436542104051,-36.376,-20.556,-10.015
203,1436542104052,-36.376,-20.556,-10.015
204,1436542104068,-36.376,-20.556,-10.015
205,1436542104087,-36.376,-20.556,-10.015
206,1436542104113,-36.376,-20.556,-10.015
207,1436542104127,-36.376,-20.556,-10.015
208,1436542104154,-36.376,-20.556,-10.015
209,1436542104171,-36.376,-20.556,-10.015
210,1436542104188,-36.376,-20.556,-10.015
211,1436542104212,-36.376,-20.556,-10.015
212,1436542104230,-36.376,-20.556,-10.015
213,1436542104251,-36.376,-20.556,-10.015
214,1436542104270,-36.376,-20.556,-10.015
215,1436542104290,-36.376,-20.556,-10.015
216,1436542104312,-36.376,-20.556,-10.015
217,1436542104330,-36.376,-20.556,-10.015
218,1436542104351,-36.376,-20.556,-10.015
219,1436542104370,-36.376,-20.556,-10.015
220,1436542104390,-36.376,-20.556,-10.015
221,1436542104414,-36.376,-20.556,-10.337
222,1436542104430,-36.376,-20.556,-10.337
223,1436542104453,-36.376,-20.556,-10.337
224,1436542104470,-36.376,-20.556,-10.337
225,1436542104494,-36.376,-20.556,-10.337
226,1436542104512,-36.376,-20.556,-10.337
227,1436542104528,-36.376,-20.556,-10.661
228,1436542104548,-36.376,-20.556,-10.661
229,1436542104568,-36.376,-20.24,-10.661
230,1436542104594,-36.376,-20.24,-10.661
231,1436542104615,-36.376,-20.24,-10.661
232,1436542104634,-36.376,-20.24,-10.661
233,1436542104650,-36.376,-20.24,-10.661
234,1436542104673,-36.376,-20.24,-10.99
235,1436542104749,-36.376,-20.24,-10.99
236,1436542104750,-36.376,-20.24,-10.99
237,1436542104751,-36.376,-20.24,-10.99
238,1436542104752,-36.376,-20.24,-10.99
239,1436542104770,-36.376,-20.24,-10.99
240,1436542104794,-36.376,-20.24,-10.99
241,1436542104808,-36.376,-20.24,-10.99
242,1436542104836,-36.376,-20.24,-10.99
243,1436542104848,-36.376,-20.24,-10.661
244,1436542104872,-36.376,-20.24,-10.661
245,1436542104891,-36.376,-20.24,-10.661
246,1436542104910,-36.376,-20.24,-10.26
247,1436542104935,-36.376,-19.924,-10.26
248,1436542104951,-36.376,-19.924,-9.707
249,1436542104972,-36.376,-19.924,-9.289
250,1436542104991,-36.376,-19.924,-8.769
251,1436542105012,-36.376,-19.924,-8.348
252,1436542105032,-36.743,-19.924,-7.92
253,1436542105052,-36.743,-19.924,-7.92
254,1436542105072,-36.743,-19.924,-7.048
255,1436542105091,-36.743,-19.924,-7.048
256,1436542105112,-37.126,-19.624,-6.512
257,1436542105129,-37.126,-19.624,-6.512
258,1436542105151,-37.126,-19.624,-6.179
259,1436542105172,-37.126,-19.624,-5.766
260,1436542105192,-37.486,-19.624,-5.766
261,1436542105212,-37.486,-19.624,-5.766
262,1436542105232,-37.486,-19.624,-5.766
263,1436542105253,-37.486,-19.624,-5.766
264,1436542105271,-37.486,-19.624,-5.766
265,1436542105289,-37.486,-19.624,-5.766
266,1436542105311,-37.486,-19.624,-5.766
267,1436542105333,-37.486,-19.624,-5.45
268,1436542105353,-37.486,-19.624,-5.45
269,1436542105372,-37.486,-19.624,-5.45
270,1436542105394,-37.486,-19.624,-5.126
271,1436542105473,-37.486,-19.624,-5.126
272,1436542105474,-37.486,-19.992,-5.126
273,1436542105475,-37.486,-19.992,-5.126
274,1436542105476,-37.486,-19.992,-5.126
275,1436542105489,-37.486,-19.992,-5.126
276,1436542105519,-37.486,-19.992,-5.126
277,1436542105531,-37.486,-19.992,-5.433
278,1436542105550,-37.486,-19.992,-5.433
279,1436542105571,-37.486,-19.992,-5.746
280,1436542105590,-37.486,-19.992,-6.152
281,1436542105611,-37.486,-19.992,-6.663
282,1436542105631,-37.486,-19.992,-6.663
283,1436542105655,-37.486,-19.992,-7.196
284,1436542105672,-37.486,-19.992,-7.196
285,1436542105692,-37.486,-19.992,-7.196
286,1436542105712,-37.173,-19.992,-7.196
287,1436542105732,-37.173,-19.992,-7.632
288,1436542105752,-37.173,-19.992,-7.632
289,1436542105772,-37.173,-19.992,-7.632
290,1436542105792,-37.173,-19.657,-7.632
291,1436542105812,-37.173,-19.657,-7.632
292,1436542105833,-37.173,-19.657,-7.971
293,1436542105851,-37.173,-19.657,-7.971
294,1436542105869,-37.173,-19.657,-7.971
295,1436542105893,-37.173,-19.657,-7.971
296,1436542105913,-37.173,-19.657,-7.971
297,1436542105963,-37.173,-19.657,-7.971
298,1436542105964,-37.173,-19.657,-7.971
299,1436542105970,-37.173,-19.329,-7.971
300,1436542105993,-37.173,-19.329,-7.971
301,1436542106010,-37.173,-19.329,-7.971
302,1436542106032,-37.173,-19.329,-7.971
303,1436542106053,-36.86,-19.329,-7.971
304,1436542106074,-36.86,-19.329,-8.297
305,1436542106093,-36.86,-19.329,-8.297
306,1436542106110,-36.86,-19.329,-8.297
307,1436542106131,-36.86,-19.329,-8.297
308,1436542106183,-36.86,-19.329,-8.297
309,1436542106184,-36.86,-19.329,-8.297
310,1436542106192,-36.86,-19.329,-8.297
311,1436542106210,-36.86,-19.329,-8.297
312,1436542106232,-36.86,-19.329,-8.297
313,1436542106250,-36.86,-19.329,-8.297
314,1436542106270,-36.86,-19.329,-8.297
315,1436542106290,-36.86,-19.329,-8.297
316,1436542106315,-36.86,-19.329,-8.297
317,1436542106331,-36.86,-19.329,-8.297
318,1436542106350,-36.86,-19.644,-8.297
319,1436542106371,-36.86,-19.644,-8.297
320,1436542106390,-36.86,-19.644,-8.297
321,1436542106419,-36.86,-19.644,-8.297
322,1436542106430,-36.86,-19.644,-8.297
323,1436542106452,-36.86,-19.644,-8.297
324,1436542106472,-36.86,-19.644,-8.297
325,1436542106491,-36.86,-19.644,-7.977
326,1436542106513,-36.86,-19.644,-7.977
327,1436542106533,-36.86,-19.644,-7.977
328,1436542106553,-36.86,-19.644,-7.977
329,1436542106573,-36.86,-19.644,-7.977
330,1436542106593,-36.86,-19.644,-7.977
331,1436542106613,-36.86,-19.644,-7.977
332,1436542106633,-36.86,-19.644,-7.977
333,1436542106652,-36.86,-19.644,-7.977
334,1436542106672,-36.86,-19.644,-7.977
335,1436542106693,-36.86,-19.644,-7.977
336,1436542106712,-36.86,-19.644,-8.36
337,1436542106731,-36.86,-19.644,-8.761
338,1436542106752,-36.86,-19.644,-8.761
339,1436542106775,-36.86,-19.644,-9.367
340,1436542106803,-36.86,-19.267,-9.729
341,1436542106817,-36.86,-19.267,-10.162
342,1436542106831,-36.55,-19.267,-10.162
343,1436542106853,-36.55,-19.267,-10.536
344,1436542106871,-36.55,-18.872,-10.536
345,1436542106892,-36.55,-18.872,-10.536
346,1436542106913,-36.55,-18.872,-10.536
347,1436542106932,-36.55,-18.492,-10.536
348,1436542107003,-36.55,-18.492,-10.536
349,1436542107004,-36.55,-18.492,-10.536
350,1436542107005,-36.55,-18.157,-10.536
351,1436542107014,-36.55,-18.157,-10.896
352,1436542107030,-36.55,-18.157,-10.896
353,1436542107055,-36.55,-18.157,-10.896
354,1436542107070,-36.55,-17.835,-10.896
355,1436542107090,-36.55,-17.835,-10.896
356,1436542107113,-36.55,-17.835,-10.896
357,1436542107132,-36.55,-17.835,-10.896
358,1436542107152,-36.55,-17.835,-10.896
359,1436542107172,-36.55,-17.835,-10.896
360,1436542107194,-36.55,-17.835,-10.896
361,1436542107214,-36.55,-17.835,-10.896
362,1436542107234,-36.55,-17.835,-10.896
363,1436542107254,-36.55,-17.835,-10.896
364,1436542107270,-36.55,-17.835,-10.896
365,1436542107290,-36.55,-17.835,-10.896
366,1436542107310,-36.55,-17.835,-10.896
367,1436542107330,-36.55,-17.835,-10.896
368,1436542107351,-36.55,-17.835,-10.896
369,1436542107374,-36.55,-17.835,-10.896
370,1436542107394,-36.55,-17.835,-10.896
371,1436542107414,-36.55,-17.835,-10.896
372,1436542107434,-36.55,-17.835,-10.896
373,1436542107454,-36.55,-17.835,-10.896
374,1436542107472,-36.55,-17.835,-10.896
375,1436542107492,-36.55,-17.835,-10.896
376,1436542107514,-36.55,-17.835,-10.896
377,1436542107534,-36.55,-18.151,-10.896
378,1436542107554,-36.55,-18.151,-10.559
379,1436542107574,-36.55,-18.151,-10.559
380,1436542107594,-36.55,-18.151,-10.559
381,1436542107613,-36.55,-18.151,-10.559
382,1436542107632,-36.55,-18.151,-10.559
383,1436542107660,-36.55,-18.151,-10.559
384,1436542107733,-36.55,-18.151,-10.559
385,1436542107734,-36.55,-18.151,-10.881
386,1436542107735,-36.55,-18.151,-10.881
387,1436542107736,-36.55,-18.151,-10.881
388,1436542107751,-36.55,-18.151,-11.256
389,1436542107774,-36.55,-18.151,-11.256
390,1436542107793,-36.55,-17.799,-11.689
391,1436542107813,-36.55,-17.799,-12.199
392,1436542107833,-36.55,-17.799,-12.199
393,1436542107851,-36.55,-17.495,-12.788
394,1436542107873,-36.55,-17.495,-12.788
395,1436542107892,-36.55,-17.495,-12.788
396,1436542107915,-36.55,-17.495,-12.788
397,1436542107931,-36.55,-17.144,-13.143
398,1436542107953,-36.55,-17.144,-13.143
399,1436542107974,-36.55,-17.144,-13.143
400,1436542107994,-36.55,-17.144,-13.143
401,1436542108014,-36.55,-16.822,-13.143
402,1436542108034,-36.55,-16.822,-13.514
403,1436542108054,-36.55,-16.822,-13.514
404,1436542108074,-36.55,-16.822,-13.514
405,1436542108094,-36.55,-16.822,-13.514
406,1436542108113,-36.55,-16.822,-13.514
407,1436542108135,-36.55,-16.822,-13.514
408,1436542108155,-36.55,-16.822,-13.514
409,1436542108175,-36.55,-16.822,-13.514
410,1436542108195,-36.55,-16.822,-13.514
411,1436542108215,-36.55,-16.822,-13.514
412,1436542108235,-36.55,-16.822,-13.514
413,1436542108254,-36.55,-16.822,-13.514
414,1436542108275,-36.55,-16.822,-13.514
415,1436542108292,-36.55,-17.178,-13.18
416,1436542108314,-36.55,-17.178,-13.18
417,1436542108334,-36.55,-17.178,-13.18
418,1436542108353,-36.55,-17.178,-13.18
419,1436542108454,-36.55,-17.543,-13.18
420,1436542108455,-36.55,-17.543,-12.84
421,1436542108456,-36.55,-17.543,-12.84
422,1436542108457,-36.55,-17.543,-12.84
423,1436542108458,-36.55,-17.543,-12.84
424,1436542108516,-36.55,-17.543,-12.84
425,1436542108517,-36.55,-17.543,-12.84
426,1436542108518,-36.55,-17.543,-12.84
427,1436542108543,-36.55,-17.543,-12.84
428,1436542108582,-36.871,-17.543,-12.84
429,1436542108583,-36.871,-17.543,-12.84
430,1436542108605,-36.871,-17.543,-12.84
431,1436542108612,-36.871,-17.543,-12.84
432,1436542108639,-36.871,-17.543,-12.84
433,1436542108652,-36.871,-17.543,-12.84
434,1436542108672,-36.871,-17.543,-12.84
435,1436542108693,-36.871,-17.543,-12.84
436,1436542108712,-37.207,-17.239,-13.148
437,1436542108732,-37.207,-17.239,-13.148
438,1436542108752,-37.207,-17.239,-13.148
439,1436542108773,-37.207,-16.937,-13.148
440,1436542108794,-37.207,-16.937,-13.554
441,1436542108812,-37.207,-16.937,-13.554
442,1436542108832,-37.207,-16.481,-13.554
443,1436542108853,-37.207,-16.481,-14.031
444,1436542108873,-37.207,-15.994,-14.483
445,1436542108893,-37.207,-14.901,-15.27
446,1436542108913,-37.207,-14.201,-15.724
447,1436542108932,-37.207,-13.575,-15.724
448,1436542108952,-37.207,-13.575,-15.724
449,1436542108973,-37.207,-13.575,-15.724
450,1436542108993,-37.207,-13.575,-16.035
451,1436542109015,-37.207,-13.175,-16.035
452,1436542109033,-37.207,-13.175,-16.337
453,1436542109051,-36.891,-12.431,-16.337
454,1436542109072,-36.891,-12.431,-16.337
455,1436542109092,-36.891,-12.431,-16.337
456,1436542109114,-36.891,-12.431,-16.337
457,1436542109132,-36.891,-12.431,-16.337
458,1436542109153,-36.891,-12.431,-16.773
459,1436542109171,-36.891,-12.431,-16.773
460,1436542109191,-36.891,-12.431,-16.773
461,1436542109211,-36.891,-12.049,-16.773
462,1436542109233,-36.891,-12.049,-17.15
463,1436542109253,-36.891,-11.723,-17.15
464,1436542109272,-36.891,-11.723,-17.15
465,1436542109293,-36.891,-11.723,-17.15
466,1436542109313,-36.891,-11.389,-17.15
467,1436542109336,-36.891,-11.389,-17.472
468,1436542109355,-36.891,-11.389,-17.472
469,1436542109373,-36.528,-11.389,-17.472
470,1436542109396,-36.528,-11.389,-17.472
471,1436542109416,-36.528,-11.054,-17.816
472,1436542109436,-36.528,-11.054,-17.816
473,1436542109456,-36.528,-11.054,-17.816
474,1436542109478,-36.14,-11.054,-17.816
475,1436542109494,-36.14,-11.054,-18.154
476,1436542109515,-36.14,-11.054,-18.154
477,1436542109537,-36.14,-11.054,-18.154
478,1436542109557,-35.777,-11.054,-18.493
479,1436542109578,-35.777,-11.054,-18.493
480,1436542109596,-35.777,-11.054,-18.493
481,1436542109615,-35.447,-11.054,-18.856
482,1436542109635,-35.447,-10.72,-18.856
483,1436542109653,-35.447,-10.72,-18.856
484,1436542109679,-35.447,-10.72,-18.856
485,1436542109698,-35.447,-10.72,-18.856
486,1436542109717,-35.113,-10.72,-18.856
487,1436542109735,-35.113,-10.72,-18.856
488,1436542109758,-35.113,-10.72,-18.856
