id,attr_time,attr_light
1,1436462332529,0.0
2,1436462332555,0.0
3,1436462332569,0.0
4,1436462332590,0.0
5,1436462332609,0.0
6,1436462332630,0.0
7,1436462332652,0.0
8,1436462332669,0.0
9,1436462332692,0.0
10,1436462332712,0.0
11,1436462332760,0.0
12,1436462332761,0.0
13,1436462332772,0.0
14,1436462332792,0.0
15,1436462332812,0.0
16,1436462332830,0.0
17,1436462332857,0.0
18,1436462332872,0.0
19,1436462332889,0.0
20,1436462332912,0.0
21,1436462332931,0.0
22,1436462332952,0.0
23,1436462332971,0.0
24,1436462332992,0.0
25,1436462333012,0.0
26,1436462333033,0.0
27,1436462333053,0.0
28,1436462333073,0.0
29,1436462333091,0.0
30,1436462333119,0.0
31,1436462333192,0.0
32,1436462333193,0.0
33,1436462333194,0.0
34,1436462333195,0.0
35,1436462333213,0.0
36,1436462333232,0.0
37,1436462333249,0.0
38,1436462333270,0.0
39,1436462333291,0.0
40,1436462333313,0.0
41,1436462333331,0.0
42,1436462333350,0.0
43,1436462333377,0.0
44,1436462333392,0.0
45,1436462333413,0.0
46,1436462333433,0.0
47,1436462333453,0.0
48,1436462333474,0.0
49,1436462333492,0.0
50,1436462333513,0.0
51,1436462333533,0.0
52,1436462333553,0.0
53,1436462333576,0.0
54,1436462333590,0.0
55,1436462333613,0.0
56,1436462333633,0.0
57,1436462333654,0.0
58,1436462333674,0.0
59,1436462333693,0.0
60,1436462333713,0.0
61,1436462333733,0.0
62,1436462333752,0.0
63,1436462333774,0.0
64,1436462333794,0.0
65,1436462333814,0.0
66,1436462333832,0.0
67,1436462333958,0.0
68,1436462333959,0.0
69,1436462333960,0.0
70,1436462333961,0.0
71,1436462333962,0.0
72,1436462333963,0.0
73,1436462333994,0.0
74,1436462333995,0.0
75,1436462334010,0.0
76,1436462334034,0.0
77,1436462334053,0.0
78,1436462334074,0.0
79,1436462334090,0.0
80,1436462334113,0.0
81,1436462334130,0.0
82,1436462334154,0.0
83,1436462334174,0.0
84,1436462334194,0.0
85,1436462334214,0.0
86,1436462334234,0.0
87,1436462334254,0.0
88,1436462334274,0.0
89,1436462334294,0.0
90,1436462334315,0.0
91,1436462334331,0.0
92,1436462334354,0.0
93,1436462334371,0.0
94,1436462334391,0.0
95,1436462334411,0.0
96,1436462334436,0.0
97,1436462334456,0.0
98,1436462334477,0.0
99,1436462334494,0.0
100,1436462334512,0.0
101,1436462334531,0.0
102,1436462334558,0.0
103,1436462334631,0.0
104,1436462334632,0.0
105,1436462334633,0.0
106,1436462334634,0.0
107,1436462334651,0.0
108,1436462334671,0.0
109,1436462334691,0.0
110,1436462334712,0.0
111,1436462334733,0.0
112,1436462334751,0.0
113,1436462334772,0.0
114,1436462334796,0.0
115,1436462334812,0.0
116,1436462334834,0.0
117,1436462334853,0.0
118,1436462334874,0.0
119,1436462334891,0.0
120,1436462334914,1.0
121,1436462334931,1.0
122,1436462334953,1.0
123,1436462334973,1.0
124,1436462334994,1.0
125,1436462335016,1.0
126,1436462335031,0.0
127,1436462335055,0.0
128,1436462335075,0.0
129,1436462335094,0.0
130,1436462335114,0.0
131,1436462335135,0.0
132,1436462335155,0.0
133,1436462335175,0.0
134,1436462335194,0.0
135,1436462335214,0.0
136,1436462335235,0.0
137,1436462335255,0.0
138,1436462335274,0.0
139,1436462335414,0.0
140,1436462335415,0.0
141,1436462335416,0.0
142,1436462335417,0.0
143,1436462335418,0.0
144,1436462335419,0.0
145,1436462335420,0.0
146,1436462335454,0.0
147,1436462335455,0.0
148,1436462335472,0.0
149,1436462335519,0.0
150,1436462335520,0.0
151,1436462335533,0.0
152,1436462335553,0.0
153,1436462335572,0.0
154,1436462335595,0.0
155,1436462335612,0.0
156,1436462335633,0.0
157,1436462335652,0.0
158,1436462335672,0.0
159,1436462335692,0.0
160,1436462335712,0.0
161,1436462335733,0.0
162,1436462335752,0.0
163,1436462335772,0.0
164,1436462335792,0.0
165,1436462335815,0.0
166,1436462335844,0.0
167,1436462335857,0.0
168,1436462335872,0.0
169,1436462335895,0.0
170,1436462335912,0.0
171,1436462335932,0.0
172,1436462335951,0.0
173,1436462335974,0.0
174,1436462335994,0.0
175,1436462336016,0.0
176,1436462336034,0.0
177,1436462336055,0.0
178,1436462336071,0.0
179,1436462336091,0.0
180,1436462336112,0.0
181,1436462336135,0.0
182,1436462336153,0.0
183,1436462336171,0.0
184,1436462336192,0.0
185,1436462336216,0.0
186,1436462336235,0.0
187,1436462336251,0.0
188,1436462336273,0.0
189,1436462336296,0.0
190,1436462336316,0.0
191,1436462336336,0.0
192,1436462336356,0.0
193,1436462336375,0.0
194,1436462336398,0.0
195,1436462336413,0.0
196,1436462336435,0.0
197,1436462336455,0.0
198,1436462336475,0.0
199,1436462336495,0.0
200,1436462336515,0.0
201,1436462336535,0.0
202,1436462336555,0.0
203,1436462336575,0.0
204,1436462336595,0.0
205,1436462336617,0.0
206,1436462336636,0.0
207,1436462336653,0.0
208,1436462336673,0.0
209,1436462336746,0.0
210,1436462336747,0.0
211,1436462336748,0.0
212,1436462336754,0.0
213,1436462336782,0.0
214,1436462336794,0.0
215,1436462336814,0.0
216,1436462336838,0.0
217,1436462336855,0.0
218,1436462336874,0.0
219,1436462336904,0.0
220,1436462336920,0.0
221,1436462336941,0.0
222,1436462336953,0.0
223,1436462336976,0.0
224,1436462336996,0.0
225,1436462337016,0.0
226,1436462337036,0.0
227,1436462337056,0.0
228,1436462337077,0.0
229,1436462337096,0.0
230,1436462337116,0.0
231,1436462337135,0.0
232,1436462337156,0.0
233,1436462337177,0.0
234,1436462337193,0.0
235,1436462337215,0.0
236,1436462337234,0.0
237,1436462337256,0.0
238,1436462337275,0.0
239,1436462337296,0.0
240,1436462337316,0.0
241,1436462337336,0.0
242,1436462337355,0.0
243,1436462337375,0.0
244,1436462337403,0.0
245,1436462337464,0.0
246,1436462337465,0.0
247,1436462337466,0.0
248,1436462337473,0.0
249,1436462337494,0.0
250,1436462337514,0.0
251,1436462337534,0.0
252,1436462337554,0.0
253,1436462337575,0.0
254,1436462337595,0.0
255,1436462337615,0.0
256,1436462337635,0.0
257,1436462337657,0.0
258,1436462337677,0.0
259,1436462337695,0.0
260,1436462337717,0.0
261,1436462337737,0.0
262,1436462337757,0.0
263,1436462337777,0.0
264,1436462337797,0.0
265,1436462337817,0.0
266,1436462337834,0.0
267,1436462337857,0.0
268,1436462337877,0.0
269,1436462337896,0.0
270,1436462337914,0.0
271,1436462337934,0.0
272,1436462337957,0.0
273,1436462337978,0.0
274,1436462337999,0.0
275,1436462338020,0.0
276,1436462338037,0.0
277,1436462338054,0.0
278,1436462338074,0.0
279,1436462338094,0.0
280,1436462338115,0.0
281,1436462338134,0.0
282,1436462338204,0.0
283,1436462338205,0.0
284,1436462338206,0.0
285,1436462338214,0.0
286,1436462338238,0.0
287,1436462338254,0.0
288,1436462338274,0.0
289,1436462338297,0.0
290,1436462338316,0.0
291,1436462338335,0.0
292,1436462338356,0.0
293,1436462338375,0.0
294,1436462338397,0.0
295,1436462338418,0.0
296,1436462338438,0.0
297,1436462338458,0.0
298,1436462338478,0.0
299,1436462338497,0.0
300,1436462338518,0.0
301,1436462338538,0.0
302,1436462338558,0.0
303,1436462338578,0.0
304,1436462338596,0.0
305,1436462338618,0.0
306,1436462338637,0.0
307,1436462338656,0.0
308,1436462338677,0.0
309,1436462338697,0.0
310,1436462338718,0.0
311,1436462338737,0.0
312,1436462338758,0.0
313,1436462338777,0.0
314,1436462338797,0.0
315,1436462338817,0.0
316,1436462338835,0.0
317,1436462338963,0.0
318,1436462338964,0.0
319,1436462338965,0.0
320,1436462338966,0.0
321,1436462338967,0.0
322,1436462338968,0.0
323,1436462339005,0.0
324,1436462339006,0.0
325,1436462339016,0.0
326,1436462339037,0.0
327,1436462339056,0.0
328,1436462339077,0.0
329,1436462339096,0.0
330,1436462339117,0.0
331,1436462339138,0.0
332,1436462339156,0.0
333,1436462339178,0.0
334,1436462339199,0.0
335,1436462339218,0.0
336,1436462339239,0.0
337,1436462339259,0.0
338,1436462339277,0.0
339,1436462339297,0.0
340,1436462339318,0.0
341,1436462339337,0.0
342,1436462339359,0.0
343,1436462339377,0.0
344,1436462339397,0.0
345,1436462339419,0.0
346,1436462339436,0.0
347,1436462339456,0.0
348,1436462339478,0.0
349,1436462339497,0.0
350,1436462339519,0.0
351,1436462339537,0.0
352,1436462339557,0.0
353,1436462339576,0.0
354,1436462339601,0.0
355,1436462339670,0.0
356,1436462339671,0.0
357,1436462339672,0.0
358,1436462339679,0.0
359,1436462339697,0.0
360,1436462339733,0.0
361,1436462339736,0.0
362,1436462339756,0.0
363,1436462339777,1.0
364,1436462339816,1.0
365,1436462339817,1.0
366,1436462339848,1.0
367,1436462339860,0.0
368,1436462339878,0.0
369,1436462339896,0.0
370,1436462339917,0.0
371,1436462339937,0.0
372,1436462339958,0.0
373,1436462339977,0.0
374,1436462339997,0.0
375,1436462340019,0.0
376,1436462340039,0.0
377,1436462340059,0.0
378,1436462340078,0.0
379,1436462340099,0.0
380,1436462340119,0.0
381,1436462340139,0.0
382,1436462340159,0.0
383,1436462340178,0.0
384,1436462340199,0.0
385,1436462340219,0.0
386,1436462340240,0.0
387,1436462340258,0.0
388,1436462340276,0.0
389,1436462340296,1.0
390,1436462340317,1.0
391,1436462340402,1.0
392,1436462340406,1.0
393,1436462340407,1.0
394,1436462340408,1.0
395,1436462340439,1.0
396,1436462340440,1.0
397,1436462340458,1.0
398,1436462340477,1.0
399,1436462340523,1.0
400,1436462340524,1.0
401,1436462340546,0.0
402,1436462340557,0.0
403,1436462340577,0.0
404,1436462340597,0.0
405,1436462340618,0.0
406,1436462340638,0.0
407,1436462340660,0.0
408,1436462340677,0.0
409,1436462340698,0.0
410,1436462340720,0.0
411,1436462340740,0.0
412,1436462340758,0.0
413,1436462340778,0.0
414,1436462340799,1.0
415,1436462340819,1.0
416,1436462340841,1.0
417,1436462340857,1.0
418,1436462340878,1.0
419,1436462340897,1.0
420,1436462340918,1.0
421,1436462340940,1.0
422,1436462340961,0.0
423,1436462340978,0.0
424,1436462341001,0.0
425,1436462341019,0.0
426,1436462341040,0.0
427,1436462341132,0.0
428,1436462341133,0.0
429,1436462341134,0.0
430,1436462341135,0.0
431,1436462341140,0.0
432,1436462341157,0.0
433,1436462341178,0.0
434,1436462341197,0.0
435,1436462341222,1.0
436,1436462341237,1.0
437,1436462341258,3.0
438,1436462341279,3.0
439,1436462341298,3.0
440,1436462341327,3.0
441,1436462341337,3.0
442,1436462341361,2.0
443,1436462341377,2.0
444,1436462341399,1.0
445,1436462341421,1.0
446,1436462341437,1.0
447,1436462341460,1.0
448,1436462341478,2.0
449,1436462341500,2.0
450,1436462341519,1.0
451,1436462341540,1.0
452,1436462341561,1.0
453,1436462341580,1.0
454,1436462341601,1.0
455,1436462341622,1.0
456,1436462341640,1.0
457,1436462341661,1.0
458,1436462341681,1.0
459,1436462341700,1.0
460,1436462341722,1.0
461,1436462341740,1.0
462,1436462341760,1.0
463,1436462341779,2.0
464,1436462341849,2.0
465,1436462341850,2.0
466,1436462341851,2.0
467,1436462341882,2.0
468,1436462341883,2.0
469,1436462341902,2.0
470,1436462341920,2.0
471,1436462341944,2.0
472,1436462341958,2.0
473,1436462341978,1.0
474,1436462342000,1.0
475,1436462342019,1.0
476,1436462342039,1.0
477,1436462342060,1.0
478,1436462342082,1.0
479,1436462342102,1.0
480,1436462342121,1.0
481,1436462342141,1.0
482,1436462342162,1.0
483,1436462342181,1.0
484,1436462342202,1.0
485,1436462342222,1.0
486,1436462342242,2.0
487,1436462342263,2.0
488,1436462342279,2.0
489,1436462342302,2.0
490,1436462342321,3.0
491,1436462342339,3.0
492,1436462342360,5.0
493,1436462342382,5.0
494,1436462342402,5.0
495,1436462342422,5.0
496,1436462342442,4.0
497,1436462342459,4.0
498,1436462342481,4.0
499,1436462342499,4.0
500,1436462342521,4.0
501,1436462342545,5.0
502,1436462342592,5.0
503,1436462342593,5.0
504,1436462342600,5.0
505,1436462342619,4.0
506,1436462342640,4.0
507,1436462342663,2.0
508,1436462342679,2.0
509,1436462342702,1.0
510,1436462342719,1.0
511,1436462342763,1.0
512,1436462342764,1.0
513,1436462342780,1.0
514,1436462342799,1.0
515,1436462342822,1.0
516,1436462342843,1.0
517,1436462342864,1.0
518,1436462342882,1.0
519,1436462342909,1.0
520,1436462342922,1.0
521,1436462342944,1.0
522,1436462342962,1.0
523,1436462342984,1.0
524,1436462342999,1.0
525,1436462343023,1.0
526,1436462343043,1.0
527,1436462343062,1.0
528,1436462343082,1.0
529,1436462343102,1.0
530,1436462343122,1.0
531,1436462343142,1.0
532,1436462343162,1.0
533,1436462343182,1.0
534,1436462343203,1.0
535,1436462343224,1.0
536,1436462343242,1.0
537,1436462343265,1.0
538,1436462343329,1.0
539,1436462343330,2.0
540,1436462343331,2.0
541,1436462343339,3.0
542,1436462343363,3.0
543,1436462343379,2.0
544,1436462343399,2.0
545,1436462343422,2.0
546,1436462343439,2.0
547,1436462343460,2.0
548,1436462343481,2.0
549,1436462343503,1.0
550,1436462343519,1.0
551,1436462343543,1.0
552,1436462343563,1.0
553,1436462343583,1.0
554,1436462343603,1.0
555,1436462343623,1.0
556,1436462343642,1.0
557,1436462343663,1.0
558,1436462343683,2.0
559,1436462343702,2.0
560,1436462343723,2.0
561,1436462343743,2.0
562,1436462343762,2.0
563,1436462343783,2.0
564,1436462343803,1.0
565,1436462343823,1.0
566,1436462343845,1.0
567,1436462343866,1.0
568,1436462343882,1.0
569,1436462343903,2.0
570,1436462343923,2.0
571,1436462343944,2.0
572,1436462344026,2.0
573,1436462344027,3.0
574,1436462344028,3.0
575,1436462344029,4.0
576,1436462344042,4.0
577,1436462344063,4.0
578,1436462344080,4.0
579,1436462344100,5.0
580,1436462344120,5.0
581,1436462344143,5.0
582,1436462344162,5.0
583,1436462344183,4.0
584,1436462344201,4.0
585,1436462344225,3.0
586,1436462344243,3.0
587,1436462344263,3.0
588,1436462344283,3.0
589,1436462344304,3.0
590,1436462344324,2.0
591,1436462344344,2.0
592,1436462344364,2.0
593,1436462344384,2.0
594,1436462344404,1.0
595,1436462344425,1.0
596,1436462344441,2.0
597,1436462344464,2.0
598,1436462344483,2.0
599,1436462344504,2.0
600,1436462344524,2.0
601,1436462344544,2.0
602,1436462344564,3.0
603,1436462344584,3.0
604,1436462344602,4.0
605,1436462344624,5.0
606,1436462344645,5.0
607,1436462344664,6.0
608,1436462344683,6.0
609,1436462344703,6.0
610,1436462344826,6.0
611,1436462344827,6.0
612,1436462344828,6.0
613,1436462344829,6.0
614,1436462344830,6.0
615,1436462344831,5.0
616,1436462344896,5.0
617,1436462344897,4.0
618,1436462344898,4.0
619,1436462344909,3.0
620,1436462344956,3.0
621,1436462344957,2.0
622,1436462345101,2.0
623,1436462345102,2.0
624,1436462345103,2.0
625,1436462345104,2.0
626,1436462345105,3.0
627,1436462345106,3.0
628,1436462345107,3.0
629,1436462345108,3.0
630,1436462345132,3.0
631,1436462345142,3.0
632,1436462345162,4.0
633,1436462345181,4.0
634,1436462345202,5.0
635,1436462345221,5.0
636,1436462345242,6.0
637,1436462345264,6.0
638,1436462345281,6.0
639,1436462345301,6.0
640,1436462345322,6.0
641,1436462345349,5.0
642,1436462345363,5.0
643,1436462345382,5.0
644,1436462345405,5.0
645,1436462345420,5.0
646,1436462345440,5.0
647,1436462345461,5.0
648,1436462345480,5.0
649,1436462345501,4.0
650,1436462345520,4.0
651,1436462345540,4.0
652,1436462345560,4.0
653,1436462345580,4.0
654,1436462345600,4.0
655,1436462345620,4.0
656,1436462345640,4.0
657,1436462345660,5.0
658,1436462345680,5.0
659,1436462345700,8.0
660,1436462345720,12.0
661,1436462345740,12.0
662,1436462345763,10.0
663,1436462345786,10.0
664,1436462345805,10.0
665,1436462345822,10.0
666,1436462345842,8.0
667,1436462345863,8.0
668,1436462345883,8.0
669,1436462345903,8.0
670,1436462345922,8.0
671,1436462345943,8.0
672,1436462345961,8.0
673,1436462345982,8.0
674,1436462346006,7.0
675,1436462346027,7.0
676,1436462346047,7.0
677,1436462346063,7.0
678,1436462346086,7.0
679,1436462346144,7.0
680,1436462346145,7.0
681,1436462346146,7.0
682,1436462346162,7.0
683,1436462346188,7.0
684,1436462346202,7.0
685,1436462346221,7.0
686,1436462346243,7.0
687,1436462346262,7.0
688,1436462346286,7.0
689,1436462346306,8.0
690,1436462346325,8.0
691,1436462346346,8.0
692,1436462346366,8.0
693,1436462346386,9.0
694,1436462346409,9.0
695,1436462346422,10.0
696,1436462346443,11.0
697,1436462346468,11.0
698,1436462346482,11.0
699,1436462346506,11.0
700,1436462346526,10.0
701,1436462346545,10.0
702,1436462346566,9.0
703,1436462346586,9.0
704,1436462346607,8.0
705,1436462346625,8.0
706,1436462346646,7.0
707,1436462346665,7.0
708,1436462346686,7.0
709,1436462346707,7.0
710,1436462346726,7.0
711,1436462346746,7.0
712,1436462346814,11.0
713,1436462346815,9.0
714,1436462346816,9.0
715,1436462346823,8.0
716,1436462346848,8.0
717,1436462346870,8.0
718,1436462346886,8.0
719,1436462346904,8.0
720,1436462346925,8.0
721,1436462346944,8.0
722,1436462346975,8.0
723,1436462346984,8.0
724,1436462347010,8.0
725,1436462347037,8.0
726,1436462347045,8.0
727,1436462347067,8.0
728,1436462347155,8.0
729,1436462347156,8.0
730,1436462347157,8.0
731,1436462347158,8.0
732,1436462347163,8.0
733,1436462347184,8.0
734,1436462347205,8.0
735,1436462347224,8.0
736,1436462347245,9.0
737,1436462347264,9.0
738,1436462347284,9.0
739,1436462347307,9.0
740,1436462347327,10.0
741,1436462347346,10.0
742,1436462347366,10.0
743,1436462347384,10.0
744,1436462347403,11.0
745,1436462347423,11.0
746,1436462347445,11.0
747,1436462347465,11.0
748,1436462347483,12.0
749,1436462347505,12.0
750,1436462347529,13.0
751,1436462347545,13.0
752,1436462347562,13.0
753,1436462347582,14.0
754,1436462347603,14.0
755,1436462347623,14.0
756,1436462347643,14.0
757,1436462347664,14.0
758,1436462347687,14.0
759,1436462347707,14.0
760,1436462347760,14.0
761,1436462347761,13.0
762,1436462347762,13.0
763,1436462347783,13.0
764,1436462347803,13.0
765,1436462347823,12.0
766,1436462347843,12.0
767,1436462347863,11.0
768,1436462347883,10.0
769,1436462347904,10.0
770,1436462347926,9.0
771,1436462347946,9.0
772,1436462347966,10.0
773,1436462347986,10.0
774,1436462348005,10.0
775,1436462348023,10.0
776,1436462348044,9.0
777,1436462348066,9.0
778,1436462348086,9.0
779,1436462348103,9.0
780,1436462348125,9.0
781,1436462348151,9.0
782,1436462348170,9.0
783,1436462348184,9.0
784,1436462348204,9.0
785,1436462348224,9.0
786,1436462348244,9.0
787,1436462348265,10.0
788,1436462348284,10.0
789,1436462348307,10.0
790,1436462348327,10.0
791,1436462348347,10.0
792,1436462348366,10.0
793,1436462348385,10.0
794,1436462348408,10.0
795,1436462348428,10.0
796,1436462348447,10.0
797,1436462348466,11.0
798,1436462348488,11.0
799,1436462348508,11.0
800,1436462348526,11.0
801,1436462348548,12.0
802,1436462348566,12.0
803,1436462348586,13.0
804,1436462348605,11.0
805,1436462348629,11.0
806,1436462348649,10.0
807,1436462348669,10.0
808,1436462348688,11.0
809,1436462348706,11.0
810,1436462348726,11.0
811,1436462348744,11.0
812,1436462348767,11.0
813,1436462348789,11.0
814,1436462348854,12.0
815,1436462348855,12.0
816,1436462348856,13.0
817,1436462348865,13.0
818,1436462348889,14.0
819,1436462348905,14.0
820,1436462348925,15.0
821,1436462348950,15.0
822,1436462348965,15.0
823,1436462348986,16.0
824,1436462349006,16.0
825,1436462349026,17.0
826,1436462349046,17.0
827,1436462349068,17.0
828,1436462349088,17.0
829,1436462349108,17.0
830,1436462349126,17.0
831,1436462349148,16.0
832,1436462349165,16.0
833,1436462349186,15.0
834,1436462349206,15.0
835,1436462349226,15.0
836,1436462349257,15.0
837,1436462349267,14.0
838,1436462349286,14.0
839,1436462349306,14.0
840,1436462349325,13.0
841,1436462349346,13.0
842,1436462349368,13.0
843,1436462349389,13.0
844,1436462349409,14.0
845,1436462349429,14.0
846,1436462349448,15.0
847,1436462349467,15.0
848,1436462349488,16.0
849,1436462349506,16.0
850,1436462349571,17.0
851,1436462349572,17.0
852,1436462349573,18.0
853,1436462349593,18.0
854,1436462349606,19.0
855,1436462349625,19.0
856,1436462349645,20.0
857,1436462349666,20.0
858,1436462349694,21.0
859,1436462349709,22.0
860,1436462349727,22.0
861,1436462349746,22.0
862,1436462349767,22.0
863,1436462349789,22.0
864,1436462349809,22.0
865,1436462349831,21.0
866,1436462349848,21.0
867,1436462349867,20.0
868,1436462349888,20.0
869,1436462349907,19.0
870,1436462349926,19.0
871,1436462349947,16.0
872,1436462349968,16.0
873,1436462349989,14.0
874,1436462350009,14.0
875,1436462350027,15.0
876,1436462350047,15.0
877,1436462350067,15.0
878,1436462350087,15.0
879,1436462350112,15.0
880,1436462350127,15.0
881,1436462350149,15.0
882,1436462350167,14.0
883,1436462350187,14.0
884,1436462350208,15.0
885,1436462350228,15.0
886,1436462350250,15.0
887,1436462350337,15.0
888,1436462350338,16.0
889,1436462350339,16.0
890,1436462350340,16.0
891,1436462350375,16.0
892,1436462350376,16.0
893,1436462350389,16.0
894,1436462350406,17.0
895,1436462350426,17.0
896,1436462350451,17.0
897,1436462350467,17.0
898,1436462350486,17.0
899,1436462350507,16.0
900,1436462350527,16.0
901,1436462350550,16.0
902,1436462350569,16.0
903,1436462350587,17.0
904,1436462350610,17.0
905,1436462350626,18.0
