id,attr_time,attr_light
1,1437232431020,292.0
2,1437232431040,292.0
3,1437232431060,292.0
4,1437232431081,291.0
5,1437232431101,291.0
6,1437232431121,291.0
7,1437232431140,291.0
8,1437232431159,291.0
9,1437232431179,291.0
10,1437232431247,291.0
11,1437232431248,291.0
12,1437232431249,291.0
13,1437232431266,291.0
14,1437232431278,291.0
15,1437232431298,291.0
16,1437232431318,291.0
17,1437232431338,291.0
18,1437232431360,291.0
19,1437232431379,291.0
20,1437232431399,291.0
21,1437232431419,291.0
22,1437232431438,291.0
23,1437232431458,291.0
24,1437232431481,292.0
25,1437232431501,292.0
26,1437232431521,291.0
27,1437232431541,291.0
28,1437232431561,291.0
29,1437232431581,291.0
30,1437232431601,291.0
31,1437232431621,291.0
32,1437232431643,291.0
33,1437232431659,291.0
34,1437232431681,291.0
35,1437232431700,291.0
36,1437232431720,291.0
37,1437232431739,291.0
38,1437232431762,291.0
39,1437232431781,291.0
40,1437232431802,291.0
41,1437232431821,291.0
42,1437232431838,291.0
43,1437232431859,291.0
44,1437232431880,291.0
45,1437232431981,291.0
46,1437232431982,291.0
47,1437232431983,291.0
48,1437232431984,291.0
49,1437232431985,291.0
50,1437232432033,291.0
51,1437232432034,291.0
52,1437232432061,291.0
53,1437232432062,291.0
54,1437232432079,291.0
55,1437232432106,291.0
56,1437232432119,291.0
57,1437232432139,291.0
58,1437232432159,291.0
59,1437232432178,291.0
60,1437232432198,291.0
61,1437232432219,291.0
62,1437232432239,291.0
63,1437232432259,291.0
64,1437232432279,291.0
65,1437232432299,291.0
66,1437232432319,291.0
67,1437232432339,291.0
68,1437232432359,291.0
69,1437232432379,291.0
70,1437232432399,292.0
71,1437232432421,292.0
72,1437232432440,292.0
73,1437232432460,291.0
74,1437232432480,291.0
75,1437232432502,292.0
76,1437232432523,292.0
77,1437232432544,291.0
78,1437232432561,291.0
79,1437232432580,291.0
80,1437232432599,291.0
81,1437232432619,291.0
82,1437232432640,291.0
83,1437232432711,291.0
84,1437232432712,291.0
85,1437232432727,291.0
86,1437232432728,291.0
87,1437232432741,291.0
88,1437232432761,291.0
89,1437232432780,291.0
90,1437232432799,291.0
91,1437232432819,291.0
92,1437232432841,291.0
93,1437232432861,291.0
94,1437232432881,291.0
95,1437232432901,291.0
96,1437232432920,291.0
97,1437232432942,291.0
98,1437232432962,291.0
99,1437232432982,291.0
100,1437232433002,291.0
101,1437232433021,291.0
102,1437232433042,291.0
103,1437232433061,290.0
104,1437232433081,290.0
105,1437232433102,290.0
106,1437232433123,291.0
107,1437232433143,291.0
108,1437232433163,290.0
109,1437232433183,290.0
110,1437232433200,290.0
111,1437232433220,290.0
112,1437232433243,290.0
113,1437232433263,290.0
114,1437232433282,291.0
115,1437232433300,291.0
116,1437232433319,290.0
117,1437232433341,290.0
118,1437232433361,290.0
119,1437232433390,290.0
120,1437232433445,290.0
121,1437232433446,291.0
122,1437232433447,291.0
123,1437232433468,291.0
124,1437232433480,291.0
125,1437232433500,291.0
126,1437232433520,291.0
127,1437232433540,291.0
128,1437232433564,291.0
129,1437232433582,291.0
130,1437232433603,291.0
131,1437232433625,291.0
132,1437232433641,291.0
133,1437232433660,291.0
134,1437232433680,291.0
135,1437232433700,291.0
136,1437232433720,291.0
137,1437232433741,291.0
138,1437232433763,291.0
139,1437232433783,291.0
140,1437232433803,291.0
141,1437232433821,291.0
142,1437232433846,291.0
143,1437232433863,291.0
144,1437232433883,291.0
145,1437232433901,291.0
146,1437232433920,291.0
147,1437232433940,291.0
148,1437232433960,291.0
149,1437232433981,291.0
150,1437232434001,291.0
151,1437232434021,291.0
152,1437232434041,291.0
153,1437232434061,291.0
154,1437232434082,291.0
155,1437232434107,291.0
156,1437232434163,291.0
157,1437232434164,291.0
158,1437232434165,291.0
159,1437232434182,291.0
160,1437232434200,291.0
161,1437232434220,291.0
162,1437232434240,291.0
163,1437232434261,291.0
164,1437232434281,291.0
165,1437232434303,291.0
166,1437232434321,291.0
167,1437232434341,291.0
168,1437232434361,291.0
169,1437232434383,291.0
170,1437232434401,291.0
171,1437232434421,291.0
172,1437232434442,291.0
173,1437232434462,291.0
174,1437232434484,291.0
175,1437232434504,291.0
176,1437232434521,291.0
177,1437232434544,291.0
178,1437232434562,291.0
179,1437232434582,291.0
180,1437232434604,290.0
181,1437232434624,290.0
182,1437232434642,290.0
183,1437232434666,291.0
184,1437232434688,291.0
185,1437232434706,290.0
186,1437232434724,290.0
187,1437232434742,291.0
188,1437232434785,291.0
189,1437232434786,291.0
190,1437232434801,291.0
191,1437232434831,291.0
192,1437232434844,291.0
193,1437232434861,291.0
194,1437232434883,291.0
195,1437232434907,291.0
196,1437232434921,291.0
197,1437232434941,291.0
198,1437232434961,291.0
199,1437232434981,291.0
200,1437232435001,291.0
201,1437232435022,291.0
202,1437232435045,291.0
203,1437232435066,291.0
204,1437232435081,291.0
205,1437232435101,291.0
206,1437232435122,291.0
207,1437232435144,291.0
208,1437232435164,291.0
209,1437232435183,291.0
210,1437232435205,291.0
211,1437232435225,291.0
212,1437232435243,291.0
213,1437232435263,291.0
214,1437232435282,291.0
215,1437232435303,292.0
216,1437232435322,292.0
217,1437232435341,291.0
218,1437232435361,292.0
219,1437232435386,292.0
220,1437232435403,291.0
221,1437232435426,291.0
222,1437232435445,292.0
223,1437232435461,292.0
224,1437232435482,292.0
225,1437232435501,292.0
226,1437232435522,292.0
227,1437232435542,292.0
228,1437232435567,292.0
229,1437232435583,292.0
230,1437232435604,292.0
231,1437232435621,292.0
232,1437232435643,292.0
233,1437232435663,292.0
234,1437232435682,292.0
235,1437232435703,292.0
236,1437232435723,292.0
237,1437232435746,292.0
238,1437232435767,292.0
239,1437232435785,292.0
240,1437232435806,292.0
241,1437232435825,292.0
242,1437232435845,292.0
243,1437232435866,292.0
244,1437232435885,292.0
245,1437232435905,292.0
246,1437232435923,292.0
247,1437232435943,292.0
248,1437232435965,292.0
249,1437232435986,292.0
250,1437232436005,292.0
251,1437232436026,292.0
252,1437232436046,292.0
253,1437232436064,292.0
254,1437232436085,292.0
255,1437232436106,292.0
256,1437232436126,292.0
257,1437232436146,291.0
258,1437232436165,291.0
259,1437232436183,291.0
260,1437232436213,291.0
261,1437232436269,291.0
262,1437232436270,291.0
263,1437232436271,291.0
264,1437232436287,291.0
265,1437232436304,291.0
266,1437232436323,291.0
267,1437232436345,291.0
268,1437232436365,291.0
269,1437232436386,291.0
270,1437232436403,291.0
271,1437232436426,291.0
272,1437232436443,291.0
273,1437232436466,291.0
274,1437232436483,291.0
275,1437232436506,291.0
276,1437232436527,291.0
277,1437232436546,291.0
278,1437232436566,291.0
279,1437232436587,291.0
280,1437232436607,291.0
281,1437232436626,291.0
282,1437232436645,291.0
283,1437232436677,291.0
284,1437232436683,291.0
285,1437232436706,291.0
286,1437232436724,291.0
287,1437232436745,291.0
288,1437232436766,291.0
289,1437232436786,291.0
290,1437232436806,291.0
291,1437232436826,291.0
292,1437232436845,291.0
293,1437232436866,291.0
294,1437232436887,291.0
295,1437232436905,291.0
296,1437232436932,291.0
297,1437232437006,291.0
298,1437232437007,291.0
299,1437232437008,291.0
300,1437232437009,291.0
301,1437232437025,291.0
302,1437232437046,291.0
303,1437232437063,291.0
304,1437232437090,291.0
305,1437232437105,290.0
306,1437232437126,290.0
307,1437232437149,290.0
308,1437232437164,291.0
309,1437232437190,291.0
310,1437232437205,291.0
311,1437232437227,291.0
312,1437232437246,291.0
313,1437232437266,291.0
314,1437232437287,291.0
315,1437232437307,291.0
316,1437232437328,291.0
317,1437232437347,291.0
318,1437232437368,290.0
319,1437232437387,290.0
320,1437232437406,290.0
321,1437232437424,291.0
322,1437232437444,291.0
323,1437232437465,290.0
324,1437232437489,290.0
325,1437232437509,290.0
326,1437232437529,290.0
327,1437232437547,291.0
328,1437232437564,291.0
329,1437232437584,290.0
330,1437232437609,291.0
331,1437232437729,291.0
332,1437232437730,291.0
333,1437232437731,291.0
334,1437232437732,291.0
335,1437232437733,291.0
336,1437232437734,291.0
337,1437232437750,291.0
338,1437232437786,291.0
339,1437232437787,291.0
340,1437232437804,290.0
341,1437232437829,290.0
342,1437232437855,290.0
343,1437232437865,290.0
344,1437232437891,290.0
345,1437232437906,290.0
346,1437232437926,290.0
347,1437232437947,291.0
348,1437232437967,291.0
349,1437232437987,290.0
350,1437232438007,290.0
351,1437232438028,291.0
352,1437232438047,290.0
353,1437232438067,290.0
354,1437232438087,290.0
355,1437232438107,290.0
356,1437232438127,290.0
357,1437232438148,290.0
358,1437232438167,290.0
359,1437232438188,290.0
360,1437232438208,290.0
361,1437232438228,290.0
362,1437232438250,290.0
363,1437232438268,290.0
364,1437232438287,290.0
365,1437232438304,290.0
366,1437232438358,290.0
367,1437232438359,290.0
368,1437232438479,290.0
369,1437232438480,290.0
370,1437232438481,290.0
371,1437232438482,290.0
372,1437232438483,290.0
373,1437232438484,290.0
374,1437232438489,290.0
375,1437232438505,290.0
376,1437232438526,290.0
377,1437232438575,290.0
378,1437232438576,290.0
379,1437232438593,290.0
380,1437232438608,290.0
381,1437232438626,290.0
382,1437232438651,290.0
383,1437232438667,290.0
384,1437232438685,290.0
385,1437232438707,290.0
386,1437232438725,290.0
387,1437232438748,290.0
388,1437232438768,290.0
389,1437232438788,290.0
390,1437232438808,290.0
391,1437232438828,290.0
392,1437232438845,290.0
393,1437232438868,290.0
394,1437232438889,290.0
395,1437232438909,290.0
396,1437232438927,290.0
397,1437232438948,290.0
398,1437232438965,291.0
399,1437232438987,291.0
400,1437232439005,290.0
401,1437232439027,290.0
402,1437232439050,290.0
403,1437232439069,290.0
404,1437232439086,290.0
405,1437232439108,290.0
406,1437232439156,290.0
407,1437232439157,290.0
408,1437232439164,290.0
409,1437232439184,290.0
410,1437232439204,290.0
411,1437232439226,290.0
412,1437232439250,290.0
413,1437232439269,290.0
414,1437232439286,290.0
415,1437232439308,290.0
416,1437232439330,290.0
417,1437232439345,290.0
418,1437232439369,290.0
419,1437232439386,290.0
420,1437232439409,291.0
421,1437232439429,291.0
422,1437232439449,290.0
423,1437232439469,290.0
424,1437232439490,290.0
425,1437232439506,290.0
426,1437232439567,290.0
427,1437232439568,290.0
428,1437232439569,290.0
429,1437232439588,290.0
430,1437232439615,290.0
431,1437232439628,290.0
432,1437232439648,290.0
433,1437232439673,290.0
434,1437232439695,290.0
435,1437232439713,290.0
436,1437232439729,290.0
437,1437232439746,290.0
438,1437232439815,290.0
439,1437232439817,290.0
440,1437232439818,290.0
441,1437232439836,290.0
442,1437232439846,290.0
443,1437232439869,290.0
444,1437232439887,290.0
445,1437232439906,290.0
446,1437232439928,290.0
447,1437232439948,290.0
448,1437232439968,290.0
449,1437232439988,290.0
450,1437232440006,290.0
451,1437232440026,290.0
452,1437232440050,290.0
453,1437232440069,290.0
454,1437232440089,290.0
455,1437232440109,290.0
456,1437232440129,290.0
457,1437232440150,290.0
458,1437232440169,290.0
459,1437232440189,290.0
460,1437232440212,290.0
461,1437232440228,290.0
462,1437232440250,290.0
463,1437232440268,290.0
464,1437232440289,291.0
465,1437232440308,291.0
466,1437232440330,290.0
467,1437232440350,290.0
468,1437232440370,291.0
469,1437232440390,291.0
470,1437232440409,291.0
471,1437232440429,291.0
472,1437232440449,291.0
473,1437232440467,291.0
474,1437232440533,290.0
475,1437232440534,291.0
476,1437232440535,291.0
477,1437232440556,290.0
478,1437232440567,290.0
479,1437232440587,290.0
480,1437232440610,290.0
481,1437232440627,290.0
482,1437232440668,290.0
483,1437232440669,290.0
484,1437232440687,290.0
485,1437232440707,290.0
486,1437232440731,290.0
487,1437232440749,290.0
488,1437232440770,290.0
489,1437232440790,290.0
490,1437232440810,291.0
491,1437232440830,291.0
492,1437232440851,290.0
493,1437232440870,290.0
494,1437232440890,291.0
495,1437232440910,291.0
496,1437232440930,290.0
497,1437232440953,290.0
498,1437232440969,290.0
499,1437232440990,289.0
500,1437232441009,289.0
501,1437232441029,288.0
502,1437232441048,288.0
503,1437232441072,286.0
504,1437232441093,286.0
505,1437232441113,284.0
506,1437232441131,284.0
507,1437232441148,279.0
508,1437232441168,277.0
509,1437232441188,277.0
510,1437232441209,276.0
511,1437232441233,276.0
512,1437232441309,276.0
513,1437232441310,276.0
514,1437232441311,276.0
515,1437232441312,276.0
516,1437232441332,277.0
517,1437232441352,277.0
518,1437232441367,279.0
519,1437232441387,279.0
520,1437232441421,282.0
521,1437232441428,284.0
522,1437232441449,284.0
523,1437232441468,287.0
524,1437232441491,287.0
525,1437232441510,290.0
526,1437232441531,290.0
527,1437232441551,294.0
528,1437232441571,294.0
529,1437232441591,298.0
530,1437232441612,298.0
531,1437232441628,301.0
532,1437232441650,303.0
533,1437232441679,303.0
534,1437232441697,307.0
535,1437232441707,307.0
536,1437232441730,310.0
537,1437232441753,310.0
538,1437232441773,313.0
539,1437232441791,313.0
540,1437232441808,316.0
541,1437232441828,316.0
542,1437232441848,319.0
543,1437232441874,321.0
544,1437232441894,321.0
545,1437232441914,324.0
546,1437232441930,324.0
547,1437232441956,326.0
548,1437232442030,326.0
549,1437232442031,329.0
550,1437232442032,329.0
551,1437232442033,330.0
552,1437232442049,330.0
553,1437232443740,333.0
554,1437232443741,336.0
555,1437232443742,336.0
556,1437232443743,338.0
557,1437232443744,338.0
558,1437232443745,340.0
559,1437232443746,340.0
560,1437232443747,342.0
561,1437232443748,342.0
562,1437232443749,344.0
563,1437232443750,344.0
564,1437232443751,346.0
565,1437232443752,348.0
566,1437232443753,348.0
567,1437232443754,349.0
568,1437232443755,349.0
569,1437232443756,350.0
570,1437232443757,350.0
571,1437232443758,351.0
572,1437232443759,351.0
573,1437232443760,352.0
574,1437232443761,352.0
575,1437232443762,353.0
576,1437232443763,354.0
577,1437232443764,354.0
578,1437232443765,354.0
579,1437232443766,354.0
580,1437232443767,354.0
581,1437232443768,354.0
582,1437232443769,354.0
583,1437232443770,354.0
584,1437232443771,353.0
585,1437232443772,353.0
586,1437232443773,352.0
587,1437232443774,351.0
588,1437232443775,351.0
589,1437232443776,349.0
590,1437232443777,349.0
591,1437232443778,348.0
592,1437232443779,348.0
593,1437232443780,348.0
594,1437232443781,348.0
595,1437232443782,347.0
596,1437232443783,347.0
597,1437232443784,347.0
598,1437232443785,347.0
599,1437232443786,347.0
600,1437232443787,347.0
601,1437232443788,347.0
602,1437232443789,347.0
603,1437232443790,347.0
604,1437232443791,347.0
605,1437232443792,347.0
606,1437232443793,348.0
607,1437232443794,348.0
608,1437232443795,348.0
609,1437232443796,349.0
610,1437232443797,349.0
611,1437232443798,349.0
612,1437232443799,349.0
613,1437232443800,350.0
614,1437232443801,350.0
615,1437232443802,351.0
616,1437232443803,351.0
617,1437232443804,351.0
618,1437232443805,351.0
619,1437232443806,352.0
620,1437232443807,352.0
621,1437232443808,353.0
622,1437232443809,354.0
623,1437232443810,354.0
624,1437232443811,355.0
625,1437232443812,355.0
626,1437232443813,355.0
627,1437232443814,355.0
628,1437232443815,356.0
629,1437232443816,356.0
630,1437232443817,357.0
631,1437232443818,357.0
632,1437232443819,357.0
633,1437232443820,357.0
634,1437232443821,357.0
635,1437232443822,357.0
636,1437232443823,357.0
637,1437232443824,357.0
638,1437232443825,357.0
639,1437232443826,358.0
640,1437232443827,358.0
641,1437232443828,359.0
642,1437232443848,359.0
643,1437232443868,361.0
644,1437232443888,362.0
645,1437232443908,362.0
646,1437232443928,363.0
647,1437232443949,363.0
648,1437232443970,364.0
649,1437232443990,364.0
650,1437232444011,365.0
651,1437232444032,365.0
652,1437232444049,365.0
653,1437232444070,365.0
654,1437232444090,366.0
655,1437232444110,366.0
656,1437232444133,366.0
657,1437232444153,367.0
658,1437232444170,367.0
659,1437232444193,367.0
660,1437232444210,367.0
661,1437232444230,368.0
662,1437232444249,368.0
663,1437232444270,368.0
664,1437232444289,368.0
665,1437232444319,368.0
666,1437232444334,369.0
667,1437232444351,369.0
668,1437232444369,368.0
669,1437232444390,368.0
670,1437232444410,368.0
671,1437232444429,368.0
672,1437232444452,367.0
673,1437232444472,367.0
674,1437232444490,366.0
675,1437232444511,366.0
676,1437232444531,366.0
677,1437232444554,366.0
678,1437232444574,366.0
679,1437232444594,367.0
680,1437232444614,367.0
681,1437232444634,367.0
682,1437232444652,367.0
683,1437232444673,367.0
684,1437232444694,367.0
685,1437232444711,367.0
686,1437232444731,367.0
687,1437232444751,366.0
688,1437232444772,366.0
689,1437232444806,366.0
690,1437232444811,365.0
691,1437232444831,365.0
692,1437232444851,365.0
693,1437232444871,365.0
694,1437232444891,365.0
695,1437232444920,365.0
696,1437232444996,364.0
697,1437232444997,364.0
698,1437232444998,364.0
699,1437232444999,364.0
700,1437232445044,364.0
701,1437232445051,364.0
702,1437232445052,364.0
703,1437232445071,364.0
704,1437232445091,364.0
705,1437232445111,364.0
706,1437232445135,364.0
707,1437232445151,365.0
708,1437232445174,365.0
709,1437232445192,365.0
710,1437232445213,365.0
711,1437232445235,365.0
712,1437232445255,366.0
713,1437232445272,366.0
714,1437232445294,366.0
715,1437232445315,366.0
716,1437232445335,366.0
717,1437232445353,366.0
718,1437232445376,366.0
719,1437232445393,366.0
720,1437232445413,365.0
721,1437232445435,366.0
722,1437232445453,366.0
723,1437232445472,366.0
724,1437232445491,366.0
725,1437232445511,365.0
726,1437232445536,365.0
727,1437232445558,365.0
728,1437232445577,365.0
729,1437232445595,365.0
730,1437232445613,365.0
731,1437232445634,365.0
732,1437232445661,365.0
733,1437232445686,364.0
734,1437232445757,365.0
735,1437232445758,365.0
736,1437232445759,364.0
737,1437232445760,364.0
738,1437232445775,363.0
739,1437232445793,363.0
740,1437232445813,363.0
741,1437232445831,363.0
742,1437232445856,363.0
743,1437232445872,363.0
744,1437232445894,363.0
745,1437232445912,363.0
746,1437232445932,363.0
747,1437232445952,363.0
748,1437232445974,363.0
749,1437232445994,363.0
750,1437232446016,363.0
751,1437232446034,364.0
752,1437232446054,364.0
753,1437232446076,364.0
754,1437232446094,364.0
755,1437232446116,364.0
756,1437232446135,365.0
757,1437232446153,365.0
758,1437232446176,365.0
759,1437232446192,365.0
760,1437232446213,366.0
761,1437232446232,366.0
762,1437232446255,366.0
763,1437232446278,366.0
764,1437232446295,367.0
765,1437232446317,367.0
766,1437232446341,367.0
767,1437232446353,367.0
768,1437232446372,367.0
769,1437232446395,367.0
770,1437232446417,367.0
771,1437232446480,367.0
772,1437232446481,367.0
773,1437232446482,368.0
774,1437232446492,368.0
775,1437232446516,367.0
776,1437232446532,367.0
777,1437232446552,368.0
778,1437232446574,368.0
779,1437232446594,368.0
780,1437232446617,368.0
781,1437232446636,368.0
782,1437232446660,367.0
783,1437232446676,367.0
784,1437232446694,367.0
785,1437232446716,367.0
786,1437232446736,366.0
787,1437232446755,366.0
788,1437232446776,366.0
789,1437232446796,366.0
790,1437232446816,366.0
791,1437232446836,366.0
792,1437232446858,366.0
793,1437232446873,365.0
794,1437232446895,365.0
795,1437232446917,366.0
796,1437232446936,366.0
797,1437232446957,365.0
798,1437232446975,365.0
799,1437232446995,365.0
800,1437232447015,365.0
801,1437232447035,365.0
802,1437232447057,364.0
803,1437232447077,364.0
804,1437232447097,364.0
805,1437232447117,364.0
806,1437232447135,364.0
807,1437232447204,364.0
808,1437232447205,364.0
809,1437232447206,364.0
810,1437232447213,363.0
811,1437232447239,363.0
812,1437232447255,363.0
813,1437232447275,363.0
814,1437232447296,363.0
815,1437232447316,362.0
816,1437232447338,362.0
817,1437232447354,362.0
818,1437232447376,362.0
819,1437232447394,362.0
820,1437232447416,362.0
821,1437232447436,361.0
822,1437232447457,361.0
823,1437232447476,361.0
824,1437232447496,361.0
825,1437232447517,361.0
826,1437232447536,361.0
827,1437232447557,361.0
828,1437232447575,360.0
829,1437232447594,360.0
830,1437232447617,360.0
831,1437232447635,360.0
832,1437232447661,360.0
833,1437232447676,360.0
834,1437232447693,360.0
835,1437232447717,360.0
836,1437232447736,360.0
