id,attr_time,attr_light
1,1438345018112,50.0
2,1438345018113,50.0
3,1438345018114,50.0
4,1438345018115,50.0
5,1438345018116,50.0
6,1438345018117,50.0
7,1438345018118,50.0
8,1438345018127,50.0
9,1438345018165,50.0
10,1438345018166,50.0
11,1438345018184,50.0
12,1438345018203,49.0
13,1438345018219,49.0
14,1438345018240,49.0
15,1438345018260,49.0
16,1438345018279,49.0
17,1438345018301,49.0
18,1438345018323,49.0
19,1438345018343,49.0
20,1438345018363,49.0
21,1438345018382,49.0
22,1438345018401,49.0
23,1438345018422,49.0
24,1438345018443,49.0
25,1438345018459,49.0
26,1438345018480,49.0
27,1438345018503,49.0
28,1438345018522,49.0
29,1438345018541,49.0
30,1438345018570,49.0
31,1438345018587,49.0
32,1438345018603,49.0
33,1438345018620,49.0
34,1438345018639,49.0
35,1438345018658,49.0
36,1438345018683,49.0
37,1438345018698,49.0
38,1438345018722,49.0
39,1438345018741,49.0
40,1438345018760,49.0
41,1438345018780,49.0
42,1438345018803,49.0
43,1438345018822,49.0
44,1438345018842,49.0
45,1438345018863,49.0
46,1438345018884,49.0
47,1438345018903,48.0
48,1438345018924,48.0
49,1438345018941,48.0
50,1438345018961,48.0
51,1438345018982,48.0
52,1438345019009,48.0
53,1438345019025,48.0
54,1438345019049,48.0
55,1438345019071,48.0
56,1438345019084,48.0
57,1438345019103,48.0
58,1438345019125,48.0
59,1438345019145,48.0
60,1438345019165,49.0
61,1438345019185,49.0
62,1438345019204,49.0
63,1438345019284,49.0
64,1438345019285,49.0
65,1438345019286,49.0
66,1438345019287,49.0
67,1438345019304,49.0
68,1438345019325,49.0
69,1438345019340,49.0
70,1438345019368,49.0
71,1438345019395,49.0
72,1438345019401,49.0
73,1438345019422,49.0
74,1438345019441,49.0
75,1438345019467,49.0
76,1438345019484,49.0
77,1438345019504,49.0
78,1438345019522,49.0
79,1438345019540,49.0
80,1438345019562,49.0
81,1438345019584,49.0
82,1438345019604,49.0
83,1438345019627,49.0
84,1438345019643,49.0
85,1438345019662,49.0
86,1438345019681,49.0
87,1438345019703,49.0
88,1438345019722,49.0
89,1438345019740,49.0
90,1438345019762,49.0
91,1438345019798,49.0
92,1438345019803,49.0
93,1438345019823,49.0
94,1438345019841,49.0
95,1438345019861,49.0
96,1438345019882,49.0
97,1438345019903,49.0
98,1438345019922,49.0
99,1438345019990,49.0
100,1438345019996,49.0
101,1438345019997,49.0
102,1438345020004,49.0
103,1438345020025,49.0
104,1438345020058,49.0
105,1438345020060,49.0
106,1438345020083,49.0
107,1438345020105,49.0
108,1438345020121,49.0
109,1438345020148,49.0
110,1438345020166,49.0
111,1438345020186,49.0
112,1438345020205,49.0
113,1438345020221,49.0
114,1438345020241,48.0
115,1438345020262,48.0
116,1438345020283,48.0
117,1438345020304,48.0
118,1438345020322,48.0
119,1438345020342,48.0
120,1438345020363,49.0
121,1438345020383,49.0
122,1438345020404,49.0
123,1438345020423,49.0
124,1438345020441,49.0
125,1438345020462,48.0
126,1438345020483,48.0
127,1438345020503,48.0
128,1438345020524,48.0
129,1438345020543,48.0
130,1438345020561,48.0
131,1438345020582,48.0
132,1438345020614,48.0
133,1438345020620,48.0
134,1438345020641,48.0
135,1438345020661,48.0
136,1438345020683,48.0
137,1438345020704,48.0
138,1438345020792,47.0
139,1438345020793,47.0
140,1438345020795,47.0
141,1438345020796,47.0
142,1438345020812,47.0
143,1438345020823,47.0
144,1438345020849,47.0
145,1438345020863,47.0
146,1438345020885,47.0
147,1438345020904,47.0
148,1438345020923,47.0
149,1438345020942,47.0
150,1438345020964,47.0
151,1438345020984,47.0
152,1438345021002,47.0
153,1438345021026,47.0
154,1438345021044,47.0
155,1438345021064,47.0
156,1438345021084,47.0
157,1438345021102,47.0
158,1438345021122,47.0
159,1438345021144,47.0
160,1438345021164,47.0
161,1438345021185,47.0
162,1438345021202,47.0
163,1438345021223,47.0
164,1438345021247,47.0
165,1438345021265,47.0
166,1438345021286,47.0
167,1438345021304,47.0
168,1438345021327,47.0
169,1438345021348,47.0
170,1438345021373,47.0
171,1438345021383,48.0
172,1438345021402,48.0
173,1438345021426,48.0
174,1438345021445,48.0
175,1438345021543,48.0
176,1438345021544,48.0
177,1438345021545,48.0
178,1438345021546,48.0
179,1438345021547,48.0
180,1438345021564,48.0
181,1438345021586,48.0
182,1438345021604,48.0
183,1438345021625,48.0
184,1438345021643,48.0
185,1438345021668,48.0
186,1438345021683,48.0
187,1438345021709,48.0
188,1438345021724,48.0
189,1438345021745,48.0
190,1438345021766,48.0
191,1438345021785,48.0
192,1438345021808,48.0
193,1438345021826,48.0
194,1438345021844,48.0
195,1438345021863,48.0
196,1438345021883,48.0
197,1438345021904,48.0
198,1438345021926,48.0
199,1438345021943,48.0
200,1438345021964,48.0
201,1438345021984,48.0
202,1438345022003,48.0
203,1438345022025,48.0
204,1438345022048,48.0
205,1438345022067,48.0
206,1438345022086,48.0
207,1438345022108,48.0
208,1438345022123,48.0
209,1438345022144,48.0
210,1438345022163,48.0
211,1438345022183,48.0
212,1438345022268,48.0
213,1438345022269,48.0
214,1438345022270,48.0
215,1438345022271,48.0
216,1438345022284,48.0
217,1438345022306,48.0
218,1438345022324,48.0
219,1438345022343,48.0
220,1438345022364,48.0
221,1438345022385,48.0
222,1438345022403,48.0
223,1438345022427,48.0
224,1438345022444,48.0
225,1438345022465,48.0
226,1438345022485,48.0
227,1438345022507,48.0
228,1438345022528,48.0
229,1438345022547,48.0
230,1438345022566,48.0
231,1438345022585,47.0
232,1438345022605,47.0
233,1438345022624,47.0
234,1438345022645,47.0
235,1438345022665,47.0
236,1438345022685,47.0
237,1438345022706,47.0
238,1438345022725,47.0
239,1438345022747,47.0
240,1438345022768,47.0
241,1438345022788,47.0
242,1438345022809,47.0
243,1438345022827,47.0
244,1438345022846,48.0
245,1438345022867,48.0
246,1438345022886,48.0
247,1438345022905,48.0
248,1438345022971,48.0
249,1438345022972,47.0
250,1438345022973,47.0
251,1438345022994,47.0
252,1438345023004,47.0
253,1438345023025,47.0
254,1438345023047,47.0
255,1438345023072,47.0
256,1438345023085,47.0
257,1438345023104,47.0
258,1438345023126,47.0
259,1438345023144,47.0
260,1438345023166,47.0
261,1438345023185,47.0
262,1438345023206,47.0
263,1438345023227,47.0
264,1438345023247,47.0
265,1438345023268,47.0
266,1438345023286,47.0
267,1438345023306,47.0
268,1438345023325,47.0
269,1438345023345,47.0
270,1438345023364,47.0
271,1438345023384,47.0
272,1438345023408,47.0
273,1438345023425,47.0
274,1438345023446,47.0
275,1438345023466,48.0
276,1438345023485,48.0
277,1438345023506,48.0
278,1438345023526,48.0
279,1438345023546,48.0
280,1438345023568,48.0
281,1438345023587,48.0
282,1438345023607,48.0
283,1438345023626,48.0
284,1438345023647,48.0
285,1438345023672,48.0
286,1438345023752,48.0
287,1438345023753,48.0
288,1438345023754,48.0
289,1438345023755,49.0
290,1438345023767,49.0
291,1438345023793,49.0
292,1438345023806,49.0
293,1438345023824,49.0
294,1438345023846,49.0
295,1438345023864,49.0
296,1438345023888,49.0
297,1438345023905,49.0
298,1438345023926,49.0
299,1438345023946,49.0
300,1438345023968,49.0
301,1438345023987,49.0
302,1438345024008,49.0
303,1438345024028,49.0
304,1438345024048,49.0
305,1438345024066,49.0
306,1438345024085,49.0
307,1438345024106,49.0
308,1438345024130,49.0
309,1438345024146,49.0
310,1438345024167,49.0
311,1438345024185,49.0
312,1438345024207,49.0
313,1438345024226,49.0
314,1438345024248,49.0
315,1438345024267,49.0
316,1438345024288,49.0
317,1438345024305,49.0
318,1438345024326,49.0
319,1438345024346,49.0
320,1438345024366,49.0
321,1438345024395,49.0
322,1438345024472,49.0
323,1438345024473,49.0
324,1438345024474,49.0
325,1438345024475,49.0
326,1438345024485,49.0
327,1438345024517,49.0
328,1438345024526,49.0
329,1438345024545,49.0
330,1438345024566,49.0
331,1438345024585,49.0
332,1438345024607,49.0
333,1438345024629,49.0
334,1438345024650,49.0
335,1438345024666,49.0
336,1438345024686,49.0
337,1438345024707,49.0
338,1438345024727,49.0
339,1438345024747,49.0
340,1438345024766,49.0
341,1438345024785,49.0
342,1438345024805,49.0
343,1438345024825,49.0
344,1438345024846,49.0
345,1438345024867,49.0
346,1438345024886,49.0
347,1438345024907,49.0
348,1438345024927,49.0
349,1438345024948,49.0
350,1438345024992,49.0
351,1438345024993,49.0
352,1438345025011,49.0
353,1438345025033,49.0
354,1438345025048,49.0
355,1438345025070,48.0
356,1438345025091,48.0
357,1438345025108,48.0
358,1438345025126,48.0
359,1438345025159,48.0
360,1438345025180,48.0
361,1438345025187,48.0
362,1438345025209,48.0
363,1438345025226,48.0
364,1438345025246,48.0
365,1438345025267,48.0
366,1438345025287,48.0
367,1438345025306,48.0
368,1438345025326,48.0
369,1438345025346,48.0
370,1438345025367,48.0
371,1438345025395,48.0
372,1438345025407,48.0
373,1438345025427,48.0
374,1438345025448,48.0
375,1438345025468,48.0
376,1438345025486,48.0
377,1438345025506,47.0
378,1438345025526,47.0
379,1438345025546,46.0
380,1438345025566,46.0
381,1438345025586,46.0
382,1438345025610,46.0
383,1438345025635,46.0
384,1438345025647,46.0
385,1438345025667,46.0
386,1438345025688,46.0
387,1438345025709,46.0
388,1438345025728,47.0
389,1438345025752,47.0
390,1438345025771,47.0
391,1438345025791,47.0
392,1438345025808,47.0
393,1438345025827,47.0
394,1438345025847,47.0
395,1438345025867,47.0
396,1438345025887,47.0
397,1438345025906,47.0
398,1438345025959,47.0
399,1438345025960,47.0
400,1438345025972,47.0
401,1438345025988,46.0
402,1438345026010,46.0
403,1438345026039,46.0
404,1438345026051,46.0
405,1438345026067,46.0
406,1438345026087,47.0
407,1438345026107,47.0
408,1438345026142,48.0
409,1438345026147,48.0
410,1438345026167,48.0
411,1438345026187,48.0
412,1438345026207,49.0
413,1438345026226,51.0
414,1438345026246,51.0
415,1438345026266,53.0
416,1438345026286,53.0
417,1438345026306,57.0
418,1438345026326,57.0
419,1438345026346,59.0
420,1438345026366,59.0
421,1438345026386,60.0
422,1438345026409,60.0
423,1438345026429,60.0
424,1438345026449,60.0
425,1438345026469,60.0
426,1438345026487,61.0
427,1438345026509,61.0
428,1438345026528,60.0
429,1438345026547,60.0
430,1438345026567,60.0
431,1438345026589,60.0
432,1438345026610,60.0
433,1438345026628,60.0
434,1438345026655,60.0
435,1438345026684,60.0
436,1438345026687,60.0
437,1438345026710,60.0
438,1438345026728,60.0
439,1438345026747,60.0
440,1438345026767,60.0
441,1438345026788,61.0
442,1438345026808,61.0
443,1438345026827,60.0
444,1438345026848,59.0
445,1438345026871,59.0
446,1438345026887,60.0
447,1438345026911,60.0
448,1438345026929,60.0
449,1438345026948,60.0
450,1438345026969,59.0
451,1438345026989,59.0
452,1438345027010,58.0
453,1438345027027,57.0
454,1438345027054,57.0
455,1438345027070,56.0
456,1438345027087,56.0
457,1438345027107,53.0
458,1438345027127,53.0
459,1438345027147,50.0
460,1438345027169,50.0
461,1438345027190,47.0
462,1438345027217,47.0
463,1438345027232,44.0
464,1438345027248,41.0
465,1438345027269,41.0
466,1438345027289,37.0
467,1438345027309,37.0
468,1438345027328,34.0
469,1438345027393,34.0
470,1438345027394,32.0
471,1438345027395,32.0
472,1438345027411,30.0
473,1438345027429,30.0
474,1438345027451,28.0
475,1438345027468,27.0
476,1438345027488,27.0
477,1438345027525,27.0
478,1438345027528,27.0
479,1438345027549,25.0
480,1438345027571,25.0
481,1438345027590,26.0
482,1438345027610,26.0
483,1438345027630,26.0
484,1438345027648,25.0
485,1438345027671,25.0
486,1438345027692,23.0
487,1438345027711,23.0
488,1438345027732,19.0
489,1438345027751,19.0
490,1438345027773,17.0
491,1438345027792,17.0
492,1438345027810,17.0
493,1438345027828,17.0
494,1438345027849,18.0
495,1438345027869,19.0
496,1438345027889,19.0
497,1438345027909,18.0
498,1438345027932,18.0
499,1438345027952,19.0
500,1438345027971,19.0
501,1438345027991,21.0
502,1438345028010,21.0
503,1438345028035,19.0
504,1438345028172,21.0
505,1438345028173,21.0
506,1438345028174,25.0
507,1438345028175,25.0
508,1438345028176,27.0
509,1438345028177,27.0
510,1438345028178,28.0
511,1438345028199,28.0
512,1438345028210,28.0
513,1438345028229,28.0
514,1438345028249,29.0
515,1438345028272,29.0
516,1438345028296,29.0
517,1438345028310,30.0
518,1438345028329,30.0
519,1438345028351,28.0
520,1438345028371,28.0
521,1438345028389,27.0
522,1438345028410,27.0
523,1438345028432,25.0
524,1438345028452,25.0
525,1438345028472,24.0
526,1438345028492,24.0
527,1438345028512,24.0
528,1438345028537,22.0
529,1438345028557,22.0
530,1438345028569,22.0
531,1438345028593,22.0
532,1438345028609,18.0
533,1438345028629,18.0
534,1438345028653,17.0
535,1438345028672,17.0
536,1438345028693,17.0
537,1438345028709,20.0
538,1438345028730,20.0
539,1438345028751,25.0
540,1438345028777,25.0
541,1438345028798,25.0
542,1438345028860,25.0
543,1438345028861,24.0
544,1438345028862,24.0
545,1438345028911,24.0
546,1438345028917,23.0
547,1438345028918,23.0
548,1438345028956,21.0
549,1438345028957,21.0
550,1438345028979,18.0
551,1438345029099,18.0
552,1438345029100,14.0
553,1438345029101,14.0
554,1438345029102,15.0
555,1438345029103,15.0
556,1438345029104,16.0
557,1438345029142,17.0
558,1438345029143,17.0
559,1438345029153,18.0
560,1438345029170,18.0
561,1438345029190,18.0
562,1438345029210,18.0
563,1438345029235,18.0
564,1438345029248,18.0
565,1438345029268,17.0
566,1438345029289,17.0
567,1438345029308,17.0
568,1438345029331,18.0
569,1438345029353,18.0
570,1438345029374,19.0
571,1438345029389,19.0
572,1438345029413,20.0
573,1438345029429,20.0
574,1438345029450,21.0
575,1438345029471,21.0
576,1438345029494,21.0
577,1438345029515,20.0
578,1438345029534,20.0
579,1438345029550,19.0
580,1438345029569,19.0
581,1438345029590,19.0
582,1438345029610,19.0
583,1438345029633,17.0
584,1438345029664,17.0
585,1438345029674,20.0
586,1438345029689,20.0
587,1438345029709,22.0
588,1438345029729,25.0
589,1438345029751,25.0
590,1438345029772,27.0
591,1438345029791,27.0
592,1438345029811,28.0
593,1438345029831,28.0
594,1438345029853,30.0
595,1438345029871,30.0
596,1438345029893,31.0
597,1438345029913,32.0
598,1438345029932,32.0
599,1438345029950,30.0
600,1438345029971,30.0
601,1438345029991,29.0
602,1438345030011,29.0
603,1438345030034,28.0
604,1438345030051,28.0
605,1438345030072,26.0
606,1438345030091,26.0
607,1438345030111,25.0
608,1438345030132,24.0
609,1438345030152,24.0
610,1438345030172,24.0
611,1438345030194,24.0
612,1438345030213,25.0
613,1438345030233,25.0
614,1438345030251,26.0
615,1438345030281,26.0
616,1438345030374,28.0
617,1438345030375,28.0
618,1438345030376,30.0
619,1438345030377,32.0
620,1438345030378,32.0
621,1438345030397,32.0
622,1438345030421,32.0
623,1438345030432,29.0
624,1438345030472,29.0
625,1438345030473,23.0
626,1438345030497,23.0
627,1438345030513,16.0
628,1438345030533,10.0
629,1438345030554,10.0
630,1438345030571,7.0
631,1438345030592,7.0
632,1438345030611,7.0
633,1438345030634,7.0
634,1438345030653,7.0
635,1438345030675,7.0
636,1438345030694,6.0
637,1438345030713,6.0
638,1438345030732,6.0
639,1438345030751,6.0
640,1438345030773,6.0
641,1438345030793,6.0
642,1438345030813,6.0
643,1438345030835,7.0
644,1438345030852,7.0
645,1438345030870,8.0
646,1438345030891,8.0
647,1438345030912,10.0
648,1438345030936,10.0
649,1438345030957,12.0
650,1438345030976,13.0
651,1438345030991,13.0
652,1438345031042,15.0
653,1438345031043,15.0
654,1438345031063,14.0
655,1438345031081,14.0
656,1438345031091,13.0
657,1438345031113,13.0
658,1438345031132,12.0
659,1438345031155,11.0
660,1438345031171,11.0
661,1438345031194,14.0
662,1438345031215,14.0
663,1438345031234,17.0
664,1438345031252,17.0
665,1438345031273,19.0
666,1438345031292,19.0
667,1438345031314,20.0
668,1438345031341,20.0
669,1438345031352,20.0
670,1438345031374,20.0
671,1438345031393,20.0
672,1438345031414,20.0
673,1438345031434,20.0
674,1438345031454,19.0
675,1438345031472,19.0
676,1438345031496,18.0
677,1438345031520,18.0
678,1438345031537,17.0
679,1438345031555,17.0
680,1438345031573,17.0
681,1438345031593,17.0
682,1438345031613,17.0
683,1438345031633,18.0
684,1438345031709,18.0
685,1438345031710,18.0
686,1438345031714,18.0
687,1438345031715,17.0
688,1438345031735,17.0
689,1438345031753,16.0
690,1438345031776,15.0
691,1438345031794,15.0
692,1438345031813,15.0
693,1438345031834,15.0
694,1438345031855,16.0
695,1438345031878,16.0
696,1438345031895,24.0
697,1438345031916,24.0
698,1438345031935,27.0
699,1438345031961,27.0
700,1438345031973,24.0
701,1438345031995,23.0
702,1438345032016,23.0
703,1438345032044,22.0
704,1438345032067,22.0
705,1438345032078,21.0
706,1438345032095,21.0
707,1438345032117,19.0
708,1438345032134,19.0
709,1438345032154,17.0
710,1438345032173,17.0
711,1438345032193,17.0
712,1438345032213,18.0
713,1438345032234,18.0
714,1438345032253,20.0
715,1438345032272,20.0
716,1438345032294,22.0
717,1438345032314,22.0
718,1438345032333,23.0
719,1438345032354,23.0
720,1438345032388,22.0
721,1438345032457,21.0
722,1438345032458,21.0
723,1438345032459,21.0
724,1438345032460,21.0
725,1438345032474,22.0
726,1438345032498,22.0
727,1438345032514,21.0
728,1438345032537,21.0
729,1438345032555,22.0
730,1438345032574,22.0
731,1438345032594,23.0
732,1438345032618,22.0
733,1438345032634,22.0
734,1438345032655,21.0
735,1438345032676,21.0
736,1438345032695,22.0
737,1438345032714,22.0
738,1438345032733,25.0
739,1438345032753,25.0
740,1438345032773,26.0
741,1438345032795,26.0
742,1438345032814,25.0
743,1438345032837,29.0
744,1438345032854,29.0
745,1438345032881,32.0
746,1438345032896,32.0
747,1438345032914,31.0
748,1438345032939,31.0
749,1438345032960,29.0
750,1438345032977,29.0
751,1438345033003,26.0
752,1438345033016,22.0
753,1438345033041,22.0
754,1438345033064,20.0
755,1438345033081,20.0
756,1438345033096,25.0
757,1438345033119,25.0
758,1438345033226,30.0
759,1438345033227,30.0
760,1438345033228,28.0
761,1438345033229,28.0
762,1438345033230,26.0
763,1438345033277,26.0
764,1438345033278,26.0
765,1438345033279,27.0
766,1438345033295,27.0
767,1438345033329,32.0
768,1438345033336,32.0
769,1438345033354,33.0
770,1438345033374,33.0
771,1438345033394,32.0
772,1438345033414,32.0
773,1438345033434,33.0
774,1438345033454,34.0
775,1438345033474,34.0
776,1438345033494,35.0
777,1438345033514,35.0
778,1438345033534,34.0
779,1438345033554,34.0
780,1438345033582,28.0
781,1438345033594,28.0
782,1438345033614,18.0
783,1438345033634,17.0
784,1438345033657,17.0
785,1438345033676,17.0
786,1438345033694,17.0
787,1438345033714,18.0
788,1438345033734,18.0
789,1438345033754,19.0
790,1438345033774,19.0
791,1438345033796,21.0
792,1438345033813,21.0
793,1438345033833,24.0
794,1438345033853,25.0
795,1438345033875,25.0
796,1438345033918,25.0
797,1438345033919,25.0
798,1438345033933,26.0
799,1438345033953,26.0
800,1438345033973,24.0
801,1438345033994,24.0
802,1438345034014,24.0
803,1438345034033,24.0
804,1438345034054,24.0
805,1438345034074,27.0
806,1438345034093,27.0
807,1438345034115,31.0
808,1438345034134,31.0
809,1438345034156,35.0
810,1438345034177,35.0
811,1438345034196,35.0
812,1438345034216,35.0
813,1438345034234,33.0
814,1438345034254,32.0
815,1438345034276,32.0
816,1438345034296,31.0
817,1438345034317,31.0
818,1438345034336,31.0
819,1438345034357,31.0
820,1438345034377,31.0
821,1438345034396,31.0
822,1438345034418,31.0
823,1438345034439,31.0
824,1438345034457,31.0
825,1438345034477,32.0
826,1438345034496,32.0
827,1438345034518,32.0
828,1438345034548,32.0
829,1438345034618,31.0
830,1438345034619,31.0
831,1438345034620,30.0
832,1438345034621,30.0
833,1438345034637,30.0
834,1438345034658,30.0
835,1438345034675,30.0
836,1438345034711,31.0
837,1438345034717,31.0
838,1438345034738,31.0
839,1438345034756,31.0
840,1438345034778,31.0
841,1438345034796,31.0
842,1438345034816,31.0
843,1438345034835,31.0
844,1438345034855,32.0
845,1438345034875,32.0
846,1438345034897,32.0
847,1438345034915,33.0
848,1438345034936,33.0
849,1438345034956,33.0
850,1438345034977,33.0
851,1438345035016,32.0
852,1438345035017,32.0
853,1438345035036,32.0
854,1438345035058,32.0
855,1438345035082,31.0
856,1438345035097,32.0
857,1438345035117,32.0
858,1438345035136,32.0
859,1438345035156,32.0
860,1438345035175,32.0
861,1438345035197,32.0
862,1438345035219,32.0
863,1438345035239,32.0
864,1438345035258,33.0
865,1438345035281,32.0
866,1438345035359,32.0
867,1438345035360,32.0
868,1438345035361,32.0
869,1438345035362,31.0
870,1438345035378,31.0
871,1438345035400,31.0
872,1438345035416,31.0
873,1438345035437,30.0
