id,attr_time,attr_light
1,1438345018024,0.0
2,1438345018087,0.0
3,1438345018088,0.0
4,1438345018089,0.0
5,1438345018126,0.0
6,1438345018127,0.0
7,1438345018136,0.0
8,1438345018154,0.0
9,1438345018173,0.0
10,1438345018193,0.0
11,1438345018215,0.0
12,1438345018236,0.0
13,1438345018256,0.0
14,1438345018275,0.0
15,1438345018296,0.0
16,1438345018315,0.0
17,1438345018336,0.0
18,1438345018356,0.0
19,1438345018375,0.0
20,1438345018396,0.0
21,1438345018414,0.0
22,1438345018435,0.0
23,1438345018456,0.0
24,1438345018475,0.0
25,1438345018495,0.0
26,1438345018516,0.0
27,1438345018535,0.0
28,1438345018555,0.0
29,1438345018577,0.0
30,1438345018596,0.0
31,1438345018616,0.0
32,1438345018635,0.0
33,1438345018655,0.0
34,1438345018682,0.0
35,1438345018739,0.0
36,1438345018740,0.0
37,1438345018741,0.0
38,1438345018754,0.0
39,1438345018773,0.0
40,1438345018793,0.0
41,1438345018814,0.0
42,1438345018833,0.0
43,1438345018854,0.0
44,1438345018873,0.0
45,1438345018895,0.0
46,1438345018916,0.0
47,1438345018934,0.0
48,1438345018954,0.0
49,1438345018974,0.0
50,1438345018993,0.0
51,1438345019015,0.0
52,1438345019035,0.0
53,1438345019059,0.0
54,1438345019076,0.0
55,1438345019093,0.0
56,1438345019115,0.0
57,1438345019138,0.0
58,1438345019153,0.0
59,1438345019176,0.0
60,1438345019193,0.0
61,1438345019214,0.0
62,1438345019234,0.0
63,1438345019259,0.0
64,1438345019280,0.0
65,1438345019300,0.0
66,1438345019314,0.0
67,1438345019334,0.0
68,1438345019354,0.0
69,1438345019374,0.0
70,1438345019394,0.0
71,1438345019414,0.0
72,1438345019486,0.0
73,1438345019487,0.0
74,1438345019488,0.0
75,1438345019495,0.0
76,1438345019524,0.0
77,1438345019536,0.0
78,1438345019554,0.0
79,1438345019575,0.0
80,1438345019596,0.0
81,1438345019616,0.0
82,1438345019634,0.0
83,1438345019657,0.0
84,1438345019676,0.0
85,1438345019696,0.0
86,1438345019716,0.0
87,1438345019736,0.0
88,1438345019757,0.0
89,1438345019777,0.0
90,1438345019797,0.0
91,1438345019816,0.0
92,1438345019837,0.0
93,1438345019857,0.0
94,1438345019874,0.0
95,1438345019897,0.0
96,1438345019916,0.0
97,1438345019937,0.0
98,1438345019955,0.0
99,1438345019976,0.0
100,1438345019997,0.0
101,1438345020014,0.0
102,1438345020036,0.0
103,1438345020062,0.0
104,1438345020079,0.0
105,1438345020099,0.0
106,1438345020191,0.0
107,1438345020192,0.0
108,1438345020193,0.0
109,1438345020194,0.0
110,1438345020217,0.0
111,1438345020218,0.0
112,1438345020235,0.0
113,1438345020258,0.0
114,1438345020274,0.0
115,1438345020294,0.0
116,1438345020317,0.0
117,1438345020335,0.0
118,1438345020356,0.0
119,1438345020376,0.0
120,1438345020397,0.0
121,1438345020415,0.0
122,1438345020438,0.0
123,1438345020458,0.0
124,1438345020478,0.0
125,1438345020498,0.0
126,1438345020515,0.0
127,1438345020535,0.0
128,1438345020555,0.0
129,1438345020575,0.0
130,1438345020595,0.0
131,1438345020615,0.0
132,1438345020637,0.0
133,1438345020655,0.0
134,1438345020675,0.0
135,1438345020696,0.0
136,1438345020721,0.0
137,1438345020735,0.0
138,1438345020760,0.0
139,1438345020778,0.0
140,1438345020795,0.0
141,1438345020815,0.0
142,1438345020835,0.0
143,1438345020856,0.0
144,1438345020877,0.0
145,1438345020947,0.0
146,1438345020948,0.0
147,1438345020949,0.0
148,1438345020957,0.0
149,1438345020975,0.0
150,1438345020995,0.0
151,1438345021015,0.0
152,1438345021079,0.0
153,1438345021080,0.0
154,1438345021081,0.0
155,1438345021098,0.0
156,1438345021117,0.0
157,1438345021137,0.0
158,1438345021158,0.0
159,1438345021176,0.0
160,1438345021197,0.0
161,1438345021218,0.0
162,1438345021237,0.0
163,1438345021258,0.0
164,1438345021278,0.0
165,1438345021298,0.0
166,1438345021317,0.0
167,1438345021335,0.0
168,1438345021357,0.0
169,1438345021378,0.0
170,1438345021398,0.0
171,1438345021417,0.0
172,1438345021437,0.0
173,1438345021457,0.0
174,1438345021479,0.0
175,1438345021499,0.0
176,1438345021518,0.0
177,1438345021539,0.0
178,1438345021557,0.0
179,1438345021578,0.0
180,1438345021599,0.0
181,1438345021665,0.0
182,1438345021666,0.0
183,1438345021667,0.0
184,1438345021681,0.0
185,1438345021705,0.0
186,1438345021717,0.0
187,1438345021738,0.0
188,1438345021759,0.0
189,1438345021776,0.0
190,1438345021797,0.0
191,1438345021817,0.0
192,1438345021837,0.0
193,1438345021856,0.0
194,1438345021876,0.0
195,1438345021896,0.0
196,1438345021916,0.0
197,1438345021936,0.0
198,1438345021956,0.0
199,1438345021976,0.0
200,1438345021996,0.0
201,1438345022017,0.0
202,1438345022038,0.0
203,1438345022063,0.0
204,1438345022082,0.0
205,1438345022099,0.0
206,1438345022117,0.0
207,1438345022137,0.0
208,1438345022159,0.0
209,1438345022177,0.0
210,1438345022197,0.0
211,1438345022217,0.0
212,1438345022239,0.0
213,1438345022257,0.0
214,1438345022277,0.0
215,1438345022297,0.0
216,1438345022322,0.0
217,1438345022383,0.0
218,1438345022394,0.0
219,1438345022396,0.0
220,1438345022397,0.0
221,1438345022417,0.0
222,1438345022441,0.0
223,1438345022456,0.0
224,1438345022477,0.0
225,1438345022499,0.0
226,1438345022517,0.0
227,1438345022539,0.0
228,1438345022557,0.0
229,1438345022578,0.0
230,1438345022599,0.0
231,1438345022620,0.0
232,1438345022640,0.0
233,1438345022658,0.0
234,1438345022677,0.0
235,1438345022697,0.0
236,1438345022718,0.0
237,1438345022744,0.0
238,1438345022758,0.0
239,1438345022777,0.0
240,1438345022797,0.0
241,1438345022817,0.0
242,1438345022837,0.0
243,1438345022857,0.0
244,1438345022877,0.0
245,1438345022897,0.0
246,1438345022917,0.0
247,1438345022938,0.0
248,1438345022958,0.0
249,1438345022978,0.0
250,1438345022998,0.0
251,1438345023021,0.0
252,1438345023038,0.0
253,1438345023161,0.0
254,1438345023162,0.0
255,1438345023163,0.0
256,1438345023164,0.0
257,1438345023165,0.0
258,1438345023166,0.0
259,1438345023179,0.0
260,1438345023197,0.0
261,1438345023217,0.0
262,1438345023237,0.0
263,1438345023262,0.0
264,1438345023279,0.0
265,1438345023299,0.0
266,1438345023318,0.0
267,1438345023340,0.0
268,1438345023359,0.0
269,1438345023381,0.0
270,1438345023399,0.0
271,1438345023419,0.0
272,1438345023441,0.0
273,1438345023460,0.0
274,1438345023481,0.0
275,1438345023499,0.0
276,1438345023520,0.0
277,1438345023540,0.0
278,1438345023561,0.0
279,1438345023580,0.0
280,1438345023598,0.0
281,1438345023618,0.0
282,1438345023640,0.0
283,1438345023658,0.0
284,1438345023679,0.0
285,1438345023700,0.0
286,1438345023720,0.0
287,1438345023741,0.0
288,1438345023760,0.0
289,1438345023779,0.0
290,1438345023809,0.0
291,1438345023869,0.0
292,1438345023870,0.0
293,1438345023871,0.0
294,1438345023883,0.0
295,1438345023906,0.0
296,1438345023918,0.0
297,1438345023953,0.0
298,1438345023958,0.0
299,1438345023980,0.0
300,1438345023999,0.0
301,1438345024019,0.0
302,1438345024039,0.0
303,1438345024062,0.0
304,1438345024082,0.0
305,1438345024101,0.0
306,1438345024119,0.0
307,1438345024141,0.0
308,1438345024160,0.0
309,1438345024180,0.0
310,1438345024201,0.0
311,1438345024219,0.0
312,1438345024241,0.0
313,1438345024260,0.0
314,1438345024282,0.0
315,1438345024301,0.0
316,1438345024321,0.0
317,1438345024344,0.0
318,1438345024360,0.0
319,1438345024378,0.0
320,1438345024398,0.0
321,1438345024418,0.0
322,1438345024444,0.0
323,1438345024460,0.0
324,1438345024481,0.0
325,1438345024499,0.0
326,1438345024530,0.0
327,1438345024542,0.0
328,1438345024609,0.0
329,1438345024610,0.0
330,1438345024611,0.0
331,1438345024618,0.0
332,1438345024638,0.0
333,1438345024660,0.0
334,1438345024678,0.0
335,1438345024700,0.0
336,1438345024719,0.0
337,1438345024742,0.0
338,1438345024761,0.0
339,1438345024783,0.0
340,1438345024799,0.0
341,1438345024822,0.0
342,1438345024839,0.0
343,1438345024861,0.0
344,1438345024882,0.0
345,1438345024903,0.0
346,1438345024919,0.0
347,1438345024940,0.0
348,1438345024961,0.0
349,1438345024980,0.0
350,1438345025003,0.0
351,1438345025022,0.0
352,1438345025042,0.0
353,1438345025066,0.0
354,1438345025079,0.0
355,1438345025107,0.0
356,1438345025124,0.0
357,1438345025145,0.0
358,1438345025162,0.0
359,1438345025179,0.0
360,1438345025199,0.0
361,1438345025219,0.0
362,1438345025242,0.0
363,1438345025259,0.0
364,1438345025312,0.0
365,1438345025313,0.0
366,1438345025322,0.0
367,1438345025339,0.0
368,1438345025359,0.0
369,1438345025379,0.0
370,1438345025399,0.0
371,1438345025419,0.0
372,1438345025441,0.0
373,1438345025460,0.0
374,1438345025480,0.0
375,1438345025500,0.0
376,1438345025525,0.0
377,1438345025543,0.0
378,1438345025563,0.0
379,1438345025582,0.0
380,1438345025603,0.0
381,1438345025623,0.0
382,1438345025643,0.0
383,1438345025663,0.0
384,1438345025683,0.0
385,1438345025702,0.0
386,1438345025720,0.0
387,1438345025740,0.0
388,1438345025766,0.0
389,1438345025783,0.0
390,1438345025803,0.0
391,1438345025822,0.0
392,1438345025843,0.0
393,1438345025863,0.0
394,1438345025883,0.0
395,1438345025911,0.0
396,1438345025920,0.0
397,1438345025940,0.0
398,1438345025960,0.0
399,1438345025980,0.0
400,1438345026000,0.0
401,1438345026057,0.0
402,1438345026060,0.0
403,1438345026061,0.0
404,1438345026095,0.0
405,1438345026103,0.0
406,1438345026124,0.0
407,1438345026143,0.0
408,1438345026162,0.0
409,1438345026180,0.0
410,1438345026200,0.0
411,1438345026227,0.0
412,1438345026240,0.0
413,1438345026264,0.0
414,1438345026280,0.0
415,1438345026300,0.0
416,1438345026323,0.0
417,1438345026343,0.0
418,1438345026363,0.0
419,1438345026381,0.0
420,1438345026404,0.0
421,1438345026423,0.0
422,1438345026440,0.0
423,1438345026460,0.0
424,1438345026480,0.0
425,1438345026500,0.0
426,1438345026520,0.0
427,1438345026540,0.0
428,1438345026560,0.0
429,1438345026580,0.0
430,1438345026600,0.0
431,1438345026620,0.0
432,1438345026643,0.0
433,1438345026663,0.0
434,1438345026684,0.0
435,1438345026704,0.0
436,1438345026724,0.0
437,1438345026740,0.0
438,1438345026763,0.0
439,1438345026785,0.0
440,1438345026823,0.0
441,1438345026833,0.0
442,1438345026842,0.0
443,1438345026862,0.0
444,1438345026885,0.0
445,1438345026902,0.0
446,1438345026922,0.0
447,1438345026940,0.0
448,1438345026960,0.0
449,1438345026984,0.0
450,1438345027004,0.0
451,1438345027026,0.0
452,1438345027043,0.0
453,1438345027064,0.0
454,1438345027083,0.0
455,1438345027103,0.0
456,1438345027123,0.0
457,1438345027143,0.0
458,1438345027165,0.0
459,1438345027181,0.0
460,1438345027204,0.0
461,1438345027225,0.0
462,1438345027243,0.0
463,1438345027264,0.0
464,1438345027283,0.0
465,1438345027305,0.0
466,1438345027325,0.0
467,1438345027345,0.0
468,1438345027364,0.0
469,1438345027383,0.0
470,1438345027402,0.0
471,1438345027424,0.0
472,1438345027450,0.0
473,1438345027508,0.0
474,1438345027509,0.0
475,1438345027510,0.0
476,1438345027527,0.0
477,1438345027541,0.0
478,1438345027568,0.0
479,1438345027582,0.0
480,1438345027601,0.0
481,1438345027623,0.0
482,1438345027642,0.0
483,1438345027663,0.0
484,1438345027682,0.0
485,1438345027706,0.0
486,1438345027722,0.0
487,1438345027745,0.0
488,1438345027765,0.0
489,1438345027782,0.0
490,1438345027805,0.0
491,1438345027825,0.0
492,1438345027845,0.0
493,1438345027865,0.0
494,1438345027882,0.0
495,1438345027906,0.0
496,1438345027930,0.0
497,1438345027942,0.0
498,1438345027962,0.0
499,1438345027982,0.0
500,1438345028002,0.0
501,1438345028023,0.0
502,1438345028044,0.0
503,1438345028071,0.0
504,1438345028087,0.0
505,1438345028102,0.0
506,1438345028127,0.0
507,1438345028144,0.0
508,1438345028167,0.0
509,1438345028252,0.0
510,1438345028253,0.0
511,1438345028254,0.0
512,1438345028255,0.0
513,1438345028268,0.0
514,1438345028281,0.0
515,1438345028301,0.0
516,1438345028323,0.0
517,1438345028342,0.0
518,1438345028362,0.0
519,1438345028383,0.0
520,1438345028404,0.0
521,1438345028424,0.0
522,1438345028442,0.0
523,1438345028465,0.0
524,1438345028485,0.0
525,1438345028505,0.0
526,1438345028526,0.0
527,1438345028544,0.0
528,1438345028566,0.0
529,1438345028585,0.0
530,1438345028602,0.0
531,1438345028623,0.0
532,1438345028643,0.0
533,1438345028663,0.0
534,1438345028682,0.0
535,1438345028705,0.0
536,1438345028726,0.0
537,1438345028745,0.0
538,1438345028766,0.0
539,1438345028784,0.0
540,1438345028803,0.0
541,1438345028824,0.0
542,1438345028843,0.0
543,1438345028863,0.0
544,1438345028918,0.0
545,1438345028932,0.0
546,1438345028933,0.0
547,1438345028943,0.0
548,1438345028971,0.0
549,1438345029013,0.0
550,1438345029014,0.0
551,1438345029023,0.0
552,1438345029044,0.0
553,1438345029065,0.0
554,1438345029084,0.0
555,1438345029107,0.0
556,1438345029124,0.0
557,1438345029146,0.0
558,1438345029166,0.0
559,1438345029186,0.0
560,1438345029206,0.0
561,1438345029226,0.0
562,1438345029247,0.0
563,1438345029265,0.0
564,1438345029287,0.0
565,1438345029304,0.0
566,1438345029324,0.0
567,1438345029347,0.0
568,1438345029363,0.0
569,1438345029385,0.0
570,1438345029406,0.0
571,1438345029428,0.0
572,1438345029448,0.0
573,1438345029468,0.0
574,1438345029487,0.0
575,1438345029504,0.0
576,1438345029524,0.0
577,1438345029544,0.0
578,1438345029565,0.0
579,1438345029587,0.0
580,1438345029654,0.0
581,1438345029655,0.0
582,1438345029656,0.0
583,1438345029663,0.0
584,1438345029691,0.0
585,1438345029704,0.0
586,1438345029724,0.0
587,1438345029744,0.0
588,1438345029765,0.0
589,1438345029784,0.0
590,1438345029805,0.0
591,1438345029825,0.0
592,1438345029844,0.0
593,1438345029867,0.0
594,1438345029886,0.0
595,1438345029907,0.0
596,1438345029928,0.0
597,1438345029947,0.0
598,1438345029967,0.0
599,1438345029984,0.0
600,1438345030007,0.0
601,1438345030035,0.0
602,1438345030046,0.0
603,1438345030067,0.0
604,1438345030088,0.0
605,1438345030109,0.0
606,1438345030155,0.0
607,1438345030156,0.0
608,1438345030165,0.0
609,1438345030186,0.0
610,1438345030207,0.0
611,1438345030228,0.0
612,1438345030246,0.0
613,1438345030265,0.0
614,1438345030294,0.0
615,1438345030305,0.0
616,1438345030356,0.0
617,1438345030357,0.0
618,1438345030365,0.0
619,1438345030384,0.0
620,1438345030411,0.0
621,1438345030425,0.0
622,1438345030446,0.0
623,1438345030465,0.0
624,1438345030485,0.0
625,1438345030505,0.0
626,1438345030525,0.0
627,1438345030547,0.0
628,1438345030567,0.0
629,1438345030587,0.0
630,1438345030605,0.0
631,1438345030628,0.0
632,1438345030648,0.0
633,1438345030668,0.0
634,1438345030688,0.0
635,1438345030705,0.0
636,1438345030728,0.0
637,1438345030746,0.0
638,1438345030767,0.0
639,1438345030788,0.0
640,1438345030806,0.0
641,1438345030828,0.0
642,1438345030848,0.0
643,1438345030865,0.0
644,1438345030885,0.0
645,1438345030907,0.0
646,1438345030928,0.0
647,1438345030948,0.0
648,1438345030966,0.0
649,1438345030986,0.0
650,1438345031013,0.0
651,1438345031125,0.0
652,1438345031126,0.0
653,1438345031127,0.0
654,1438345031128,0.0
655,1438345031129,0.0
656,1438345031130,0.0
657,1438345031153,0.0
658,1438345031165,0.0
659,1438345031185,0.0
660,1438345031205,0.0
661,1438345031225,0.0
662,1438345031245,1.0
663,1438345031265,1.0
664,1438345031285,0.0
665,1438345031311,1.0
666,1438345031325,1.0
667,1438345031345,0.0
668,1438345031365,0.0
669,1438345031387,0.0
670,1438345031412,0.0
671,1438345031425,0.0
672,1438345031445,0.0
673,1438345031465,0.0
674,1438345031486,0.0
675,1438345031506,0.0
676,1438345031525,0.0
677,1438345031545,0.0
678,1438345031565,0.0
679,1438345031586,0.0
680,1438345031616,0.0
681,1438345031634,0.0
682,1438345031645,0.0
683,1438345031665,0.0
684,1438345031685,0.0
685,1438345031705,0.0
686,1438345031725,0.0
687,1438345031745,0.0
688,1438345031765,0.0
689,1438345031785,0.0
690,1438345031805,0.0
691,1438345031824,0.0
692,1438345031845,0.0
693,1438345031865,0.0
694,1438345031885,0.0
695,1438345031905,0.0
696,1438345031927,0.0
697,1438345031951,0.0
698,1438345031965,0.0
699,1438345031985,0.0
700,1438345032004,0.0
701,1438345032025,0.0
702,1438345032045,0.0
703,1438345032065,0.0
704,1438345032085,0.0
705,1438345032105,0.0
706,1438345032125,0.0
707,1438345032145,0.0
708,1438345032165,0.0
709,1438345032185,0.0
710,1438345032205,0.0
711,1438345032226,0.0
712,1438345032246,0.0
713,1438345032266,0.0
714,1438345032286,0.0
715,1438345032306,0.0
716,1438345032328,0.0
717,1438345032348,0.0
718,1438345032366,0.0
719,1438345032387,0.0
720,1438345032406,0.0
721,1438345032427,0.0
722,1438345032460,0.0
723,1438345032471,0.0
724,1438345032491,0.0
725,1438345032505,0.0
726,1438345032527,0.0
727,1438345032547,0.0
728,1438345032567,0.0
729,1438345032586,0.0
730,1438345032607,0.0
731,1438345032627,0.0
732,1438345032648,0.0
733,1438345032666,0.0
734,1438345032687,0.0
735,1438345032708,0.0
736,1438345032727,0.0
737,1438345032747,0.0
738,1438345032767,0.0
739,1438345032787,0.0
740,1438345032807,0.0
741,1438345032840,0.0
742,1438345032864,0.0
743,1438345032868,0.0
744,1438345032892,0.0
745,1438345032906,0.0
746,1438345032928,0.0
747,1438345032948,0.0
748,1438345032969,0.0
749,1438345032988,0.0
750,1438345033009,0.0
751,1438345033029,0.0
752,1438345033047,0.0
753,1438345033158,0.0
754,1438345033159,0.0
755,1438345033160,0.0
756,1438345033161,0.0
757,1438345033162,0.0
758,1438345033175,0.0
759,1438345033188,0.0
760,1438345033207,0.0
761,1438345033241,0.0
762,1438345033250,0.0
763,1438345033268,0.0
764,1438345033290,0.0
765,1438345033307,0.0
766,1438345033329,0.0
767,1438345033346,0.0
768,1438345033370,0.0
769,1438345033388,0.0
770,1438345033407,0.0
771,1438345033430,0.0
772,1438345033447,0.0
773,1438345033470,0.0
774,1438345033489,0.0
775,1438345033509,0.0
776,1438345033528,0.0
777,1438345033549,0.0
778,1438345033570,0.0
779,1438345033589,0.0
780,1438345033609,0.0
781,1438345033630,0.0
782,1438345033647,1.0
783,1438345033667,0.0
784,1438345033688,0.0
785,1438345033709,0.0
786,1438345033730,0.0
787,1438345033748,0.0
788,1438345033769,0.0
789,1438345033787,0.0
790,1438345033845,0.0
791,1438345033846,0.0
792,1438345033860,0.0
793,1438345033867,0.0
794,1438345033889,0.0
795,1438345033908,0.0
796,1438345033927,0.0
797,1438345033948,0.0
798,1438345033967,0.0
799,1438345033987,0.0
800,1438345034015,0.0
801,1438345034030,0.0
802,1438345034052,0.0
803,1438345034076,0.0
804,1438345034088,1.0
805,1438345034111,1.0
806,1438345034130,0.0
807,1438345034148,0.0
808,1438345034170,1.0
809,1438345034191,1.0
810,1438345034209,0.0
811,1438345034230,0.0
812,1438345034255,0.0
813,1438345034270,0.0
814,1438345034290,0.0
815,1438345034310,0.0
816,1438345034330,0.0
817,1438345034349,0.0
818,1438345034368,0.0
819,1438345034388,0.0
820,1438345034408,0.0
821,1438345034430,0.0
822,1438345034450,0.0
823,1438345034476,0.0
824,1438345034490,0.0
825,1438345034515,0.0
826,1438345034575,0.0
827,1438345034576,0.0
828,1438345034586,0.0
829,1438345034597,0.0
830,1438345034610,0.0
831,1438345034630,0.0
832,1438345034648,0.0
833,1438345034668,0.0
834,1438345034695,0.0
835,1438345034708,0.0
836,1438345034730,0.0
837,1438345034749,0.0
838,1438345034771,0.0
839,1438345034791,0.0
840,1438345034812,0.0
841,1438345034831,0.0
842,1438345034850,0.0
843,1438345034873,0.0
844,1438345034891,0.0
845,1438345034911,0.0
846,1438345034931,0.0
847,1438345034950,0.0
848,1438345034971,0.0
849,1438345034989,0.0
850,1438345035011,0.0
851,1438345035030,0.0
852,1438345035052,0.0
853,1438345035074,0.0
854,1438345035099,0.0
855,1438345035110,0.0
856,1438345035134,0.0
857,1438345035149,0.0
858,1438345035172,0.0
859,1438345035192,0.0
860,1438345035212,0.0
861,1438345035229,0.0
862,1438345035250,0.0
863,1438345035307,0.0
864,1438345035308,0.0
865,1438345035322,0.0
866,1438345035329,0.0
867,1438345035349,0.0
868,1438345035370,0.0
869,1438345035389,0.0
870,1438345035417,0.0
871,1438345035429,0.0
872,1438345035451,0.0
873,1438345035470,0.0
874,1438345035490,0.0
875,1438345035509,0.0
876,1438345035533,0.0
877,1438345035552,0.0
878,1438345035573,0.0
879,1438345035592,0.0
880,1438345035612,0.0
881,1438345035629,0.0
882,1438345035652,0.0
883,1438345035672,0.0
884,1438345035692,0.0
885,1438345035711,0.0
886,1438345035732,0.0
887,1438345035749,0.0
888,1438345035769,0.0
889,1438345035789,0.0
890,1438345035835,0.0
891,1438345035836,0.0
892,1438345035860,0.0
893,1438345035869,0.0
894,1438345035899,0.0
895,1438345035909,0.0
896,1438345035931,0.0
897,1438345035950,0.0
898,1438345035969,0.0
899,1438345036015,0.0
900,1438345036016,0.0
901,1438345036066,0.0
902,1438345036067,0.0
903,1438345036078,0.0
904,1438345036119,0.0
905,1438345036120,0.0
906,1438345036139,0.0
907,1438345036150,0.0
908,1438345036170,0.0
909,1438345036190,0.0
910,1438345036218,0.0
911,1438345036239,0.0
912,1438345036250,0.0
