id,attr_time,attr_light
1,1436986568504,0.0
2,1436986568523,0.0
3,1436986568543,0.0
4,1436986568564,0.0
5,1436986568585,0.0
6,1436986568604,0.0
7,1436986568624,0.0
8,1436986568645,0.0
9,1436986568715,0.0
10,1436986568716,0.0
11,1436986568717,0.0
12,1436986568726,0.0
13,1436986568743,0.0
14,1436986568787,0.0
15,1436986568788,0.0
16,1436986568802,0.0
17,1436986568823,0.0
18,1436986568842,0.0
19,1436986568863,0.0
20,1436986568882,0.0
21,1436986568903,0.0
22,1436986568922,0.0
23,1436986568945,0.0
24,1436986568964,0.0
25,1436986568984,0.0
26,1436986569004,0.0
27,1436986569024,0.0
28,1436986569045,0.0
29,1436986569062,0.0
30,1436986569082,0.0
31,1436986569104,0.0
32,1436986569124,0.0
33,1436986569145,0.0
34,1436986569165,0.0
35,1436986569184,0.0
36,1436986569203,0.0
37,1436986569223,0.0
38,1436986569244,0.0
39,1436986569264,0.0
40,1436986569284,0.0
41,1436986569305,0.0
42,1436986569322,0.0
43,1436986569349,0.0
44,1436986569470,0.0
45,1436986569471,0.0
46,1436986569472,0.0
47,1436986569473,0.0
48,1436986569474,0.0
49,1436986569475,0.0
50,1436986569539,0.0
51,1436986569540,0.0
52,1436986569541,0.0
53,1436986569572,0.0
54,1436986569573,0.0
55,1436986569582,0.0
56,1436986569619,0.0
57,1436986569645,0.0
58,1436986569646,0.0
59,1436986569662,0.0
60,1436986569682,0.0
61,1436986569704,0.0
62,1436986569725,0.0
63,1436986569745,0.0
64,1436986569765,0.0
65,1436986569785,0.0
66,1436986569805,0.0
67,1436986569824,0.0
68,1436986569841,0.0
69,1436986569862,0.0
70,1436986569883,0.0
71,1436986569902,0.0
72,1436986569922,0.0
73,1436986569942,0.0
74,1436986569967,0.0
75,1436986569985,0.0
76,1436986570006,0.0
77,1436986570022,0.0
78,1436986570042,0.0
79,1436986570062,0.0
80,1436986570087,0.0
81,1436986570107,0.0
82,1436986570127,0.0
83,1436986570144,0.0
84,1436986570165,0.0
85,1436986570194,0.0
86,1436986570208,0.0
87,1436986570223,0.0
88,1436986570243,0.0
89,1436986570262,0.0
90,1436986570284,0.0
91,1436986570304,0.0
92,1436986570321,0.0
93,1436986570343,0.0
94,1436986570364,0.0
95,1436986570386,0.0
96,1436986570405,0.0
97,1436986570424,0.0
98,1436986570446,0.0
99,1436986570465,0.0
100,1436986570486,0.0
101,1436986570506,0.0
102,1436986570526,0.0
103,1436986570545,0.0
104,1436986570563,0.0
105,1436986570586,0.0
106,1436986570605,0.0
107,1436986570625,0.0
108,1436986570646,0.0
109,1436986570666,0.0
110,1436986570686,0.0
111,1436986570706,0.0
112,1436986570726,0.0
113,1436986570746,0.0
114,1436986570768,0.0
115,1436986570786,0.0
116,1436986570808,0.0
117,1436986570923,0.0
118,1436986570924,0.0
119,1436986570925,0.0
120,1436986570926,0.0
121,1436986570927,0.0
122,1436986570928,0.0
123,1436986570947,0.0
124,1436986570963,0.0
125,1436986570983,0.0
126,1436986571003,0.0
127,1436986571024,0.0
128,1436986571043,0.0
129,1436986571065,0.0
130,1436986571083,0.0
131,1436986571105,0.0
132,1436986571126,0.0
133,1436986571146,0.0
134,1436986571166,0.0
135,1436986571186,0.0
136,1436986571206,0.0
137,1436986571226,0.0
138,1436986571246,0.0
139,1436986571266,0.0
140,1436986571286,0.0
141,1436986571306,0.0
142,1436986571323,0.0
143,1436986571346,0.0
144,1436986571367,0.0
145,1436986571387,0.0
146,1436986571406,0.0
147,1436986571426,0.0
148,1436986571446,0.0
149,1436986571466,0.0
150,1436986571487,0.0
151,1436986571507,0.0
152,1436986571525,0.0
153,1436986571545,0.0
154,1436986571565,0.0
155,1436986571583,0.0
156,1436986571605,0.0
157,1436986571675,0.0
158,1436986571676,0.0
159,1436986571677,0.0
160,1436986571683,0.0
161,1436986571706,0.0
162,1436986571724,0.0
163,1436986571744,0.0
164,1436986571772,0.0
165,1436986571784,0.0
166,1436986571808,0.0
167,1436986571826,0.0
168,1436986571847,0.0
169,1436986571864,0.0
170,1436986571885,0.0
171,1436986571905,0.0
172,1436986571925,0.0
173,1436986571946,0.0
174,1436986571967,0.0
175,1436986571987,0.0
176,1436986572007,0.0
177,1436986572026,0.0
178,1436986572045,0.0
179,1436986572066,0.0
180,1436986572086,0.0
181,1436986572106,0.0
182,1436986572126,0.0
183,1436986572146,0.0
184,1436986572167,0.0
185,1436986572187,0.0
186,1436986572207,0.0
187,1436986572225,0.0
188,1436986572246,0.0
189,1436986572266,0.0
190,1436986572284,0.0
191,1436986572306,0.0
192,1436986572326,0.0
193,1436986572390,0.0
194,1436986572391,0.0
195,1436986572392,0.0
196,1436986572404,0.0
197,1436986572427,0.0
198,1436986572444,0.0
199,1436986572465,0.0
200,1436986572484,0.0
201,1436986572504,0.0
202,1436986572526,0.0
203,1436986572545,0.0
204,1436986572567,0.0
205,1436986572586,0.0
206,1436986572608,0.0
207,1436986572626,0.0
208,1436986572646,0.0
209,1436986572668,0.0
210,1436986572688,0.0
211,1436986572708,0.0
212,1436986572726,0.0
213,1436986572746,0.0
214,1436986572766,0.0
215,1436986572785,0.0
216,1436986572806,0.0
217,1436986572826,0.0
218,1436986572847,0.0
219,1436986572867,0.0
220,1436986572888,0.0
221,1436986572905,0.0
222,1436986572927,0.0
223,1436986572946,0.0
224,1436986572966,0.0
225,1436986572987,0.0
226,1436986573006,0.0
227,1436986573026,0.0
228,1436986573051,0.0
229,1436986573122,0.0
230,1436986573123,0.0
231,1436986573125,0.0
232,1436986573126,0.0
233,1436986573147,0.0
234,1436986573167,0.0
235,1436986573185,0.0
236,1436986573212,0.0
237,1436986573225,0.0
238,1436986573248,0.0
239,1436986573268,0.0
240,1436986573286,0.0
241,1436986573308,0.0
242,1436986573327,0.0
243,1436986573348,0.0
244,1436986573368,0.0
245,1436986573388,0.0
246,1436986573408,0.0
247,1436986573429,0.0
248,1436986573448,0.0
249,1436986573466,0.0
250,1436986573488,0.0
251,1436986573506,0.0
252,1436986573526,0.0
253,1436986573549,0.0
254,1436986573569,0.0
255,1436986573588,0.0
256,1436986573607,0.0
257,1436986573628,0.0
258,1436986573648,0.0
259,1436986573668,0.0
260,1436986573689,0.0
261,1436986573709,0.0
262,1436986573728,0.0
263,1436986573747,0.0
264,1436986573767,0.0
265,1436986573786,0.0
266,1436986573906,0.0
267,1436986573907,0.0
268,1436986573908,0.0
269,1436986573909,0.0
270,1436986573910,0.0
271,1436986573914,0.0
272,1436986573935,0.0
273,1436986573946,0.0
274,1436986573976,0.0
275,1436986573986,0.0
276,1436986574007,0.0
277,1436986574026,0.0
278,1436986574047,0.0
279,1436986574068,0.0
280,1436986574089,0.0
281,1436986574109,0.0
282,1436986574129,0.0
283,1436986574149,0.0
284,1436986574167,0.0
285,1436986574189,0.0
286,1436986574209,0.0
287,1436986574228,0.0
288,1436986574249,0.0
289,1436986574270,0.0
290,1436986574288,0.0
291,1436986574309,0.0
292,1436986574329,0.0
293,1436986574348,0.0
294,1436986574369,0.0
295,1436986574386,0.0
296,1436986574406,0.0
297,1436986574426,0.0
298,1436986574452,0.0
299,1436986574473,0.0
300,1436986574495,0.0
301,1436986574506,0.0
302,1436986574529,0.0
303,1436986574562,0.0
304,1436986574569,0.0
305,1436986574636,0.0
306,1436986574637,0.0
307,1436986574638,0.0
308,1436986574656,0.0
309,1436986574666,0.0
310,1436986574692,0.0
311,1436986574706,0.0
312,1436986574726,0.0
313,1436986574748,0.0
314,1436986574769,0.0
315,1436986574788,0.0
316,1436986574808,0.0
317,1436986574830,0.0
318,1436986574849,0.0
319,1436986574871,0.0
320,1436986574890,0.0
321,1436986574909,1.0
322,1436986574930,1.0
323,1436986574950,1.0
324,1436986574969,1.0
325,1436986574991,1.0
326,1436986575009,1.0
327,1436986575028,1.0
328,1436986575051,1.0
329,1436986575070,1.0
330,1436986575090,1.0
331,1436986575111,1.0
332,1436986575130,1.0
333,1436986575150,1.0
334,1436986575168,1.0
335,1436986575200,1.0
336,1436986575207,1.0
337,1436986575227,1.0
338,1436986575247,1.0
339,1436986575267,1.0
340,1436986575287,0.0
341,1436986575307,0.0
342,1436986575328,0.0
343,1436986575352,1.0
344,1436986575367,1.0
345,1436986575388,1.0
346,1436986575407,1.0
347,1436986575427,1.0
348,1436986575488,1.0
349,1436986575489,0.0
350,1436986575490,0.0
351,1436986575513,0.0
352,1436986575529,0.0
353,1436986575553,0.0
354,1436986575570,0.0
355,1436986575591,0.0
356,1436986575611,0.0
357,1436986575630,0.0
358,1436986575651,0.0
359,1436986575670,0.0
360,1436986575691,0.0
361,1436986575711,0.0
362,1436986575731,0.0
363,1436986575748,0.0
364,1436986575770,0.0
365,1436986575790,0.0
366,1436986575814,1.0
367,1436986575831,1.0
368,1436986575850,1.0
369,1436986575871,1.0
370,1436986575890,2.0
371,1436986575912,2.0
372,1436986575937,3.0
373,1436986575948,3.0
374,1436986575969,5.0
375,1436986576009,5.0
376,1436986576010,6.0
377,1436986576055,6.0
378,1436986576056,6.0
379,1436986576084,7.0
380,1436986576118,7.0
381,1436986576119,7.0
382,1436986576129,7.0
383,1436986576148,5.0
384,1436986576168,5.0
385,1436986576200,3.0
386,1436986576219,3.0
387,1436986576228,3.0
388,1436986576248,3.0
389,1436986576268,5.0
390,1436986576288,5.0
391,1436986576308,6.0
392,1436986576346,6.0
393,1436986576347,6.0
394,1436986576367,6.0
395,1436986576387,7.0
396,1436986576407,7.0
397,1436986576427,7.0
398,1436986576447,8.0
399,1436986576469,8.0
400,1436986576487,8.0
401,1436986576508,8.0
402,1436986576528,7.0
403,1436986576548,7.0
404,1436986576567,3.0
405,1436986576587,3.0
406,1436986576607,4.0
407,1436986576627,4.0
408,1436986576648,8.0
409,1436986576668,8.0
410,1436986576688,8.0
411,1436986576707,8.0
412,1436986576728,5.0
413,1436986576747,5.0
414,1436986576768,3.0
415,1436986576788,3.0
416,1436986576810,4.0
417,1436986576829,5.0
418,1436986576849,5.0
419,1436986576871,6.0
420,1436986576891,6.0
421,1436986576912,7.0
422,1436986576932,7.0
423,1436986576952,8.0
424,1436986576972,8.0
425,1436986576992,8.0
426,1436986577012,8.0
427,1436986577031,7.0
428,1436986577052,7.0
429,1436986577069,6.0
430,1436986577092,6.0
431,1436986577112,5.0
432,1436986577131,5.0
433,1436986577148,5.0
434,1436986577172,5.0
435,1436986577192,3.0
436,1436986577212,1.0
437,1436986577232,1.0
438,1436986577251,1.0
439,1436986577272,1.0
440,1436986577292,2.0
441,1436986577311,2.0
442,1436986577334,2.0
443,1436986577398,2.0
444,1436986577399,2.0
445,1436986577400,2.0
446,1436986577409,2.0
447,1436986577435,2.0
448,1436986577452,2.0
449,1436986577482,2.0
450,1436986577490,2.0
451,1436986577510,2.0
452,1436986577533,2.0
453,1436986577551,2.0
454,1436986577573,2.0
455,1436986577589,1.0
456,1436986577613,1.0
457,1436986577633,1.0
458,1436986577652,1.0
459,1436986577673,0.0
460,1436986577693,0.0
461,1436986577713,0.0
462,1436986577733,0.0
463,1436986577753,1.0
464,1436986577771,1.0
465,1436986577793,1.0
466,1436986577811,1.0
467,1436986577832,1.0
468,1436986577850,1.0
469,1436986577875,1.0
470,1436986577894,1.0
471,1436986577914,1.0
472,1436986577933,1.0
473,1436986577953,0.0
474,1436986577973,0.0
475,1436986577993,0.0
476,1436986578012,0.0
477,1436986578030,0.0
478,1436986578110,0.0
479,1436986578111,0.0
480,1436986578112,0.0
481,1436986578113,0.0
482,1436986578131,0.0
483,1436986578151,0.0
484,1436986578171,0.0
485,1436986578191,0.0
486,1436986578212,0.0
487,1436986578231,0.0
488,1436986578251,0.0
489,1436986578272,0.0
490,1436986578294,0.0
491,1436986578311,0.0
492,1436986578333,0.0
493,1436986578353,0.0
494,1436986578373,0.0
495,1436986578393,0.0
496,1436986578413,0.0
497,1436986578433,0.0
498,1436986578453,0.0
499,1436986578473,0.0
500,1436986578492,0.0
501,1436986578512,0.0
502,1436986578533,0.0
503,1436986578552,0.0
504,1436986578573,0.0
505,1436986578594,0.0
506,1436986578614,0.0
507,1436986578635,0.0
508,1436986578655,0.0
509,1436986578674,0.0
510,1436986578691,0.0
511,1436986578712,0.0
512,1436986578732,0.0
513,1436986578751,0.0
514,1436986578771,0.0
515,1436986578873,0.0
516,1436986578874,0.0
517,1436986578875,0.0
518,1436986578876,0.0
519,1436986578877,0.0
520,1436986578895,0.0
521,1436986578918,0.0
522,1436986578932,0.0
523,1436986578963,0.0
524,1436986578971,0.0
525,1436986578992,0.0
526,1436986579012,0.0
527,1436986579032,0.0
528,1436986579054,0.0
529,1436986579074,0.0
530,1436986579095,0.0
531,1436986579114,0.0
532,1436986579135,0.0
533,1436986579154,0.0
534,1436986579174,0.0
535,1436986579194,0.0
536,1436986579214,0.0
537,1436986579235,0.0
538,1436986579252,0.0
539,1436986579274,0.0
540,1436986579294,0.0
541,1436986579315,0.0
542,1436986579333,0.0
543,1436986579354,0.0
544,1436986579374,0.0
545,1436986579395,0.0
546,1436986579415,0.0
547,1436986579435,0.0
548,1436986579454,0.0
549,1436986579473,0.0
550,1436986579493,0.0
551,1436986579512,0.0
552,1436986579535,0.0
553,1436986579600,0.0
554,1436986579609,0.0
555,1436986579628,0.0
556,1436986579629,0.0
557,1436986579632,0.0
558,1436986579676,0.0
559,1436986579677,0.0
560,1436986579752,0.0
561,1436986579753,0.0
562,1436986579754,0.0
563,1436986579755,0.0
564,1436986579776,0.0
565,1436986579794,0.0
566,1436986579817,0.0
567,1436986579833,0.0
568,1436986579853,0.0
569,1436986579873,0.0
570,1436986579897,0.0
571,1436986579913,0.0
572,1436986579938,0.0
573,1436986579952,0.0
574,1436986579976,0.0
575,1436986579992,0.0
576,1436986580012,0.0
577,1436986580032,0.0
578,1436986580052,0.0
579,1436986580094,0.0
580,1436986580095,0.0
581,1436986580112,0.0
582,1436986580132,0.0
583,1436986580153,0.0
584,1436986580176,0.0
585,1436986580196,0.0
586,1436986580216,0.0
587,1436986580234,0.0
588,1436986580255,0.0
589,1436986580276,0.0
590,1436986580293,0.0
591,1436986580318,0.0
592,1436986580397,0.0
593,1436986580398,0.0
594,1436986580399,0.0
595,1436986580400,0.0
596,1436986580413,0.0
597,1436986580433,0.0
598,1436986580452,1.0
599,1436986580473,1.0
600,1436986580498,0.0
601,1436986580512,0.0
602,1436986580532,0.0
603,1436986580552,0.0
604,1436986580573,0.0
605,1436986580592,0.0
606,1436986580616,0.0
607,1436986580636,0.0
608,1436986580655,0.0
609,1436986580676,0.0
610,1436986580696,0.0
611,1436986580716,0.0
612,1436986580736,0.0
613,1436986580755,0.0
614,1436986580776,0.0
615,1436986580793,0.0
616,1436986580816,0.0
617,1436986580834,0.0
618,1436986580854,0.0
619,1436986580875,2.0
620,1436986580897,2.0
621,1436986580917,0.0
622,1436986580938,0.0
623,1436986580953,0.0
624,1436986580973,0.0
625,1436986580992,0.0
626,1436986581013,0.0
627,1436986581035,0.0
628,1436986581053,0.0
629,1436986581111,0.0
630,1436986581123,0.0
631,1436986581124,0.0
632,1436986581134,0.0
633,1436986581153,0.0
634,1436986581174,0.0
635,1436986581193,0.0
636,1436986581218,0.0
637,1436986581234,0.0
638,1436986581254,0.0
639,1436986581273,0.0
640,1436986581294,0.0
641,1436986581316,0.0
642,1436986581335,0.0
643,1436986581356,0.0
644,1436986581376,0.0
645,1436986581396,0.0
646,1436986581416,0.0
647,1436986581436,0.0
648,1436986581456,0.0
649,1436986581476,0.0
650,1436986581496,0.0
651,1436986581514,0.0
652,1436986581537,1.0
653,1436986581557,1.0
654,1436986581577,1.0
655,1436986581596,0.0
656,1436986581615,0.0
657,1436986581636,0.0
658,1436986581656,0.0
659,1436986581677,0.0
660,1436986581697,0.0
661,1436986581717,0.0
662,1436986581734,0.0
663,1436986581755,0.0
664,1436986581774,0.0
665,1436986581796,0.0
666,1436986581849,0.0
667,1436986581850,0.0
668,1436986581864,0.0
669,1436986581874,0.0
670,1436986581899,0.0
671,1436986581915,0.0
672,1436986581936,0.0
673,1436986581955,0.0
674,1436986581975,0.0
675,1436986581996,0.0
676,1436986582015,0.0
677,1436986582035,0.0
678,1436986582055,0.0
679,1436986582075,0.0
680,1436986582096,0.0
681,1436986582115,0.0
682,1436986582136,0.0
683,1436986582155,0.0
684,1436986582177,0.0
685,1436986582197,0.0
686,1436986582217,0.0
687,1436986582235,0.0
688,1436986582255,0.0
689,1436986582277,0.0
690,1436986582296,0.0
691,1436986582316,0.0
692,1436986582334,0.0
693,1436986582357,0.0
694,1436986582377,0.0
695,1436986582398,0.0
696,1436986582417,0.0
697,1436986582436,0.0
698,1436986582454,0.0
699,1436986582475,0.0
700,1436986582495,0.0
701,1436986582515,0.0
702,1436986582594,0.0
703,1436986582595,0.0
704,1436986582596,0.0
705,1436986582597,0.0
706,1436986582614,0.0
707,1436986582640,0.0
708,1436986582655,0.0
709,1436986582675,0.0
710,1436986582695,0.0
711,1436986582716,0.0
712,1436986582736,0.0
713,1436986582754,0.0
714,1436986582775,0.0
715,1436986582798,0.0
716,1436986582818,0.0
717,1436986582838,0.0
718,1436986582858,0.0
719,1436986582876,0.0
720,1436986582898,0.0
721,1436986582918,0.0
722,1436986582938,0.0
723,1436986582958,0.0
724,1436986582976,0.0
725,1436986582996,0.0
726,1436986583018,0.0
727,1436986583035,0.0
728,1436986583055,0.0
729,1436986583075,0.0
730,1436986583096,0.0
731,1436986583120,0.0
732,1436986583142,0.0
733,1436986583156,0.0
734,1436986583175,0.0
735,1436986583195,0.0
736,1436986583215,0.0
737,1436986583236,0.0
738,1436986583259,0.0
739,1436986583318,0.0
740,1436986583319,0.0
741,1436986583320,0.0
742,1436986583338,0.0
743,1436986583356,0.0
744,1436986583375,0.0
745,1436986583396,0.0
746,1436986583420,0.0
747,1436986583435,0.0
748,1436986583456,0.0
749,1436986583477,0.0
750,1436986583496,0.0
751,1436986583516,0.0
752,1436986583538,0.0
753,1436986583555,0.0
754,1436986583576,0.0
755,1436986583599,0.0
756,1436986583618,0.0
757,1436986583639,0.0
758,1436986583659,0.0
759,1436986583679,0.0
760,1436986583699,0.0
761,1436986583715,0.0
762,1436986583738,0.0
763,1436986583759,0.0
764,1436986583777,0.0
765,1436986583799,0.0
766,1436986583816,0.0
767,1436986583837,0.0
768,1436986583858,0.0
769,1436986583879,0.0
770,1436986583899,0.0
771,1436986583917,0.0
772,1436986583937,0.0
773,1436986583957,0.0
774,1436986583977,0.0
775,1436986584044,0.0
776,1436986584045,0.0
777,1436986584046,0.0
778,1436986584060,0.0
779,1436986584076,0.0
780,1436986584097,0.0
781,1436986584116,0.0
782,1436986584136,0.0
783,1436986584158,0.0
784,1436986584199,0.0
785,1436986584200,0.0
786,1436986584245,0.0
787,1436986584247,0.0
788,1436986584259,0.0
789,1436986584290,0.0
790,1436986584296,0.0
791,1436986584316,0.0
792,1436986584336,0.0
793,1436986584356,0.0
794,1436986584376,0.0
795,1436986584396,0.0
796,1436986584417,0.0
797,1436986584437,0.0
798,1436986584456,0.0
799,1436986584476,0.0
800,1436986584496,0.0
801,1436986584516,0.0
802,1436986584541,0.0
803,1436986584555,0.0
804,1436986584575,0.0
805,1436986584595,0.0
806,1436986584623,0.0
807,1436986584635,0.0
808,1436986584655,0.0
809,1436986584675,0.0
810,1436986584695,0.0
811,1436986584715,0.0
812,1436986584735,0.0
813,1436986584755,0.0
814,1436986584775,0.0
815,1436986584795,0.0
816,1436986584815,0.0
817,1436986584836,0.0
818,1436986584855,0.0
819,1436986584875,0.0
820,1436986584895,0.0
821,1436986584915,0.0
822,1436986584938,0.0
823,1436986584959,0.0
824,1436986584978,0.0
825,1436986584997,0.0
826,1436986585019,0.0
827,1436986585038,0.0
828,1436986585056,0.0
829,1436986585076,0.0
830,1436986585096,0.0
831,1436986585123,0.0
832,1436986585139,0.0
833,1436986585156,0.0
834,1436986585181,0.0
835,1436986585196,0.0
836,1436986585217,0.0
837,1436986585236,0.0
838,1436986585258,0.0
839,1436986585277,0.0
840,1436986585314,0.0
841,1436986585319,0.0
842,1436986585336,0.0
843,1436986585358,0.0
844,1436986585376,0.0
845,1436986585396,0.0
846,1436986585418,0.0
847,1436986585439,0.0
848,1436986585481,0.0
849,1436986585482,0.0
850,1436986585499,0.0
851,1436986585518,0.0
852,1436986585540,0.0
853,1436986585562,0.0
854,1436986585580,0.0
855,1436986585600,0.0
856,1436986585621,0.0
857,1436986585640,0.0
858,1436986585661,0.0
859,1436986585678,0.0
860,1436986585698,0.0
861,1436986585721,0.0
862,1436986585738,0.0
863,1436986585759,0.0
864,1436986585777,0.0
865,1436986585801,0.0
866,1436986585821,0.0
867,1436986585840,0.0
868,1436986585863,0.0
869,1436986585879,0.0
870,1436986585899,0.0
871,1436986585919,0.0
872,1436986585940,0.0
873,1436986585958,0.0
874,1436986586021,0.0
875,1436986586022,0.0
876,1436986586023,0.0
877,1436986586038,0.0
878,1436986586057,0.0
879,1436986586078,0.0
880,1436986586098,0.0
881,1436986586118,1.0
882,1436986586138,1.0
883,1436986586158,0.0
884,1436986586178,0.0
885,1436986586198,0.0
886,1436986586218,0.0
887,1436986586239,0.0
888,1436986586261,0.0
889,1436986586281,0.0
890,1436986586298,0.0
891,1436986586318,0.0
892,1436986586341,0.0
893,1436986586362,0.0
894,1436986586387,0.0
895,1436986586424,0.0
896,1436986586425,0.0
897,1436986586438,0.0
898,1436986586458,0.0
899,1436986586478,0.0
900,1436986586498,0.0
901,1436986586518,0.0
902,1436986586538,0.0
903,1436986586558,0.0
904,1436986586577,0.0
905,1436986586597,0.0
906,1436986586617,0.0
907,1436986586637,0.0
908,1436986586658,0.0
909,1436986586678,0.0
910,1436986586698,0.0
911,1436986586718,0.0
912,1436986586738,0.0
