id,attr_time,attr_db
1,1436167051207,11.1896174738794
2,1436167051871,12.5937695313766
3,1436167052533,11.6287406216501
4,1436167053196,30.2432996296568
5,1436167053868,16.6186193029095
6,1436167054516,32.5567004979462
7,1436167055123,19.1192156446114
8,1436167055799,41.3268122002965
9,1436167056473,39.9681050798199
10,1436167057095,36.5059296794356
11,1436167057758,29.6110608882526
12,1436167058386,43.5417383141452
13,1436167059063,36.018287551492
14,1436167059726,41.4772018149833
15,1436167060389,58.5603756517575
16,1436167061044,56.6216753930885
17,1436167061704,37.4824077329588
18,1436167062367,33.1338342190277
19,1436167063012,41.1971840462051
20,1436167063694,57.6394551164058
21,1436167064346,66.9785227436902
22,1436167065009,35.5919264832575
23,1436167065674,26.4426412995478
24,1436167066302,43.6781092822165
25,1436167066907,40.4283903498094
26,1436167067545,62.3064285839003
27,1436167068222,39.4840328791252
28,1436167068792,27.0431744440719
29,1436167069442,44.2082764449901
30,1436167070060,37.6017487859471
31,1436167070670,22.7269731968713
32,1436167071298,35.8164079727221
33,1436167071916,29.495762803309
34,1436167072579,45.1441976327208
35,1436167073257,47.9731471760425
36,1436167073892,61.1640992129106
37,1436167074539,30.0213104282574
38,1436167075144,31.2791353057916
39,1436167075788,42.4707600735567
40,1436167076429,58.1733268915683
41,1436167077020,26.8606231648943
42,1436167077634,33.221532070313
43,1436167078300,58.1966604531815
44,1436167078961,40.2179433953544
45,1436167079570,49.6812623507188
46,1436167080162,34.1098509671841
47,1436167080773,55.0332604431688
48,1436167081438,29.3692289903586
49,1436167082116,37.7038190467603
50,1436167082757,21.5059910724488
51,1436167083437,43.7960214073423
52,1436167084107,35.1038033781777
53,1436167084729,35.7319682171069
54,1436167085345,39.7138103329412
55,1436167085990,51.971167074216
56,1436167086625,40.8685778851327
57,1436167087284,34.8017201599584
58,1436167087948,35.998861951934
59,1436167088616,42.96569964799
60,1436167089249,59.9701787307506
61,1436167089899,57.808007094011
62,1436167090500,34.1803736633472
63,1436167091134,32.6727345302905
64,1436167091755,41.6564816363251
65,1436167092437,64.8342666134186
66,1436167093044,60.8308303187298
67,1436167093657,38.4223514731174
68,1436167094319,36.5257956651463
69,1436167094924,43.1444968042628
70,1436167095528,60.9641467757738
71,1436167096119,36.6651632407544
72,1436167096757,33.6524258459079
73,1436167097413,65.1757339534451
74,1436167098072,45.9246090495638
75,1436167098714,54.4023264120631
76,1436167099370,38.7261998593553
77,1436167099993,33.6097984763266
78,1436167100607,65.1577129755001
79,1436167101279,44.714085567321
80,1436167101948,56.1355230160424
81,1436167102608,33.7514656021279
82,1436167103268,32.0048631357275
83,1436167103929,33.4797870021827
84,1436167104598,43.9090695451671
85,1436167105256,35.5866682495719
86,1436167105871,45.280983819621
87,1436167106499,35.256070232824
88,1436167107099,66.2759031405829
89,1436167107763,40.4839181414892
90,1436167108372,34.5143824388299
91,1436167109036,37.4047582469926
92,1436167109716,34.1862353031863
93,1436167110326,59.2791136313322
94,1436167110956,32.1968971760872
95,1436167111589,37.9353128673189
96,1436167112267,39.471282231379
97,1436167112893,32.7470392997957
98,1436167113572,40.5090418586447
99,1436167114230,33.0041824357732
100,1436167114856,37.7404314921838
101,1436167115494,44.1684265039442
102,1436167116110,32.2150637718057
103,1436167116712,40.3540989902933
104,1436167117372,52.7744011851576
105,1436167118032,30.285306589564
106,1436167118661,37.3395927209149
107,1436167119331,33.0697630053215
108,1436167119960,42.9981188785111
109,1436167120586,55.3582725067717
110,1436167121217,32.8733703707229
111,1436167121870,33.4495797468245
112,1436167122517,35.636577151003
113,1436167123188,44.104085680899
114,1436167123848,39.2927786075326
115,1436167124505,55.2407807246024
116,1436167125182,66.1654739208862
117,1436167125848,56.2341573226153
118,1436167126484,57.1683660549712
119,1436167127101,44.9496230825092
120,1436167127786,44.7349024151113
121,1436167128427,61.3197013902712
122,1436167129074,43.1285411297664
123,1436167129730,47.1468212513384
124,1436167130398,46.6847959247895
125,1436167131058,43.3388461522801
126,1436167131736,59.3822308197897
127,1436167132391,63.4841233156217
128,1436167133002,38.6424593908081
129,1436167133686,41.5685546302203
130,1436167134340,48.1825824095702
131,1436167135000,43.2577824508655
132,1436167135696,66.6366646120517
133,1436167136370,48.5865417532581
134,1436167137028,61.0743372415841
135,1436167137671,39.7781274602272
136,1436167138290,39.9186999968516
137,1436167138966,61.448428431397
138,1436167139631,46.3612643389968
139,1436167140279,41.8838401299682
140,1436167140937,38.0355328872658
141,1436167141590,58.2715708385379
142,1436167142255,58.9153619834441
143,1436167142836,44.4637179045132
144,1436167143456,42.2499622125846
145,1436167144120,38.701623123554
146,1436167144813,39.4662833690214
147,1436167145467,35.6246644292896
148,1436167146137,39.11791426885
149,1436167146805,39.8413035044871
150,1436167147463,36.4972345883172
151,1436167148088,37.8900574776223
152,1436167148756,41.6558868017962
153,1436167149382,56.6709701423094
154,1436167150030,61.2001275760683
155,1436167150694,46.3677477508111
156,1436167151346,51.9516975408584
157,1436167151997,56.7872114722364
158,1436167152613,58.7299592414631
159,1436167153246,63.2951590650754
160,1436167154722,52.0345234777389
161,1436167155366,65.9548917931982
162,1436167156008,60.589370562292
163,1436167156676,52.1231900401862
164,1436167157348,36.1761640190238
165,1436167157990,53.5854124073695
166,1436167158653,39.755100210152
167,1436167159267,65.1763381177583
168,1436167159911,53.8711060302128
169,1436167160563,39.232158216569
170,1436167161240,38.9627380635691
171,1436167161888,41.998482343262
172,1436167162548,58.9033153017509
173,1436167163241,44.3851229799109
174,1436167163843,41.2845936671864
175,1436167165064,36.6206009486638
176,1436167165727,35.085006294131
177,1436167166402,44.2159301362938
178,1436167167090,41.9892250334788
179,1436167167764,67.9105565920005
180,1436167168413,48.8540228716137
181,1436167169084,66.8664220977771
182,1436167169765,54.8545163014976
183,1436167170386,50.4976071859902
184,1436167171058,48.9951457477336
185,1436167171747,43.5205065225147
186,1436167172368,64.9421795318094
187,1436167173036,61.8050688040931
188,1436167173704,46.8147968038252
189,1436167174336,63.1525551521106
190,1436167174971,49.8420939327387
191,1436167175629,38.4725643245018
192,1436167176302,37.2191021216291
193,1436167176913,44.2740796943344
194,1436167177528,67.1178897169192
195,1436167178199,62.9740455820231
196,1436167178769,36.5097216311681
197,1436167179964,47.8666979265826
198,1436167180612,44.9821219987761
199,1436167181237,47.5723170430773
200,1436167181897,37.9836638147343
201,1436167182556,66.7532404800351
202,1436167183223,50.5165654949577
203,1436167183888,55.7390916481409
204,1436167184550,42.2616166074416
205,1436167185225,39.7629614190867
206,1436167185906,38.7916781219944
207,1436167186565,47.0614419178281
208,1436167187160,46.623749897729
209,1436167188383,39.2062727047828
210,1436167188971,41.187436222812
211,1436167189671,45.0032273103327
212,1436167190345,56.2896859536237
213,1436167190952,71.3532603171379
214,1436167191591,42.0778858693086
215,1436167192212,33.2135269338844
216,1436167192870,40.7977734047183
217,1436167193488,40.995105137115
218,1436167194159,67.6637708262046
219,1436167194831,41.1603390987885
220,1436167195460,37.2010856831561
221,1436167196116,49.8925392944367
222,1436167196775,43.0743262351449
223,1436167197458,62.0566675801355
224,1436167198091,49.0240229677112
225,1436167198761,61.9981672716528
226,1436167199427,66.1373635724633
227,1436167200077,38.5134826697087
228,1436167200712,37.8162778108766
229,1436167201377,39.1630124183841
230,1436167202042,56.5378127777322
231,1436167202706,67.1647738271452
232,1436167203369,43.0893976523808
233,1436167204051,59.9881954433714
234,1436167204665,45.6873392089725
235,1436167205326,35.6312255613747
236,1436167206008,44.9996878341663
237,1436167206685,48.2826191328126
238,1436167207331,51.9265398561416
239,1436167208014,65.0153919751482
240,1436167208661,47.3313195781419
241,1436167209270,65.7484579865979
242,1436167209930,43.0581507661738
243,1436167210585,38.97248397246
244,1436167211245,60.0814414888987
245,1436167211897,42.4449496306573
246,1436167212546,65.9829512266952
247,1436167213192,63.6861411466598
248,1436167213835,34.5355312016043
249,1436167214459,34.5825060757221
250,1436167215155,42.012453845678
251,1436167215827,47.4862718955434
252,1436167216490,68.5837647604765
253,1436167217180,43.9347737156665
254,1436167217848,59.9215870686441
255,1436167218549,33.9778635214033
256,1436167219201,35.1761788728836
257,1436167219872,38.5758049217602
258,1436167220530,36.6271345683951
259,1436167221182,40.3140853152266
260,1436167221811,43.9931484146223
261,1436167222447,63.3445991809718
262,1436167223080,37.5433132029443
263,1436167223740,39.2480094309162
264,1436167224405,36.4687045113833
265,1436167225090,41.2167320901225
266,1436167225756,59.3125259533714
267,1436167226410,67.0448721271349
268,1436167227059,41.8396379650847
269,1436167227729,36.0959710612712
270,1436167228371,48.8487830348928
271,1436167229003,42.3095950902579
272,1436167229608,69.846591130839
273,1436167230262,40.1784289328499
274,1436167230967,34.4995183882181
275,1436167231590,45.82746763729
276,1436167232273,37.1456090307423
277,1436167232929,46.0986310508819
278,1436167233552,44.3490258341029
279,1436167234226,62.553071249527
280,1436167234841,42.2698238087569
281,1436167235460,38.7692251846863
282,1436167236118,37.2372664361894
283,1436167236768,47.4007677126754
284,1436167237417,58.2333742577808
285,1436167238095,62.003437399875
286,1436167238775,41.863734107329
287,1436167239432,36.9032112984533
288,1436167240060,42.0696682814897
289,1436167240736,33.0935212904873
290,1436167241398,61.4228296888181
291,1436167242032,42.3063596529992
292,1436167242718,60.2618646174405
293,1436167243401,47.9413840910561
294,1436167244013,36.601113730045
295,1436167244635,54.7432152332717
296,1436167245327,45.5503059787272
297,1436167245992,39.9334762332508
298,1436167246638,61.7414099424786
299,1436167247306,42.4446186211773
300,1436167247968,34.5037744694684
301,1436167248620,49.5289901462384
302,1436167249246,35.4231669450338
303,1436167249879,70.0900449112529
304,1436167250555,40.5303411048651
305,1436167251204,44.5571627205305
306,1436167251828,44.0168851962579
307,1436167252477,38.4715319156744
308,1436167253158,37.588632719662
309,1436167253764,51.2676672637356
310,1436167254412,63.4276716930911
311,1436167255077,38.8853056935436
312,1436167255752,43.4190283819648
313,1436167256356,39.9296323441379
314,1436167257006,44.797234778463
315,1436167257655,66.5083923705987
316,1436167258325,66.1716964481177
317,1436167258914,41.6857972986494
318,1436167259507,61.4590044205593
319,1436167260129,49.6306549266873
320,1436167260738,29.0679093280021
321,1436167261379,49.8149240636732
322,1436167262041,40.3188304070156
323,1436167262691,59.4488410065709
324,1436167263355,45.0881803696993
325,1436167264025,62.4370394281286
326,1436167264701,66.5055355255984
327,1436167265379,39.1338439027463
328,1436167266068,54.4789268088203
329,1436167266714,39.1169858731601
330,1436167267372,37.7435320179546
331,1436167268036,34.210645672463
332,1436167268688,43.0417305354079
333,1436167269336,43.3100124687815
334,1436167269983,57.1860459006424
335,1436167270605,44.2327057106282
336,1436167271276,32.0542492476209
337,1436167271911,40.4701370871565
338,1436167272550,48.0326571202735
339,1436167273195,37.4436831116745
340,1436167273856,38.7965477713441
341,1436167274515,31.1566159748817
342,1436167275117,44.1786485157724
343,1436167275753,59.9624226785065
344,1436167276442,65.7665762148338
345,1436167277083,37.7756272259038
346,1436167277746,31.4686260794401
347,1436167278420,42.0865836066031
348,1436167279077,33.5868041578181
349,1436167279738,37.4471524831204
350,1436167280404,41.2019724244075
351,1436167281017,47.9923989220209
352,1436167281697,35.7529800390662
353,1436167282349,34.6896345898493
354,1436167282979,33.8017371546195
355,1436167283622,42.3417547705708
356,1436167284280,60.9671180348893
357,1436167284922,71.4675065973828
358,1436167285572,33.1656609593554
359,1436167286228,38.2210857160368
360,1436167286891,36.4974105919906
361,1436167287520,33.0213444840918
362,1436167288155,30.0972526249131
363,1436167288822,38.4999230883964
364,1436167289499,32.1362644536369
365,1436167290110,31.7829963743489
366,1436167290746,32.0079676271652
367,1436167291334,51.7943337225625
368,1436167291986,50.40717738699
369,1436167292634,60.9372045309774
370,1436167293285,36.2119029386743
371,1436167293912,34.5943196345178
372,1436167294563,31.4814036261909
373,1436167295227,34.1896181240168
374,1436167295909,49.2634399355047
375,1436167296581,31.9635036052077
376,1436167297226,38.5575292699547
377,1436167297895,34.9873024497426
378,1436167298577,37.1095749708088
379,1436167299235,40.8589422260788
380,1436167299897,53.2998540762274
381,1436167300555,36.5271269242685
382,1436167301200,34.1424961198037
383,1436167301869,35.6222420564945
384,1436167302506,43.975407830906
385,1436167303195,48.4668922210056
386,1436167303840,68.8883204305285
387,1436167304480,37.6409050450574
388,1436167305092,36.998377236727
389,1436167305752,45.6869416982433
390,1436167306405,63.8603546428531
391,1436167307024,37.8745349133689
392,1436167307679,39.4007566306037
393,1436167308345,38.17965093867
394,1436167309020,42.4612163969628
395,1436167309678,56.2746907468998
396,1436167310348,66.055929248953
397,1436167310998,39.812369982093
398,1436167311623,35.6590708936873
399,1436167312285,43.8496215048141
400,1436167312936,37.986020059334
401,1436167313565,71.8340542231582
402,1436167314177,53.7304124660284
403,1436167314830,35.1330242162124
404,1436167315497,51.0975919593318
405,1436167316098,38.7620527814483
406,1436167316717,69.0622891911292
407,1436167317371,37.9622452263871
408,1436167318042,35.285749746218
409,1436167318694,52.6780952223984
410,1436167319335,32.8557956200835
411,1436167319998,52.7373429650949
412,1436167320653,39.5810050811674
413,1436167321318,68.8891102844992
414,1436167321951,65.6368457662858
415,1436167322606,37.794148333932
416,1436167323268,32.8578231793665
417,1436167323926,44.173450017412
418,1436167324536,43.2894028089726
419,1436167325212,69.978333975401
420,1436167325865,41.6826157979511
421,1436167326483,33.9626460761997
422,1436167327113,38.0562406687503
423,1436167327756,44.9339169561497
424,1436167328410,68.4347029511332
425,1436167329055,48.4993999968304
426,1436167329731,55.8473977671142
427,1436167330402,43.8270681213406
428,1436167331051,35.5183281050402
429,1436167331676,37.8224219411474
430,1436167332314,42.4656345924023
431,1436167332993,49.5292080702761
432,1436167333642,56.3897740951256
433,1436167334266,46.014864349038
434,1436167334936,42.342414264682
435,1436167335626,42.0863900762506
436,1436167336275,65.3612414885155
437,1436167336954,63.4313632173576
438,1436167337604,47.0241860206037
439,1436167338274,40.9226019993077
440,1436167338942,37.6851137705446
441,1436167339612,33.7061995460303
442,1436167340267,50.7439839156695
443,1436167340937,40.6734641919465
444,1436167341595,63.4884954566823
445,1436167342249,66.0380303420359
446,1436167342867,36.7687692825879
447,1436167343525,38.7305557473358
448,1436167344211,42.5375113993309
449,1436167344845,43.1110669556648
450,1436167345509,72.2545073720974
451,1436167346153,42.8997039971667
452,1436167346797,59.3270411512601
453,1436167347407,43.1324171299072
454,1436167348013,35.0723597920017
455,1436167348647,67.5647716887007
456,1436167349301,53.6081371623977
457,1436167349895,34.8403749980394
458,1436167350432,49.0882580173881
459,1436167350972,47.7161049217639
460,1436167351558,36.8145156402571
461,1436167352218,36.6330240641823
462,1436167352903,36.1553970931384
463,1436167353670,39.7984020028016
464,1436167354423,36.3118977619193
465,1436167355123,38.3815032450286
466,1436167355809,36.9802335931482
467,1436167356389,58.2508830828803
468,1436167357171,56.1438472226632
469,1436167357895,58.3441265514891
470,1436167359243,65.6246571493086
471,1436167359901,61.5553240578452
472,1436167360632,50.7742133968906
473,1436167361360,59.6026812997654
474,1436167362106,55.3835050951204
475,1436167362712,55.7806236028693
476,1436167363395,69.3818946931405
477,1436167364113,62.5142697307576
478,1436167364838,54.3985638584401
479,1436167365563,65.1551999502092
480,1436167366257,59.3310250713749
481,1436167366930,58.1360214539707
482,1436167367681,65.2666720761946
483,1436167368348,57.3555288030997
484,1436167369077,46.1156693913933
485,1436167369804,51.8970388031262
486,1436167370522,42.2559438368525
487,1436167371214,61.6090736117986
488,1436167371802,52.6780532803426
489,1436167373686,36.8982039596544
490,1436167374423,40.3321176126737
491,1436167375136,42.8852003720102
492,1436167375864,38.086669295978
493,1436167376587,35.3405547441525
494,1436167377320,36.165881427268
495,1436167378049,43.6839819062984
496,1436167378814,36.0117156700345
497,1436167379570,55.1075547296551
498,1436167380290,52.4731733400505
499,1436167381021,31.0324202774681
500,1436167381765,35.6254344064966
501,1436167382470,33.7421847211889
502,1436167383060,29.7876324395712
503,1436167383732,29.1557297881411
504,1436167384492,57.3996276389116
505,1436167385214,60.6240839261548
506,1436167385941,69.1866913935465
507,1436167386681,38.5066792668423
508,1436167387464,52.4232514201455
509,1436167388226,35.198514442559
510,1436167388876,38.0638372504816
511,1436167389576,35.9137694251254
512,1436167390361,53.2598002285586
513,1436167391110,33.8885871613587
514,1436167391849,53.7606445108414
515,1436167392570,45.3468813057939
516,1436167393278,34.8808948282218
517,1436167393986,50.0853765678837
518,1436167394728,58.6087330233974
519,1436167396844,54.2000872913753
520,1436167397542,55.6933614466631
521,1436167398250,50.3414642209539
522,1436167399004,50.4992690981578
523,1436167399735,64.3280749767649
524,1436167400463,32.5900869573444
525,1436167401176,47.5242267014177
526,1436167401904,35.3160866557662
527,1436167402614,35.1658273401628
528,1436167403265,34.9472190277378
529,1436167403936,41.6834069844801
530,1436167404671,41.3268209603391
531,1436167405420,37.160604150057
532,1436167406133,41.4739773687847
533,1436167406890,58.4655870651982
534,1436167407495,39.7807646467447
535,1436167408067,38.8746799825525
536,1436167409086,58.9444007332768
537,1436167409809,35.6133708158407
538,1436167410546,40.3361347282375
539,1436167411305,32.5019552493971
540,1436167412084,39.0404034163186
541,1436167412578,45.9819589532382
542,1436167413054,31.1874688745624
543,1436167413522,40.9681641946003
544,1436167413930,63.5350317934856
545,1436167414375,62.3880258883737
546,1436167414851,41.6773645328536
547,1436167415332,33.948509923928
548,1436167415820,51.5440080210503
549,1436167416294,31.3542803075812
550,1436167416779,56.4521979586695
551,1436167417274,50.2789768147926
552,1436167417733,33.7076814878003
553,1436167418185,31.8821234548803
554,1436167418659,61.4991163428099
555,1436167419132,39.1145235206113
556,1436167419616,29.4921354775924
557,1436167420114,49.2853116883615
558,1436167420629,37.0546242385664
559,1436167421132,49.718249723435
560,1436167421623,70.7226941142139
561,1436167422122,35.1101272236907
562,1436167422607,59.3500002912914
563,1436167423088,41.2798965625071
564,1436167423578,33.75535325518
565,1436167423961,53.0004657925775
566,1436167424390,44.580282706816
567,1436167424862,61.6066897188335
568,1436167425359,33.7260386488358
569,1436167425890,40.1553399201957
570,1436167426390,42.5163728200458
571,1436167426885,55.9283718339334
572,1436167427356,54.6787764098418
573,1436167427789,34.4093170638022
574,1436167428208,33.4567855625763
575,1436167428630,54.0548685327693
