id,attr_time,attr_db
1,1437152993160,43.7584027622936
2,1437152993640,36.4536819620654
3,1437152994122,24.8806128961282
4,1437152994621,51.1625837053604
5,1437152995086,23.8980492416273
6,1437152995433,19.4950704120949
7,1437152995878,21.8724122301696
8,1437152996368,19.1336834404438
9,1437152996849,43.4136958939501
10,1437152997350,37.3981558996531
11,1437152997829,39.6107484768601
12,1437152998305,42.5149130564561
13,1437152998778,30.0584764095124
14,1437152999283,32.6408119217304
15,1437152999747,51.1255333892407
16,1437153000197,33.6178303440335
17,1437153000678,42.4641506950761
18,1437153001164,45.5471147802988
19,1437153001590,37.8951319636963
20,1437153002057,44.2719357444509
21,1437153002547,36.4537593294765
22,1437153003130,42.0278139393321
23,1437153003612,34.0664149823822
24,1437153004097,39.7107364747605
25,1437153004583,33.2108258584873
26,1437153005062,39.5736217284867
27,1437153005500,17.6375857640284
28,1437153005928,39.8282041565904
29,1437153006407,47.4537758409646
30,1437153006889,65.6001620733196
31,1437153007348,60.3511645335255
32,1437153007851,70.9311085506966
33,1437153008334,66.143212039398
34,1437153008769,67.9048696247614
35,1437153009223,72.1771235895692
36,1437153009722,65.2158148205534
37,1437153010220,71.8453733403265
38,1437153010776,70.2982472635314
39,1437153011203,64.59814434154
40,1437153011658,66.1539471285442
41,1437153012146,71.1134995928581
42,1437153012649,64.3997658564971
43,1437153013215,59.8527907848377
44,1437153013708,71.067549878451
45,1437153014205,65.550481616128
46,1437153014703,62.0139552711393
47,1437153015212,71.325237873646
48,1437153015687,70.0424296526537
49,1437153016073,60.6195822973947
50,1437153016494,68.0888225252647
51,1437153016979,68.1278783775595
52,1437153017471,66.1775773032021
53,1437153017940,67.8605850482608
54,1437153018383,61.303078774786
55,1437153018821,73.1403038228355
56,1437153019304,71.1137922764857
57,1437153019833,67.5603293918003
58,1437153020334,66.4702889361215
59,1437153020827,72.5965624463004
60,1437153021286,69.5330098825949
61,1437153021702,68.7989804364447
62,1437153022193,64.6140346214125
63,1437153022699,65.2001035752943
64,1437153023269,57.6672061967121
65,1437153023770,67.8196937859944
66,1437153024250,67.3355642486812
67,1437153024712,64.5212640743669
68,1437153025162,65.6259244488584
69,1437153025646,70.222885949588
70,1437153026108,57.6544955739847
71,1437153026495,72.1423013081869
72,1437153026948,66.1142983566808
73,1437153027473,62.2952831698531
74,1437153028007,70.2630255114417
75,1437153028472,67.0714042465488
76,1437153028944,70.8585166105927
77,1437153029394,78.7203845930725
78,1437153029842,68.4105025236101
79,1437153030334,68.370119811801
80,1437153030836,69.3497543306325
81,1437153031343,67.6901259343031
82,1437153031847,65.1849974914448
83,1437153032290,68.6231943471452
84,1437153032718,66.7496358018574
85,1437153033236,65.8460901079085
86,1437153033720,68.6277405800425
87,1437153034220,64.291310844682
88,1437153034726,67.2979090245538
89,1437153035207,67.3439066030913
90,1437153035710,72.4038952871732
91,1437153036167,68.5700751126272
92,1437153036576,68.9503698863615
93,1437153037028,68.1822955154104
94,1437153037523,59.3075716997957
95,1437153038042,68.904474480002
96,1437153038529,71.4664145646268
97,1437153039009,60.5090651638272
98,1437153039462,66.8598110731491
99,1437153039917,69.0900032776469
100,1437153040402,69.3048016043423
101,1437153040887,66.6801763063831
102,1437153041348,70.8510508034376
103,1437153041776,68.3268605367048
104,1437153042275,67.5868778381392
105,1437153042753,70.8061191641925
106,1437153043303,73.1785140787678
107,1437153043788,60.2963673850095
108,1437153044296,67.9595241700102
109,1437153044791,68.1706484213314
110,1437153045275,65.3116496266953
111,1437153045778,65.7739568479644
112,1437153046207,69.4971609533721
113,1437153046594,44.2249164819667
114,1437153047012,71.531043394961
115,1437153047490,67.0015899121849
116,1437153047998,58.3005601792041
117,1437153048518,65.2681858261036
118,1437153049003,74.6839845219999
119,1437153049516,72.2245586587365
120,1437153050005,59.9674784846227
121,1437153050435,72.6551464278168
122,1437153050876,67.9074980706542
123,1437153051352,58.2499786509843
124,1437153051839,62.8531244863375
125,1437153052360,66.5691332530738
126,1437153052839,54.1145071954434
127,1437153053385,50.2319079459092
128,1437153053886,72.0010190112355
129,1437153054374,64.164220909729
130,1437153054859,66.2288669752608
131,1437153055364,65.9097727134306
132,1437153055848,65.372477581447
133,1437153056307,62.6856369297874
134,1437153056742,66.2132361390912
135,1437153057139,71.1927018797916
136,1437153057571,72.4101064100067
137,1437153058032,68.744165640161
138,1437153058584,66.2241395095056
139,1437153059134,70.8203536536902
140,1437153059651,71.5144979037017
141,1437153060112,74.2475093081838
142,1437153060550,70.533488156056
143,1437153061047,71.5612792981334
144,1437153061497,72.3420173105382
145,1437153061841,67.5209637143927
146,1437153062204,74.2061715427706
147,1437153062618,69.427064297255
148,1437153063082,72.9957159302732
149,1437153063634,71.6011782605561
150,1437153064134,71.3759699774148
151,1437153064631,67.1124531952541
152,1437153065120,73.3048989471547
153,1437153065609,65.494308387824
154,1437153066116,70.1573935623984
155,1437153066583,72.0922526544275
156,1437153067011,66.266825131977
157,1437153067415,68.2920228048169
158,1437153067859,73.0181228772547
159,1437153068388,70.5841180548196
160,1437153068880,68.0065051585263
161,1437153069373,62.9820294452038
162,1437153069843,72.6852987811037
163,1437153070295,68.1677510201291
164,1437153070741,69.7300092900872
165,1437153071202,68.6591438506959
166,1437153071695,69.95778267291
167,1437153072201,69.284313182329
168,1437153072704,73.4462444846455
169,1437153073199,70.0253087812802
170,1437153073782,63.7720131491641
171,1437153074278,68.6637244029042
172,1437153074778,71.6847154101019
173,1437153075285,69.3721354157533
174,1437153075780,63.3400693029196
175,1437153076288,69.6620172653782
176,1437153076776,67.297512758723
177,1437153077205,53.7900099108836
178,1437153077602,68.4763002367888
179,1437153078058,67.7388026049731
180,1437153078585,53.0218432728666
181,1437153079066,66.4774296992943
182,1437153079441,64.7460651538963
183,1437153079860,63.6791276828131
184,1437153080331,66.2833312430277
185,1437153080809,61.5965004723557
186,1437153081298,71.9119676814288
187,1437153081735,66.1100540817458
188,1437153082196,62.6459731328342
189,1437153082684,64.748242776272
190,1437153083195,66.8704350161182
191,1437153083674,68.2254749697453
192,1437153084156,65.7262912738928
193,1437153084651,65.771342134515
194,1437153085154,63.9368022880755
195,1437153085654,66.7635510811391
196,1437153086134,74.047931192908
197,1437153086621,69.1928841907911
198,1437153087105,72.269624154695
199,1437153087497,68.8366076737745
200,1437153087927,66.6189833044332
201,1437153088443,67.1809532770672
202,1437153088922,66.3518575411544
203,1437153089381,67.1126417252347
204,1437153091345,68.3741646568364
205,1437153091821,65.6528660498537
206,1437153092318,75.233580391923
207,1437153092837,71.188622157814
208,1437153093332,66.0493026356577
209,1437153093828,70.6145856120327
210,1437153094325,71.6306513312583
211,1437153094824,62.2517066051907
212,1437153095319,70.5715126339244
213,1437153095825,71.5363263282334
214,1437153096319,66.5182924723081
215,1437153096815,61.5345392386753
216,1437153097289,73.5617794443675
217,1437153097742,71.5646798317498
218,1437153098169,71.0643373702559
219,1437153098620,73.7743018775676
220,1437153099132,62.9783617330959
221,1437153099612,66.1615043130935
222,1437153100090,72.2299873497215
223,1437153100533,62.7104444434215
224,1437153101022,67.1152585471423
225,1437153101534,71.5019204090228
226,1437153101920,60.5993366998878
227,1437153102341,66.4196797728906
228,1437153102835,68.919543128322
229,1437153103341,62.9627748775305
230,1437153103856,69.428458431257
231,1437153104356,71.9076595849115
232,1437153104862,68.6203936713871
233,1437153105358,62.1780272242592
234,1437153105856,69.5605457939436
235,1437153106357,70.9361615037834
236,1437153106849,61.7406479692852
237,1437153107349,65.0918877176472
238,1437153107920,74.0023571377912
239,1437153109291,72.3031345339553
240,1437153109726,66.1282080110143
241,1437153110184,68.4731704046736
242,1437153110695,72.8638361338545
243,1437153111166,72.4515954877927
244,1437153111620,68.4497099372191
245,1437153112144,72.3278653189352
246,1437153112695,66.993490465037
247,1437153113195,60.5686569118141
248,1437153113678,70.6983210815435
249,1437153114181,69.3911490248744
250,1437153114649,57.091126118816
251,1437153115093,68.0191681012366
252,1437153115513,71.924341008827
253,1437153116008,56.5629687144377
254,1437153116498,68.7920067933822
255,1437153117009,68.3700772454332
256,1437153117533,58.5660665808824
257,1437153118061,64.5738458458243
258,1437153118475,69.4818494175001
259,1437153118912,67.8248102141689
260,1437153119420,63.8464316265229
261,1437153119904,67.9595951910649
262,1437153120423,66.723203666943
263,1437153120922,60.4025101855359
264,1437153121320,71.4792806063981
265,1437153121721,71.0226697788054
266,1437153122110,69.0792038914692
267,1437153122580,73.6142058099678
268,1437153123155,64.845661427793
269,1437153123618,61.8374240061141
270,1437153124111,72.8309218556162
271,1437153124613,65.8204765752273
272,1437153125114,59.5095104192294
273,1437153125614,66.465354778405
274,1437153126098,71.8119740462985
275,1437153126594,60.5916017681136
276,1437153127094,67.4495393038899
277,1437153127662,65.5948129991184
278,1437153128136,70.084669289665
279,1437153128535,60.9025677562625
280,1437153129017,68.8877609132829
281,1437153129534,66.327248896826
282,1437153129992,65.4045232645876
283,1437153130389,72.1873669382923
284,1437153130822,61.4124121042036
285,1437153131283,66.0977795519947
286,1437153131788,72.0546211477513
287,1437153132280,64.6816026180692
288,1437153132840,60.5004852766495
289,1437153133322,73.5950946082274
290,1437153133829,68.9734461616907
291,1437153134321,56.932728952665
292,1437153134819,63.752427344804
293,1437153135332,74.4345728756908
294,1437153135824,72.9353455922348
295,1437153136324,54.0597797616643
296,1437153136847,65.2802605300407
297,1437153137350,72.861937621039
298,1437153137840,66.6746091451755
299,1437153138347,62.8551615492543
300,1437153138765,69.0866452306538
301,1437153139918,70.1741700462925
302,1437153140415,63.271866918252
303,1437153140900,65.3109025903612
304,1437153141306,70.7037358875673
305,1437153141704,62.9918906978847
306,1437153142104,72.355248101623
307,1437153142494,64.2491794922384
308,1437153142974,68.261399384737
309,1437153143463,70.8698035993736
310,1437153143951,68.601939535915
311,1437153144448,62.6157131737491
312,1437153144935,70.0726193408435
313,1437153145471,71.8837788206673
314,1437153145976,69.9979684893786
315,1437153146475,64.033795771583
316,1437153146974,71.7259892401501
317,1437153147483,64.8179054083593
318,1437153148015,54.6544666218703
319,1437153148504,62.9717733009907
320,1437153148987,69.2117236841318
321,1437153149378,61.8091816911918
322,1437153149817,68.5439492916041
323,1437153150284,68.3153935723668
324,1437153150801,66.9092508117848
325,1437153151284,66.9861607579849
326,1437153151821,72.5445141918503
327,1437153152265,68.6087703175269
328,1437153152746,67.533535579357
329,1437153153291,66.9532147019043
330,1437153153759,71.547077155018
331,1437153154230,61.6919088813983
332,1437153154727,66.2456921087128
333,1437153155216,70.2323781729341
334,1437153155724,64.1388988340884
335,1437153156202,68.1309362914772
336,1437153157591,65.7948007560204
337,1437153157975,70.1147409018419
338,1437153158435,69.0322739387862
339,1437153158844,69.735923568309
340,1437153159334,69.9464052005415
341,1437153159842,58.3596217939754
342,1437153160329,59.3014503533433
343,1437153160837,73.1150101319972
344,1437153161354,71.5949432947229
345,1437153161862,61.0318381909929
346,1437153162271,66.8141805868225
347,1437153162694,63.0835101147338
348,1437153163170,56.6685576616613
349,1437153163636,66.2782889982753
350,1437153164130,68.3448609879685
351,1437153164631,55.53515569967
352,1437153165133,66.4967156716384
353,1437153165639,70.5198757216751
354,1437153166126,64.658863215709
355,1437153166635,60.6005552222462
356,1437153167129,68.7591918300596
357,1437153167625,70.6107309599191
358,1437153168157,66.1602177141907
359,1437153168654,62.3182974561664
360,1437153169112,68.910219612476
361,1437153169569,66.4487676209843
362,1437153169989,61.6997277808934
363,1437153170480,71.7414657947912
364,1437153170990,67.014024399629
365,1437153171360,62.8320271959231
366,1437153171929,68.6501661017314
367,1437153172294,65.8817793820737
368,1437153172606,66.600223622113
369,1437153172926,63.2555762368066
370,1437153173239,73.3648955990443
371,1437153173543,60.9057215931159
372,1437153173853,71.6936199381843
373,1437153174160,61.5503879959826
374,1437153174480,68.9219671365921
375,1437153174800,62.3947369543422
376,1437153175122,67.0357727972771
377,1437153175447,68.239010894566
378,1437153175771,66.6140232962922
379,1437153176093,67.4991401382181
380,1437153176429,60.7021849255093
381,1437153176766,66.4804671729988
382,1437153177099,62.1533970438925
383,1437153177447,67.9101982371379
384,1437153177979,67.5095401019766
385,1437153178366,46.2957402610986
386,1437153178676,72.1226257903033
387,1437153179000,50.6610519640848
388,1437153179322,67.9294024205589
389,1437153179649,53.3259791145771
390,1437153179971,67.6419695592621
391,1437153180286,62.7931846980154
392,1437153180599,68.8401806060425
393,1437153180919,66.8673409710254
394,1437153181247,67.5789337572612
395,1437153181568,68.8417144540128
396,1437153181900,67.0135703637889
397,1437153182225,69.9916933599427
398,1437153182563,68.3409698788527
399,1437153182910,67.6746856607782
400,1437153183230,61.245626183192
401,1437153183556,72.3592598320583
402,1437153183924,65.2214339600073
403,1437153184289,71.2161399641484
404,1437153184655,63.4622132924638
405,1437153184991,66.8150083785721
406,1437153185304,57.2628368712441
407,1437153185623,72.8395148311124
408,1437153185951,55.9615440687108
409,1437153186260,65.8540269271511
410,1437153186571,55.5556777340001
411,1437153186901,69.68060178038
412,1437153187242,59.9972895011912
413,1437153187580,69.2927815013961
414,1437153187930,57.5733193323361
415,1437153188253,73.9797842862666
416,1437153188592,56.800044227643
417,1437153188927,75.4614408868102
418,1437153189242,59.7081663475048
419,1437153189561,68.8940429749344
420,1437153189903,66.1504428067122
421,1437153190377,57.7442375898649
422,1437153190729,60.6124724736474
423,1437153191075,65.7858745470515
424,1437153191413,60.2056371641867
425,1437153191752,67.8099366894033
426,1437153192090,57.4176906072049
427,1437153192438,74.6767204219813
428,1437153192781,61.5927940149278
429,1437153193127,66.4918874175079
430,1437153193522,63.725280653245
431,1437153193861,69.6990828550623
432,1437153194215,57.3891147320522
433,1437153194570,72.2535577866932
434,1437153194925,65.1758364973353
435,1437153195296,73.259057983556
436,1437153195643,57.1348016209293
437,1437153195984,70.8188633828524
438,1437153196322,55.351425671139
439,1437153196663,73.536091309108
440,1437153197010,57.2533157879988
441,1437153197370,67.3400845337984
442,1437153197726,64.0392186656524
443,1437153198041,72.1285466368781
444,1437153198354,49.3017620244518
445,1437153198671,70.3713374650206
446,1437153198988,62.1253030620697
447,1437153199303,65.7986973393164
448,1437153199616,62.8316847567359
449,1437153199935,68.7693652824592
450,1437153200253,62.4028480287754
451,1437153200600,64.6843085916793
452,1437153200988,65.9776532085824
453,1437153201396,68.3888298486369
454,1437153201856,56.1750697576731
455,1437153202320,67.4667131862045
456,1437153202891,69.6708223772524
457,1437153203382,60.4791992570944
458,1437153203839,60.513818584666
459,1437153204329,68.0212133403879
460,1437153204822,63.8968017114736
461,1437153205302,58.2057322922564
462,1437153205811,68.5024496742139
463,1437153206297,68.2631735923393
464,1437153206723,56.0587306037598
465,1437153207154,70.8149694326381
466,1437153207627,67.9859274364261
467,1437153208095,60.7352639157818
468,1437153208557,70.5356966601411
469,1437153209047,72.4721080717645
470,1437153209532,56.8669466277749
471,1437153210040,65.3452817746766
472,1437153210471,70.0485856007207
473,1437153210957,50.8341607227805
474,1437153211420,62.1478443250166
475,1437153211881,64.4645293758972
476,1437153212262,57.4117215116473
477,1437153212634,74.2954258798036
478,1437153213113,58.5763038072705
479,1437153213578,65.6847478194767
480,1437153214055,71.6961385507772
481,1437153214562,67.6518908230931
482,1437153215060,59.6914037293726
483,1437153215575,68.3244674525509
484,1437153216088,73.5217661616306
485,1437153216574,66.6945017226046
486,1437153217053,66.9934829066637
487,1437153217585,70.7036612257835
488,1437153218070,71.0135744857108
489,1437153218576,62.2759049429596
490,1437153219047,67.8979690112809
491,1437153219551,69.5239913846086
492,1437153220026,67.50726827808
493,1437153220526,67.2687804617921
494,1437153220930,68.7383711529942
495,1437153221349,68.4992157533179
496,1437153221809,69.1488962472699
497,1437153222290,64.6440847277572
498,1437153222809,67.3201001886013
499,1437153223180,73.83986352326
500,1437153223607,58.1806997118083
501,1437153224075,70.0238983110628
502,1437153224556,67.7096121775863
503,1437153225043,59.5221050862216
504,1437153225552,68.9469120438863
505,1437153226042,73.7618030584006
506,1437153226552,67.7369626451535
507,1437153227056,65.4223764127498
508,1437153227606,71.5740144679526
509,1437153228110,72.9038464822808
510,1437153228626,66.3410696097072
511,1437153229147,64.8126943001384
512,1437153229654,70.8676453345367
513,1437153230139,69.0639765973532
514,1437153230565,62.5590825343084
515,1437153230985,71.1648133162364
516,1437153231421,59.8007374764992
517,1437153231843,66.7664783615413
518,1437153232273,70.9747093421609
519,1437153232770,63.6006393644866
520,1437153233200,71.7490837072248
521,1437153233648,69.3850364076965
522,1437153234105,61.5522524357331
523,1437153234556,72.3454077436256
524,1437153235005,62.0825478914044
525,1437153235488,64.296239367551
526,1437153235972,72.4034193248152
527,1437153236455,68.1408959596972
528,1437153236964,60.4559491770528
529,1437153237467,69.4454721953971
530,1437153238019,72.2281652827931
531,1437153238534,67.8147798396463
532,1437153239013,64.7988736184425
533,1437153239505,70.5631092089314
534,1437153240008,61.389661338874
535,1437153240516,57.4092574372418
536,1437153240975,70.4291940954542
537,1437153241381,66.5744791411144
538,1437153241785,61.5033532247904
539,1437153242246,73.6773581392129
540,1437153242780,69.1660239452833
541,1437153243246,63.875689546742
542,1437153243595,65.8894820009298
543,1437153244070,64.2746247115074
544,1437153244537,66.1325888079881
545,1437153244985,69.9561535402745
546,1437153245404,63.9280384099875
547,1437153245893,61.6936167926996
548,1437153246392,73.0233067900335
549,1437153246893,62.954777721614
550,1437153247393,62.9172833843232
551,1437153247920,67.5655383235116
552,1437153248416,67.0810252445301
553,1437153248922,61.1262465979787
554,1437153249415,67.6066870543342
555,1437153249916,71.1251718491423
556,1437153250416,66.3624994782878
557,1437153250942,62.2093594885889
558,1437153251345,72.5521894633062
559,1437153251778,60.5207363401715
560,1437153252233,69.1568962865436
561,1437153252771,70.7790572636973
562,1437153253224,66.6487999106344
563,1437153253719,62.8990991891595
564,1437153254162,72.0429853361432
565,1437153254531,66.934658881812
566,1437153254980,69.4853294349592
567,1437153255483,67.4817947242872
568,1437153255983,62.2775211026884
569,1437153256475,65.8780221728905
570,1437153256972,71.6834706576963
571,1437153257460,65.0550631988577
572,1437153257967,65.8856214923424
573,1437153258466,74.152270059781
574,1437153258970,65.8249125522715
575,1437153259466,64.7434591571495
576,1437153259958,67.4749785422613
