id,attr_time,attr_db
1,1436375913995,2.32531944565871
2,1436375914487,12.7276396433829
3,1436375914992,16.0637077599247
4,1436375915354,3.31297063205797
5,1436375915688,3.27028804180426
6,1436375916028,1.67038314518098
7,1436375916371,1.34416549803372
8,1436375916709,13.4297072882792
9,1436375917073,6.43243003902335
10,1436375917472,12.0406619427387
11,1436375917851,6.22471865047161
12,1436375918306,2.12654899497512
13,1436375918849,1.14289040328558
14,1436375919355,11.2583199477769
15,1436375919785,1.63007732047447
16,1436375920175,3.63748822282573
17,1436375920523,5.94288543418919
18,1436375920894,3.47300178471432
19,1436375921225,11.9700623431885
20,1436375921551,11.0411727924116
21,1436375921885,13.446443159915
22,1436375922231,8.13422347486051
23,1436375923296,3.92314860467135
24,1436375923673,4.36362011806536
25,1436375924114,21.2004030382664
26,1436375924577,16.9608417768693
27,1436375925021,12.0342777137039
28,1436375925419,54.5956693192695
29,1436375925860,31.5007787069349
30,1436375926267,53.6506967243394
31,1436375926652,53.200828760084
32,1436375927011,35.8040546494384
33,1436375927355,12.5495664352743
34,1436375927696,29.1724625270782
35,1436375928049,19.6713496501751
36,1436375928428,10.4363751322632
37,1436375928790,5.71247697359297
38,1436375929234,10.4814372023093
39,1436375929684,1.76268889845474
40,1436375930169,4.25849460319888
41,1436375930681,3.55436902740258
42,1436375931188,1.25508860021769
43,1436375931552,30.0440820165532
44,1436375931931,24.7948773274632
45,1436375932318,10.7376991665782
46,1436375932687,35.0358117830365
47,1436375933046,25.6643408791943
48,1436375933423,34.3088055074682
49,1436375933787,10.1542494748176
50,1436375935015,39.1017002093024
51,1436375935389,29.5561535549445
52,1436375935815,13.9861108665506
53,1436375936279,12.000863249233
54,1436375936721,33.7283388109727
55,1436375937132,21.025597668357
56,1436375937586,18.1221384566879
57,1436375938123,9.52948214973913
58,1436375938640,7.8695125215305
59,1436375939018,15.2687839466612
60,1436375939404,19.6231456264011
61,1436375939773,36.6002337574347
62,1436375940153,15.4875321920851
63,1436375940507,14.0063742696969
64,1436375940879,11.8049757789741
65,1436375941220,7.21686328552503
66,1436375941563,18.0262186122896
67,1436375941908,21.4218720757134
68,1436375942239,2.5497381105679
69,1436375942595,26.5419118939659
70,1436375943037,31.4224760792422
71,1436375943535,33.8553510256238
72,1436375944084,14.1222916448935
73,1436375944545,34.672197928882
74,1436375944911,30.851688742254
75,1436375945243,43.4704863823725
76,1436375945564,21.7557136805428
77,1436375945911,15.5749784320642
78,1436375946255,29.0864052412584
79,1436375946599,15.5364331560365
80,1436375946943,19.2409051736601
81,1436375947291,16.1210819404573
82,1436375947636,11.4374324836536
83,1436375948783,2.0574591991045
84,1436375949186,4.22755640615072
85,1436375949640,3.95337356649037
86,1436375950129,10.260010871353
87,1436375950608,3.61776996319271
88,1436375951082,1.08459562314124
89,1436375951559,14.0196301836208
90,1436375952060,46.1585512392791
91,1436375952534,22.1191219832887
92,1436375953042,35.793418659275
93,1436375953542,20.4272156889611
94,1436375954048,43.1175322180691
95,1436375954536,19.7830131387785
96,1436375955046,18.6662533956342
97,1436375955536,34.0093221258821
98,1436375956040,18.4633066868473
99,1436375956491,33.7031637994246
100,1436375956886,20.9665714003265
101,1436375957327,3.21370224142697
102,1436375957825,43.987835200991
103,1436375958259,13.2995369051436
104,1436375958695,30.9735314136322
105,1436375959163,14.3804959194636
106,1436375959669,12.514106273739
107,1436375960154,1.09587600088005
108,1436375960633,12.1945730127637
109,1436375961612,5.61542691770473
110,1436375962086,4.89173993583115
111,1436375962510,13.8223399048426
112,1436375962966,1.9026953784665
113,1436375963524,4.95670575580497
114,1436375964013,39.7625683691205
115,1436375964470,40.1217985147993
116,1436375964966,39.8562590498694
117,1436375965469,43.4457133319123
118,1436375965966,43.250747101703
119,1436375966466,42.8639966328528
120,1436375966861,30.7200372579631
121,1436375967307,41.3904999119102
122,1436375967794,11.9576364821292
123,1436375968272,13.0720126794849
124,1436375968694,10.5494951818161
125,1436375969129,37.9700536151875
126,1436375969610,22.4273109344496
127,1436375970131,31.2594434719961
128,1436375970625,31.4380988698443
129,1436375971082,37.9709566978367
130,1436375971522,40.7797113151401
131,1436375971998,55.6361161851135
132,1436375972513,37.7970440558008
133,1436375973048,36.3698961673887
134,1436375973586,32.4823922561149
135,1436375974083,8.80188351766459
136,1436375974576,37.1905283498686
137,1436375975075,9.86980158601927
138,1436375975568,31.121755111972
139,1436375976056,9.56440568723615
140,1436375976550,8.00920244727604
141,1436375977069,15.3698554250218
142,1436375977552,5.81367294898102
143,1436375977983,21.773507328644
144,1436375978458,4.09016205709648
145,1436375978968,29.4297651305747
146,1436375979421,45.6634973079555
147,1436375979918,39.3265121008667
148,1436375980392,16.6271895832784
149,1436375980860,51.994549262019
150,1436375981344,46.6081672292137
151,1436375981735,24.529920016022
152,1436375982118,46.4320025055245
153,1436375982453,47.8657004709017
154,1436375982816,21.7105610202341
155,1436375983282,32.2363941334901
156,1436375983707,45.900067078892
157,1436375984164,19.5839501335272
158,1436375984652,36.8016040469818
159,1436375985079,48.2472674446042
160,1436375985545,8.68970908488838
161,1436375986056,15.2011192977706
162,1436375986537,16.5515706743305
163,1436375987014,6.74910973905034
164,1436375987504,14.7964764010437
165,1436375987946,29.7826534980048
166,1436375988320,16.3087121270888
167,1436375988728,11.3610628203412
168,1436375989181,30.9384510957104
169,1436375989666,7.85488256425751
170,1436375990170,29.0448499333931
171,1436375990652,24.9528750545418
172,1436375991166,12.4452176353599
173,1436375991700,9.39642684035797
174,1436375992156,25.0153137884438
175,1436375992595,19.5807733007879
176,1436375993075,10.1030917891695
177,1436375993616,24.8623470592354
178,1436375994115,6.95392701070374
179,1436375994618,23.1584603840658
180,1436375995105,3.87871752652828
181,1436375995581,10.7330466310932
182,1436375996079,26.2227304486572
183,1436375996579,33.4129952443497
184,1436375997075,37.3711901399133
185,1436375997553,66.018997266127
186,1436375998037,41.4945430404168
187,1436375998523,32.6663972852463
188,1436375998942,32.9880966215063
189,1436375999380,34.2211259478245
190,1436375999866,39.431665438728
191,1436376000357,32.7096142896672
192,1436376000754,35.7063984082085
193,1436376001147,30.3477624220901
194,1436376001581,32.0870372740729
195,1436376001987,30.7888986994832
196,1436376002376,31.3640816153064
197,1436376002805,35.1436319010483
198,1436376003202,33.7358011288002
199,1436376003560,34.9018635015599
200,1436376004006,34.8084211256771
201,1436376004474,51.689994071754
202,1436376004962,38.5057887432295
203,1436376005437,39.5846279757509
204,1436376005910,59.2724268531593
205,1436376006412,54.4811711257289
206,1436376006931,42.9398701347999
207,1436376007427,37.2615012988389
208,1436376007941,23.8838390444931
209,1436376008485,36.4112636099629
210,1436376008951,33.194795044834
211,1436376009397,7.33357784443257
212,1436376009783,11.530284259855
213,1436376010195,14.9708099136915
214,1436376010680,47.3215800486412
215,1436376011171,16.5613204532047
216,1436376011628,9.01651530610407
217,1436376012087,11.7665916151601
218,1436376012588,19.2895506957383
219,1436376013100,47.5031109005367
220,1436376013623,41.7042213808308
221,1436376014076,15.6729114162762
222,1436376014525,33.5436752142782
223,1436376014999,41.2983899471013
224,1436376015505,18.711400111619
225,1436376015985,10.1835812422004
226,1436376016453,15.5009777219321
227,1436376016959,13.6257415793728
228,1436376017450,13.9088397089642
229,1436376017929,12.5036306657066
230,1436376018455,13.0911969636245
231,1436376019003,28.4805538584735
232,1436376019484,8.48429272130107
233,1436376019916,10.8257206065885
234,1436376020377,5.04400186385397
235,1436376020895,5.56686870842463
236,1436376021383,5.0562269040678
237,1436376021873,0.61925191174067
238,1436376022360,7.76572381153592
239,1436376022840,10.6075740954908
240,1436376023313,39.4058322061696
241,1436376023701,37.1407479657572
242,1436376024107,51.9414847438318
243,1436376024528,38.0391910681522
244,1436376024973,10.7557896338908
245,1436376025455,38.7798160907004
246,1436376025952,46.7501113435565
247,1436376026434,37.5818637424125
248,1436376026906,10.6187201797042
249,1436376027394,23.9107433477234
250,1436376027884,35.2469577493338
251,1436376028376,48.6285572281521
252,1436376028939,17.3747143759527
253,1436376029422,11.4386117504585
254,1436376029879,20.5577370729545
255,1436376030266,39.836222407044
256,1436376030647,34.4363814212819
257,1436376031078,6.47286711711495
258,1436376031539,6.93323557399483
259,1436376032005,2.6144377738781
260,1436376032566,8.48494829194865
261,1436376033015,46.125974194109
262,1436376033448,14.6805949612819
263,1436376034014,7.19963973602373
264,1436376034478,14.6349322518053
265,1436376034912,4.07564582416865
266,1436376035347,2.76817434720393
267,1436376035834,4.9223061479195
268,1436376036333,39.9506865095667
269,1436376036807,48.2880424570504
270,1436376037286,9.2343021547066
271,1436376037770,10.2603774651294
272,1436376038198,11.2070388008778
273,1436376038625,0.396524589381478
274,1436376039109,0.934835195290234
275,1436376039579,0.900195509746455
276,1436376040090,11.4557099639287
277,1436376040572,9.72318702706424
278,1436376041073,15.8761561413002
279,1436376041500,3.88781937126565
280,1436376041977,4.26146363062074
281,1436376042495,1.38378695890304
282,1436376042978,10.8373906208557
283,1436376043453,13.5064992312251
284,1436376043840,42.9842298293632
285,1436376044290,46.0720522814972
286,1436376044753,37.0636687588857
287,1436376045241,55.4655489938168
288,1436376045716,14.5097233998501
289,1436376046202,14.0785027999879
290,1436376046726,12.6970795921819
291,1436376047192,4.43909537620542
292,1436376047639,15.3022367335684
293,1436376048109,9.38438605528361
294,1436376048621,5.51025665267283
295,1436376049158,25.8931893155935
296,1436376049602,25.7256607195666
297,1436376050073,8.88152718645229
298,1436376050567,55.4979052029857
299,1436376051035,60.0817587895507
300,1436376051472,55.3052016082666
301,1436376051904,5.9345472115164
302,1436376052344,46.4008117467688
303,1436376052832,52.6392909474879
304,1436376053302,50.1808040209848
305,1436376053801,53.4798380236461
306,1436376054235,39.9810609330674
307,1436376054670,54.6819765570032
308,1436376055156,65.8755887342374
309,1436376055633,17.6316687807948
310,1436376056143,28.3450382434486
311,1436376056664,40.2456676144539
312,1436376057127,45.7772959401632
313,1436376057581,12.199260889851
314,1436376058062,4.18296992015897
315,1436376058562,29.9404107198786
316,1436376059100,21.3236233765834
317,1436376059579,38.0570992083205
318,1436376060080,7.71324093501295
319,1436376060558,17.0473402712917
320,1436376061037,2.46467734602711
321,1436376061548,6.12616895078999
322,1436376062020,11.1278447862219
323,1436376062468,2.1083204685827
324,1436376062931,13.9140662666957
325,1436376063394,20.2327860333304
326,1436376063779,8.77141982985901
327,1436376064174,1.20629133907571
328,1436376064609,2.43534092081958
329,1436376065098,10.4503718395703
330,1436376065601,24.1980626948306
331,1436376066101,5.66979438333925
332,1436376066645,10.7042493245507
333,1436376067073,1.14289040328558
334,1436376067413,5.66893858850748
335,1436376067837,8.22744162589468
336,1436376068397,0.0464523995219786
337,1436376069345,2.69085371811658
338,1436376069818,10.8537709341288
339,1436376070306,8.7101683879149
340,1436376070807,4.18959278715012
341,1436376071310,12.7528551980388
342,1436376071807,10.3804275902418
343,1436376072308,50.6477898097422
344,1436376072707,31.5215348500215
345,1436376073097,39.395555808457
346,1436376073555,43.9740420964089
347,1436376074063,40.4213401594073
348,1436376074572,44.3700458773624
349,1436376075075,29.4738370356484
350,1436376075575,21.3308458900932
351,1436376076066,9.82155709439952
352,1436376076573,15.5069387510077
353,1436376077056,11.6729204273
354,1436376077576,11.5286935832389
355,1436376078007,12.331857985956
356,1436376078521,7.67393264158995
357,1436376078982,24.8529083533543
358,1436376079476,15.7744169608138
359,1436376079974,4.36126430312331
360,1436376080439,20.6117501295561
361,1436376080935,6.39099938305038
362,1436376081418,43.0329981829073
363,1436376081921,15.4078059017842
364,1436376082435,11.8659138119099
365,1436376082913,4.56961925086159
366,1436376083289,10.6420424790901
367,1436376083703,17.3146360235074
368,1436376084160,7.00206098776526
369,1436376084623,42.4740044805845
370,1436376085111,38.1156022741481
371,1436376085619,13.2292382625535
372,1436376086122,22.0935076783856
373,1436376086587,8.59438249978116
374,1436376086992,40.3881035059381
375,1436376087454,1.3883073283197
376,1436376087929,9.21618767548611
377,1436376089598,13.8537872844581
378,1436376090036,19.8550121710552
379,1436376090521,11.0532649606823
380,1436376091014,7.75578003295926
381,1436376091507,25.2087623148777
382,1436376092009,0.271150979019676
383,1436376092506,18.6754545320521
384,1436376092982,1.77606209530446
385,1436376093472,7.64640793426384
386,1436376093824,7.5520849193747
387,1436376094234,1.2158049102766
388,1436376094716,20.7366130033688
389,1436376095190,19.6134899731413
390,1436376095609,25.1712087767917
391,1436376096001,3.32577979178694
392,1436376096454,6.2966223953087
393,1436376096991,19.2006963245371
394,1436376097455,16.3981121570832
395,1436376098418,2.59617091196557
396,1436376099591,11.0392594954959
397,1436376100024,1.59455215995841
398,1436376100496,5.43185113847434
399,1436376101004,5.59068430123543
400,1436376101497,9.86149555190725
401,1436376101997,2.10335568443034
402,1436376102444,9.6340773685332
403,1436376102841,27.6989389205938
404,1436376103239,13.4466295483968
405,1436376103583,7.2611953922221
406,1436376103940,18.8728642530811
407,1436376104284,16.6821628981117
408,1436376104707,7.71478003125833
409,1436376105162,30.6423975637247
410,1436376105670,1.46738160283906
411,1436376106181,20.1474213573047
412,1436376107150,5.9845405010113
413,1436376107619,17.3332376179484
414,1436376108081,0.583519713368155
415,1436376108621,43.0587755804134
416,1436376109052,50.4821772861733
417,1436376109515,58.6484782442942
418,1436376110002,49.9835160163675
419,1436376110478,3.12896118256188
420,1436376110965,12.6974386690392
421,1436376111444,51.2616351720083
422,1436376111906,52.9129676797718
423,1436376112387,51.6261890037176
424,1436376112848,15.1363084710805
425,1436376113233,39.8220800797491
426,1436376114454,13.0302931628715
427,1436376114848,17.7080873112299
428,1436376115285,13.9923607867841
429,1436376115753,17.048435827618
430,1436376116239,45.8269659013987
431,1436376116713,24.4264683331441
432,1436376117212,21.7542621312276
433,1436376117691,16.0844948620842
434,1436376118169,12.6148018585113
435,1436376118652,11.8829924074329
436,1436376119081,28.0835561499051
437,1436376119535,28.4019732872067
438,1436376120055,22.302529668086
439,1436376120545,39.1548799740915
440,1436376121037,22.9908787692107
441,1436376121545,9.31344520465493
442,1436376121984,62.7677896384716
443,1436376123274,30.6399966447324
444,1436376123690,2.45793102363898
445,1436376124026,29.1404143002558
446,1436376124418,33.1519609116378
447,1436376124898,44.104344393614
448,1436376125415,41.2249818331893
449,1436376125911,27.928129499215
450,1436376126400,38.3040937016554
451,1436376126889,40.0502727124186
452,1436376127352,7.9913440197297
453,1436376127766,32.93290195773
454,1436376128228,55.3526772762688
455,1436376128843,41.0789342482432
456,1436376129223,34.875765569229
457,1436376129624,1.80208075571283
458,1436376130087,6.47024747545886
459,1436376130572,3.04169880618862
460,1436376131060,1.7865840707136
461,1436376131554,1.83607645327071
462,1436376132053,4.40794078886618
463,1436376132539,3.52210941877685
464,1436376133534,0.312561735112722
465,1436376134028,3.10015958359316
466,1436376134875,2.29344458552757
467,1436376135372,3.87984588164772
468,1436376135847,8.71965644055607
469,1436376136337,8.41992293741697
470,1436376136840,3.52003740310909
471,1436376137316,0.949862689761965
472,1436376137840,10.2155702602565
473,1436376138314,1.12786290881385
474,1436376138871,18.3597244696374
475,1436376139353,14.5428885731617
476,1436376140112,18.9653021377062
477,1436376140580,2.06916883823548
478,1436376141053,5.26032115868352
479,1436376141521,5.32827180253187
480,1436376142020,2.64227718757622
481,1436376142514,0.312561735112722
482,1436376142985,9.69388672390793
483,1436376143557,7.50254615195278
484,1436376144009,27.0760684863989
485,1436376144439,1.58760344787736
486,1436376144875,7.64401882818613
487,1436376145255,13.0893902570813
488,1436376145665,2.62791471938722
489,1436376146113,15.4807415891364
490,1436376146586,11.9939340181921
491,1436376147083,3.15274837978686
492,1436376147588,32.4624381062929
493,1436376148090,45.8427902585356
494,1436376148644,42.9091210582871
495,1436376149113,15.4888381117966
496,1436376149557,19.7993538410442
497,1436376150025,24.1439217225783
498,1436376150511,43.8192120915495
499,1436376150999,38.3782223886083
500,1436376151466,60.0990353668854
501,1436376151973,38.2477604667968
502,1436376152433,32.0419427323511
503,1436376152913,25.5972103229769
504,1436376153386,32.3293426163006
505,1436376153987,32.3097965381627
506,1436376154427,43.7795985691276
507,1436376154916,33.0357993878127
508,1436376155351,30.3230420099195
509,1436376155749,6.97002819633786
510,1436376156133,36.4309046549422
511,1436376156593,32.9105309892524
512,1436376157089,39.4720282155957
513,1436376157578,8.09466083254449
514,1436376158060,36.0355001796145
515,1436376158574,17.6567209467122
516,1436376159048,29.4476794397904
517,1436376159478,34.1590289116544
518,1436376159945,24.7351630787802
519,1436376160416,28.0412280230539
520,1436376160910,27.484963661098
521,1436376161380,27.1699793516819
522,1436376161866,38.5648398067951
523,1436376162347,44.3913185488195
524,1436376162835,35.2474032806179
525,1436376163316,38.4573106185003
526,1436376163814,32.6642028393509
527,1436376164270,24.630934335675
528,1436376164662,9.5605711094561
529,1436376165016,31.3371147618968
530,1436376165417,33.9840979352841
531,1436376165857,29.740419460002
532,1436376166347,36.42427229123
533,1436376166866,17.3681931508789
534,1436376167334,30.5479267228856
535,1436376167818,6.04028529735636
536,1436376168309,22.1965186550044
537,1436376168841,36.0267984543996
538,1436376169322,38.4014552289227
539,1436376169743,25.0604045256797
540,1436376170197,43.2005746742449
541,1436376170646,46.5546693136843
542,1436376171122,28.7475232022474
543,1436376171601,36.0399048826629
544,1436376172112,42.2774207138185
545,1436376172613,47.244001924128
546,1436376173125,37.8157228886303
547,1436376173604,42.2243662437571
548,1436376174206,45.8944962895602
549,1436376174715,31.9198852360909
550,1436376175207,36.0336432631046
551,1436376175647,58.2116452231934
552,1436376176077,49.8854143126068
553,1436376176543,54.4029081194899
554,1436376177027,58.5347961053915
555,1436376177480,27.6843610001968
556,1436376177954,15.2728049729256
557,1436376178451,24.4883494217872
558,1436376178972,30.3026393902517
559,1436376179444,21.3193720816863
560,1436376179826,20.6971560552679
561,1436376180224,58.5893187283721
562,1436376180690,44.8042904550896
563,1436376181183,57.32878775669
564,1436376181673,51.8010455492386
565,1436376182142,62.9735171045278
566,1436376182636,23.7945883958795
567,1436376183125,63.4050794037501
568,1436376183603,49.4956868208567
569,1436376184102,55.1223742170907
570,1436376184550,59.1753181957954
571,1436376184906,56.1516811882594
572,1436376185321,31.4283491085743
573,1436376185824,39.2122498866142
574,1436376186220,29.5042043330817
575,1436376186614,24.9372742272577
