id,attr_time,attr_db
1,1436375913714,26.0575445993115
2,1436375914451,27.318658474637
3,1436375915182,26.5838844361738
4,1436375915871,30.5216762806812
5,1436375916549,28.4225140250326
6,1436375917262,30.0491984717271
7,1436375917987,28.556801918903
8,1436375918724,30.8875865474384
9,1436375919457,29.4103260827633
10,1436375920163,38.9615028633071
11,1436375920903,36.6917420768839
12,1436375921644,37.6738812117028
13,1436375922375,36.8095222729067
14,1436375923089,34.9055974584672
15,1436375923804,34.1597081686474
16,1436375924519,50.5909418293294
17,1436375925255,37.5077467417951
18,1436375925938,46.2048874736211
19,1436375926649,36.2921962911956
20,1436375927387,35.3619669580573
21,1436375928031,33.2536356190478
22,1436375928698,44.4697851552272
23,1436375929377,36.8380748696539
24,1436375930100,36.2639409768416
25,1436375930833,45.0241756533871
26,1436375931577,37.552907048501
27,1436375932301,36.2855471263825
28,1436375933035,38.3991888829844
29,1436375933753,52.3029785186344
30,1436375934466,36.4142891849481
31,1436375935207,51.0209595807136
32,1436375935928,57.9028522802492
33,1436375936610,42.654753046994
34,1436375937362,37.7190967001386
35,1436375938103,55.1792830076195
36,1436375938865,36.6855931243934
37,1436375939579,62.569070869041
38,1436375940241,36.0814688010875
39,1436375940977,36.2156673271372
40,1436375941669,35.9421096606
41,1436375942328,36.4467253337511
42,1436375943067,37.5941335999207
43,1436375943811,65.8796928303123
44,1436375944545,69.4011725033162
45,1436375945262,38.0893607434762
46,1436375945995,72.1305933981779
47,1436375946722,37.8733602112029
48,1436375947407,51.1724875481205
49,1436375948138,41.0524759591829
50,1436375948840,39.3130570212386
51,1436375949560,73.5516797781891
52,1436375950240,35.2542242129139
53,1436375950976,60.0601391895819
54,1436375951702,29.6005006044999
55,1436375952428,31.0264407632127
56,1436375953185,30.9333500124042
57,1436375953911,67.8441596531497
58,1436375954652,65.3932397124681
59,1436375955380,29.316172468591
60,1436375956101,29.8926931041678
61,1436375956782,60.1392230968927
62,1436375957434,39.9730512189249
63,1436375958142,47.2803268913712
64,1436375958904,71.1733922775328
65,1436375959621,36.1537809335962
66,1436375960349,35.9870114300983
67,1436375961079,34.7665653653839
68,1436375961815,36.5062694663688
69,1436375962568,25.8181630740651
70,1436375963303,44.7793583790288
71,1436375964040,32.7257815470139
72,1436375964841,29.3510159043589
73,1436375965574,67.7429126170609
74,1436375966296,69.9898983242968
75,1436375966990,76.0609995415791
76,1436375967669,74.3423398063952
77,1436375968395,24.375957832211
78,1436375969141,20.737467739419
79,1436375969961,74.6671706394916
80,1436375970693,23.5730356687513
81,1436375971399,34.283015689548
82,1436375972158,74.30627526931
83,1436375972892,74.9414126240097
84,1436375973619,58.4814066826608
85,1436375974362,72.5067509676915
86,1436375975151,40.616582614417
87,1436375975887,41.1196879440703
88,1436375976605,46.795383593033
89,1436375977249,67.3140732898996
90,1436375977983,65.7158405752621
91,1436375978716,24.0992915892863
92,1436375979438,21.0710719731488
93,1436375980170,75.3660137524322
94,1436375980966,69.6645006120119
95,1436375981654,29.112640082256
96,1436375982397,73.922007061853
97,1436375983126,78.6160716939729
98,1436375983861,60.266194556259
99,1436375984585,76.3769365813139
100,1436375985318,48.1116537099558
101,1436375986083,63.9098733494605
102,1436375986804,31.3989659880565
103,1436375987512,48.402204214802
104,1436375988191,30.9749125323735
105,1436375988863,32.5785732887257
106,1436375989596,48.1454861262096
107,1436375990318,58.3675978196217
108,1436375991079,45.4409886168356
109,1436375991806,55.0179672145625
110,1436375992552,36.4577471719319
111,1436375993297,51.5809147381967
112,1436375994028,37.2649650631567
113,1436375994729,38.645581174292
114,1436375995465,38.9787492716648
115,1436375996159,39.7730139393463
116,1436375996856,39.9391852247497
117,1436375997578,53.7657464500098
118,1436375998230,38.8687724650592
119,1436375998953,39.5927349967891
120,1436375999668,40.0148322372929
121,1436376000391,41.4560252127807
122,1436376001080,41.2585111881976
123,1436376001716,41.8477273276417
124,1436376002423,42.7189681377018
125,1436376003167,44.2792984315912
126,1436376003887,42.4639780106073
127,1436376004625,43.1269552426163
128,1436376005371,44.5318612021928
129,1436376006112,42.0355184488122
130,1436376006836,59.1273581969581
131,1436376007544,56.6030744621742
132,1436376008235,45.3832464152557
133,1436376008973,46.5814333334057
134,1436376009655,45.4597052003598
135,1436376010380,46.385298287895
136,1436376011165,56.9317178791138
137,1436376011790,52.4063523381334
138,1436376012473,49.5522960068443
139,1436376013207,55.1706137166386
140,1436376013942,53.6507342007265
141,1436376014676,49.6707346343357
142,1436376015399,46.1827219963905
143,1436376016136,73.6377225883059
144,1436376016884,54.5976731835103
145,1436376017635,49.0214539761266
146,1436376018255,56.8550739701
147,1436376018886,45.3663640290765
148,1436376019547,42.7238128454365
149,1436376020277,69.845275548356
150,1436376021076,44.1518342668645
151,1436376021809,44.6108896373701
152,1436376022542,43.2589560119415
153,1436376023265,45.047912974232
154,1436376023981,46.2116137355262
155,1436376024712,71.7485445479687
156,1436376025439,57.6224506184587
157,1436376026195,45.1719515109551
158,1436376026902,48.4330398384323
159,1436376027606,46.1980173457529
160,1436376028345,45.9452295102361
161,1436376028988,47.4006160115817
162,1436376029715,45.7670145467856
163,1436376030444,45.9777026065791
164,1436376031185,48.9715129353478
165,1436376031938,42.9055156936767
166,1436376032595,46.231168592375
167,1436376033331,43.7276940520689
168,1436376034087,53.3364307254033
169,1436376034820,47.0499179338213
170,1436376035557,45.8395537869592
171,1436376036302,45.2553460919114
172,1436376037035,44.4996491104114
173,1436376037775,75.1845235776821
174,1436376038506,47.2970428149573
175,1436376039187,37.2969123071589
176,1436376039944,32.5279455907438
177,1436376040670,32.689341012125
178,1436376041405,30.7985731076008
179,1436376042082,36.3530936080416
180,1436376042793,33.2267765001229
181,1436376043527,33.7922760374337
182,1436376044323,30.357874278991
183,1436376045060,32.1403361854827
184,1436376045791,30.597202710143
185,1436376046524,58.2386211157662
186,1436376047275,33.6230298124714
187,1436376048012,30.8625660727061
188,1436376048834,44.442045836511
189,1436376049431,46.0660628252524
190,1436376050084,31.0194318740012
191,1436376050875,48.0122843329116
192,1436376051597,76.8625650182588
193,1436376052296,71.3374957258348
194,1436376053024,33.0727601421279
195,1436376053752,59.3189416026017
196,1436376054473,70.5714897075084
197,1436376055204,75.7859934376681
198,1436376057152,55.7867721210668
199,1436376057891,76.5263245775054
200,1436376058619,26.2480285738138
201,1436376059281,40.1960832287134
202,1436376060008,23.3690874906973
203,1436376060734,21.9386928168045
204,1436376061406,21.4644821556599
205,1436376062147,21.5081321053647
206,1436376062885,20.9479811507466
207,1436376063691,20.615942937202
208,1436376064432,21.5734721113505
209,1436376065158,27.1399765979257
210,1436376065883,20.6353810652471
211,1436376066620,23.2600548445993
212,1436376067319,32.7460257850112
213,1436376068050,21.1514805550052
214,1436376069270,23.6100118429637
215,1436376069894,23.0137664450736
216,1436376071121,22.4602645810716
217,1436376071875,24.9073818696308
218,1436376072583,49.6858794034228
219,1436376073276,63.4778347942538
220,1436376073956,66.5918932601968
221,1436376074677,71.9277524131104
222,1436376075395,74.9974716004059
223,1436376076134,70.4884239252365
224,1436376076873,57.5906476091981
225,1436376077587,47.4878931228545
226,1436376078317,44.6529491575563
227,1436376079103,47.7873525828525
228,1436376079778,44.866811171016
229,1436376080446,48.2034900482568
230,1436376081165,59.5359634137245
231,1436376081881,34.4720275091034
232,1436376082624,54.1736333602742
233,1436376083358,50.7545133199313
234,1436376084093,36.6724596686495
235,1436376084781,55.8064268997524
236,1436376085515,62.5939170322359
237,1436376086240,53.7030419433902
238,1436376086895,47.442648178559
239,1436376087601,52.4827899972161
240,1436376088333,27.5582259447295
241,1436376089061,27.3985178839306
242,1436376089810,39.1907520287344
243,1436376090458,52.8876547046322
244,1436376091163,55.5191000016357
245,1436376091955,49.0791500656277
246,1436376092608,60.5071016658857
247,1436376094591,29.1929027856657
248,1436376095307,23.739755166662
249,1436376096062,60.8199320486634
250,1436376096805,52.3782510651764
251,1436376097532,51.5689618220634
252,1436376098257,40.3583505338327
253,1436376098997,25.1806646979196
254,1436376099708,55.8080008621463
255,1436376100343,39.6493599280524
256,1436376101061,31.3125786747931
257,1436376101811,48.677525645579
258,1436376102561,50.4185115988845
259,1436376103295,39.5618838586992
260,1436376104015,26.8435869228299
261,1436376104750,36.5415725616395
262,1436376105470,37.8096571355097
263,1436376106204,41.4730036928092
264,1436376106909,38.9089354973037
265,1436376108496,36.0556992933058
266,1436376109202,40.3292428723186
267,1436376109917,71.6376160385325
268,1436376110503,75.7327178105122
269,1436376111188,38.3536635569733
270,1436376111905,44.1808645070562
271,1436376112636,65.7080903694678
272,1436376113371,44.4529933468475
273,1436376114128,49.2132725696725
274,1436376114830,47.9373360046909
275,1436376115500,54.9928660656366
276,1436376116222,59.0175320635175
277,1436376116948,66.4385361761957
278,1436376117701,65.1038113718431
279,1436376118424,60.441040168432
280,1436376119150,55.5657965809384
281,1436376119881,53.2217775935791
282,1436376120602,45.2428796469161
283,1436376121263,53.9854043341967
284,1436376121984,50.0869941023402
285,1436376122662,61.254875692813
286,1436376123218,72.3031819680158
287,1436376123903,51.3665307917736
288,1436376124660,49.0781577931251
289,1436376125401,32.9166787698074
290,1436376126127,76.6745088498934
291,1436376126859,73.0611539627148
292,1436376127553,67.4192680369809
293,1436376128301,46.3592955063757
294,1436376129034,70.5852076292494
295,1436376129777,66.4456855087226
296,1436376130555,34.9285718161464
297,1436376131195,36.2228617785438
298,1436376131933,34.8587360895624
299,1436376132676,28.4872592595549
300,1436376133448,39.8773584488811
301,1436376134159,25.9271228167598
302,1436376134899,28.6813301438104
303,1436376135627,26.0964595852483
304,1436376136375,26.3122710524123
305,1436376137108,27.4804885709332
306,1436376137821,28.7532636237858
307,1436376138526,29.5475725756971
308,1436376139182,30.6774072428756
309,1436376139871,32.265924798826
310,1436376140607,33.5754330077562
311,1436376141246,33.4668194726902
312,1436376141969,34.9776573165066
313,1436376142663,39.2334675418841
314,1436376143382,33.6218516860009
315,1436376144083,38.1583306601571
316,1436376144751,35.9341578887104
317,1436376145489,38.5140643657873
318,1436376146216,35.5539476249248
319,1436376146938,28.8423773067644
320,1436376147662,36.0763172584038
321,1436376148404,29.071581163257
322,1436376149173,32.6013991659823
323,1436376149909,30.6406247040608
324,1436376150642,35.7368698275373
325,1436376151335,30.444295247369
326,1436376151963,27.5136375028569
327,1436376152707,30.5387700860642
328,1436376153453,28.3918341625621
329,1436376154197,25.4254433877717
330,1436376154907,23.545843070605
331,1436376155599,26.6874217045781
332,1436376156329,22.5910223010958
333,1436376157067,22.3825337349002
334,1436376157788,22.5802816557856
335,1436376158530,21.6910170837309
336,1436376159252,18.8305516793575
337,1436376159994,18.8025840498055
338,1436376160741,22.1014342399721
339,1436376161496,18.4976385128741
340,1436376162174,18.8584774020995
341,1436376162933,20.9995583913261
342,1436376163666,20.7564988035001
343,1436376164399,22.1222247630279
344,1436376165131,22.3992011767692
345,1436376165921,23.4144509684666
346,1436376166583,21.9263905310699
347,1436376167303,35.8186079068356
348,1436376168036,23.5123624465718
349,1436376168788,25.6445437005478
350,1436376169519,51.7423398556141
351,1436376170251,54.428137772325
352,1436376171072,65.0130134416395
353,1436376171717,54.9853569822605
354,1436376172421,62.9621305605644
355,1436376173184,44.8127167540248
356,1436376173916,43.9255393395608
357,1436376174635,46.7552309795121
358,1436376175304,49.3011810569955
359,1436376176051,74.5477566164186
360,1436376176788,59.3344694149437
361,1436376177522,61.7715271714658
362,1436376178250,67.0063588416995
363,1436376178970,30.7822088450707
364,1436376179698,25.8726400415535
365,1436376180444,32.4400733236492
366,1436376181187,61.3707018442261
367,1436376181903,73.002187435316
368,1436376182551,68.3610666596323
369,1436376183281,74.0662837076446
370,1436376184007,53.5795189557744
371,1436376184819,76.0527580742027
372,1436376185560,75.8316275069836
373,1436376186333,76.5571037703172
374,1436376187054,17.0339441496136
375,1436376187812,16.3934624317416
376,1436376188535,18.1240662350139
377,1436376189263,57.7817328474551
378,1436376190035,53.0820098605929
379,1436376190794,76.8356619724955
380,1436376191493,70.1878362947612
381,1436376192211,71.1657918217036
382,1436376192889,21.106938578053
383,1436376193617,40.9046589937621
384,1436376194366,52.5372841348142
385,1436376195096,40.9256231518263
386,1436376195804,34.0865763382022
387,1436376196471,28.6577778714842
388,1436376197631,69.9497913211526
389,1436376198294,73.667753265257
390,1436376199013,73.1961809483637
391,1436376199785,75.6401865194361
392,1436376200511,30.5567546144698
393,1436376201242,39.5852529170486
394,1436376202007,19.436170067853
395,1436376202687,55.6723579397156
396,1436376203342,70.7032178563146
397,1436376204070,62.592916060814
398,1436376204843,49.2173094608
399,1436376205566,58.6071617858617
400,1436376206297,35.3803355914946
401,1436376207037,37.8674286436882
402,1436376207763,52.2294160765726
403,1436376208480,52.9288344638994
404,1436376209213,43.1866547160569
405,1436376209970,44.7567314710484
406,1436376210687,57.6139783623975
407,1436376211421,39.8173943928183
408,1436376212136,51.6130442593
409,1436376212831,75.8700727267709
410,1436376213486,31.3617359868701
411,1436376214226,31.6373723661262
412,1436376214961,62.3110492165324
413,1436376215690,41.4170068447416
414,1436376216355,73.6202789347391
415,1436376217096,60.610205614249
416,1436376217823,44.4910438282368
417,1436376218557,77.4651328960794
418,1436376219293,63.2710042631176
419,1436376220010,27.1754351586559
420,1436376220733,48.6241525023072
421,1436376221463,42.975981197923
422,1436376222179,74.3093892059536
423,1436376222801,38.2882710293196
424,1436376223497,35.4470911010158
425,1436376224204,71.6286954493206
426,1436376224924,71.7886380173503
427,1436376225649,22.3024525199194
428,1436376226362,57.4243132595906
429,1436376227060,52.3604131528541
430,1436376227789,55.4227910351664
431,1436376228509,76.8697342567928
432,1436376229242,69.0611479803253
433,1436376230006,59.0559906496046
434,1436376230735,68.3703283340232
435,1436376231481,49.2932489739408
436,1436376232154,69.1645157991534
437,1436376232821,44.411884341516
438,1436376233461,51.8765300769144
439,1436376234189,22.5996646334677
440,1436376234938,61.1126033507039
441,1436376235637,41.0802613282137
442,1436376236275,29.1237971617302
443,1436376236956,53.8161098572378
444,1436376237696,36.1967674173304
445,1436376238436,38.5779582681695
446,1436376239164,25.4654546696837
447,1436376239900,55.0379700392368
448,1436376240636,38.3464575472734
449,1436376241365,48.083136896519
450,1436376242105,60.5414172023764
451,1436376242823,57.4776365782497
452,1436376243510,63.3482077618694
453,1436376244195,72.2896290234015
454,1436376244934,27.1472580381761
455,1436376245630,55.3177904111836
456,1436376246304,67.726433856878
457,1436376247046,39.0270071464431
458,1436376247764,37.9048363641321
459,1436376248497,59.6060127157415
460,1436376249221,29.1504173423205
461,1436376249964,25.6891140210949
462,1436376250684,77.2885356190253
463,1436376251415,76.4365244013181
464,1436376252126,72.626384272447
465,1436376252807,75.550619841348
466,1436376253545,71.95975479688
467,1436376254215,41.5870124300708
468,1436376254942,63.3324103696743
469,1436376255765,56.7405069712193
470,1436376256507,33.5675952910362
471,1436376257231,36.537173755702
472,1436376257955,67.6667967106682
473,1436376258681,49.2677073059627
474,1436376259428,26.8907225130161
475,1436376261365,16.223692303286
476,1436376262030,19.200603165626
477,1436376262730,15.0227261742139
478,1436376263447,21.6545019411107
479,1436376264126,70.4541882957243
480,1436376264833,72.182958209952
481,1436376265550,52.6530649616981
482,1436376266282,41.4830744572315
483,1436376267017,47.8647154922939
484,1436376267766,42.6424390053827
485,1436376268506,65.0787207323426
486,1436376269233,28.8743269677256
487,1436376269972,53.6745904510321
488,1436376270703,28.6609063094454
489,1436376271421,24.2911256688304
490,1436376272179,23.0288891067287
491,1436376272894,67.2886212380179
492,1436376273629,28.1929863651511
493,1436376274289,18.5781502767847
494,1436376274995,27.6846518244394
495,1436376275729,21.4262201038074
496,1436376276386,41.5216769735355
497,1436376277083,22.2385320370094
498,1436376277745,70.0725775154826
499,1436376279583,17.7334723489902
500,1436376280287,15.9119643970238
501,1436376281010,15.2493252526177
502,1436376281691,14.545588657798
503,1436376282371,15.7492800002475
504,1436376283126,18.2289239794518
505,1436376283844,18.3598320968115
506,1436376284546,16.5060486924386
507,1436376285238,20.0463302771923
508,1436376285967,33.8622197476332
509,1436376286666,38.1562862827119
510,1436376287343,45.4662443294428
511,1436376288080,25.0304738327731
512,1436376288799,17.1691605687177
513,1436376289481,24.181502366386
514,1436376290182,15.5757893637834
515,1436376290920,15.8433975480268
516,1436376291780,14.7741372506374
517,1436376292451,15.2583156619142
518,1436376293162,64.5047711395676
519,1436376293890,55.7756867829231
520,1436376294641,43.7749877100056
521,1436376295281,52.3956087432565
522,1436376295979,17.2049557864746
523,1436376296718,17.132907109182
524,1436376297436,17.7669343295203
525,1436376298135,25.864147509369
526,1436376298869,24.1053448944818
527,1436376299613,15.8348850430427
528,1436376300393,22.8066124839862
529,1436376301122,72.5070814106559
530,1436376301840,74.7675141951304
531,1436376302565,75.624525766002
532,1436376303301,25.66630366294
533,1436376304021,69.0052922626696
534,1436376304751,58.2134936111151
535,1436376305391,39.1939797144165
536,1436376306139,15.1683420834715
537,1436376306873,53.178904444503
538,1436376307607,16.2216374457551
539,1436376308306,66.8342417990889
540,1436376308997,74.5293416858204
541,1436376310641,41.9942756672537
542,1436376311341,41.6922889698135
543,1436376311968,61.0131458610066
544,1436376312578,23.5304738551437
545,1436376313255,26.5367133144626
546,1436376313982,32.3372664038693
547,1436376314693,54.5604687237836
548,1436376315339,72.3495200310582
549,1436376316069,60.8766710178182
550,1436376316795,23.2873348578375
551,1436376317449,26.2650767704563
552,1436376318103,43.8229118494169
553,1436376318789,45.4078129323171
554,1436376319522,44.4685919665842
555,1436376320224,45.2991569798708
556,1436376320993,24.1111584652363
557,1436376321724,45.1123314707619
558,1436376322500,45.8897589123845
559,1436376323229,40.020264728993
560,1436376323944,21.5668812719817
561,1436376324675,21.610668191601
562,1436376325444,72.5771671600752
563,1436376326133,68.9745795424591
564,1436376326872,64.7807761806291
565,1436376328900,37.9028480145825
566,1436376329625,23.9479426789917
567,1436376330353,71.330359472892
568,1436376331080,72.7903315498461
569,1436376331847,43.2983468038561
570,1436376332543,28.3662943297057
571,1436376333284,39.1196286130567
572,1436376334020,65.7513665752116
573,1436376334762,58.719569658736
574,1436376335523,29.0249308031163
575,1436376336162,36.2453811386945
576,1436376336860,32.7053510734959
