id,attr_time,attr_db
1,1436375914033,25.9217379223568
2,1436375914758,26.954815428902
3,1436375915494,29.0370079644528
4,1436375916236,28.7003168993312
5,1436375917030,29.3012214537974
6,1436375917770,30.4309468647282
7,1436375918509,30.7083164488185
8,1436375919237,31.2824196678035
9,1436375919893,32.3489698855811
10,1436375920632,35.1083256947783
11,1436375921349,35.5323099426942
12,1436375922172,36.5694672014056
13,1436375922902,37.3213952693618
14,1436375923585,37.4336441158995
15,1436375924306,36.303507970739
16,1436375925029,41.4485686429355
17,1436375925718,50.2124017224426
18,1436375926419,39.595253022937
19,1436375927214,36.3961436019441
20,1436375927947,35.5907422581097
21,1436375928692,36.0354482432493
22,1436375929415,37.4838840856722
23,1436375930100,39.1276475616213
24,1436375930718,39.0992276520924
25,1436375931404,39.5289655736616
26,1436375932143,37.0522901478948
27,1436375932891,47.7337302507184
28,1436375933516,38.8006543113381
29,1436375934216,38.6516479981794
30,1436375934942,38.3334021433489
31,1436375935687,62.1689020724261
32,1436375936413,50.8710853479129
33,1436375937177,39.775936798714
34,1436375937897,55.0889352246361
35,1436375938628,42.9786695933425
36,1436375939367,50.7959927566271
37,1436375940125,62.0227595659872
38,1436375940788,37.0958852231935
39,1436375941540,37.5706670516049
40,1436375942339,36.4000230608854
41,1436375943116,36.857346481935
42,1436375943841,36.6975504873466
43,1436375944556,64.6365270577012
44,1436375945284,52.8809550949882
45,1436375946007,43.8086977373435
46,1436375946769,46.9578591128795
47,1436375947487,54.9844431300423
48,1436375948226,54.5406342359293
49,1436375948957,40.4158571343601
50,1436375949694,68.0261341016347
51,1436375950409,33.1602355511496
52,1436375951036,58.678995335582
53,1436375951845,41.3716394947237
54,1436375952568,30.5208701339799
55,1436375953320,28.4303876507143
56,1436375954100,59.1500036982527
57,1436375954780,52.4275168537262
58,1436375955511,29.6448407685088
59,1436375956255,27.8359399931769
60,1436375957003,28.5370983546435
61,1436375957729,26.2346326853784
62,1436375958470,26.7722748052956
63,1436375959199,38.1962609347966
64,1436375959944,50.8746008521936
65,1436375960675,55.097810470286
66,1436375961335,27.3056004226347
67,1436375962119,31.4273841925471
68,1436375962872,25.6857473998287
69,1436375963596,58.5670181913084
70,1436375964310,33.7778565936873
71,1436375964985,27.2997620834728
72,1436375965705,57.5691270784714
73,1436375966439,58.5521336946754
74,1436375967149,67.9950905720363
75,1436375967882,64.3043277368902
76,1436375968629,25.4429156663835
77,1436375969359,25.6258557336254
78,1436375970092,66.4685143942131
79,1436375970791,23.0712100838981
80,1436375971432,24.0274018573126
81,1436375972110,49.5147884361136
82,1436375972853,60.2002763195257
83,1436375973584,68.6268193017883
84,1436375974319,64.6434124184944
85,1436375976365,46.3878645475829
86,1436375977114,56.3367883604351
87,1436375977847,25.7336832400403
88,1436375978579,22.3153553171633
89,1436375979302,21.5004676703278
90,1436375980037,56.6694965446149
91,1436375980751,61.2022019048183
92,1436375981455,50.3763326390056
93,1436375982199,63.7646678796542
94,1436375982982,31.5871434791163
95,1436375983706,72.3947123503784
96,1436375984425,62.51244582839
97,1436375985153,68.135889136164
98,1436375985927,56.1436688792903
99,1436375987774,63.2202595743671
100,1436375988482,32.8224513044497
101,1436375989222,31.9716649378458
102,1436375989956,47.2508162806645
103,1436375990731,39.9863948383233
104,1436375991400,52.1455254575396
105,1436375992035,44.3807132444111
106,1436375992695,37.8707390792792
107,1436375993362,43.9516187854589
108,1436375993982,35.0922134340697
109,1436375994629,35.6029991215314
110,1436375995229,39.3243369282256
111,1436375995868,37.6007558477105
112,1436375996584,39.55915507122
113,1436375997309,44.6278062979111
114,1436375998055,41.2134335196482
115,1436375998792,39.5324835087403
116,1436375999501,40.2726648695904
117,1436376001396,53.2297899216413
118,1436376002146,42.2770034310222
119,1436376002870,44.661500194218
120,1436376003625,45.7317374500661
121,1436376004353,57.8223488660199
122,1436376005079,50.0911734257672
123,1436376005813,67.3583560417296
124,1436376006585,50.9030902719508
125,1436376007318,62.6323203256577
126,1436376008063,48.8527218226355
127,1436376008775,46.6564659781504
128,1436376010485,48.214064723145
129,1436376011177,50.2052202019858
130,1436376011895,56.6202881707442
131,1436376012652,51.4100265053169
132,1436376013239,55.3590457019324
133,1436376013934,61.4468157105795
134,1436376014661,58.2980376652188
135,1436376015385,48.030206349579
136,1436376016144,62.4264838270891
137,1436376016874,60.0440865584701
138,1436376017639,49.6805361480087
139,1436376018368,50.7625648524499
140,1436376019112,46.0333783075139
141,1436376019835,45.5390399660921
142,1436376020568,47.7918208718796
143,1436376021258,43.9379486602481
144,1436376021924,47.1883356535551
145,1436376022653,46.9785581144324
146,1436376023383,44.995292954242
147,1436376024087,47.4268743577624
148,1436376024764,54.6902719888554
149,1436376025494,62.769599119962
150,1436376026206,47.2287209580929
151,1436376026959,50.064290164623
152,1436376027686,47.1975214050598
153,1436376028400,46.2580685792458
154,1436376029139,48.2045627995618
155,1436376029857,49.0710044043139
156,1436376030584,47.8340120455519
157,1436376031329,52.0464452334459
158,1436376032057,45.9806035672856
159,1436376032795,45.5721776506835
160,1436376033535,46.4905772131897
161,1436376034254,60.1150748932182
162,1436376034964,47.5340796108598
163,1436376035695,45.290188160015
164,1436376036448,47.7224811066319
165,1436376037216,44.7947012101883
166,1436376037937,62.2618744178759
167,1436376038690,46.4384925082068
168,1436376039418,37.0073167282383
169,1436376040148,35.7448254679234
170,1436376040872,32.6833930792631
171,1436376041589,31.3442814577985
172,1436376042329,58.0984742658017
173,1436376043080,42.3182888917634
174,1436376043808,33.7616486311265
175,1436376044544,31.9916714883426
176,1436376045659,33.3276270949643
177,1436376046299,62.8227725054527
178,1436376047054,36.8671007246223
179,1436376047777,35.5243883604303
180,1436376048510,42.1028060067042
181,1436376049210,33.9469034454837
182,1436376049916,31.0723982179173
183,1436376050638,39.3981148917807
184,1436376051356,32.8852220915342
185,1436376052099,65.4830267980028
186,1436376052844,55.5868359753487
187,1436376053573,69.4521741939333
188,1436376054292,64.5419577913425
189,1436376055042,64.8854583465187
190,1436376055712,62.9146444388544
191,1436376056455,47.1064638105906
192,1436376057194,59.972718561965
193,1436376057965,55.534962603022
194,1436376058673,53.2247164225741
195,1436376059397,41.2646123253324
196,1436376060124,23.4039965076844
197,1436376060858,25.1839129574543
198,1436376061475,19.8822629406397
199,1436376062177,23.3640212545743
200,1436376062908,20.4743658926403
201,1436376063647,21.800835496629
202,1436376064371,25.7574587441151
203,1436376065151,21.317975853863
204,1436376065871,29.1912317146697
205,1436376066594,27.9865010368119
206,1436376067329,34.2720900847296
207,1436376068099,27.217720026558
208,1436376068847,22.518149789526
209,1436376069565,24.290622245749
210,1436376070292,26.5724365565114
211,1436376071017,25.6815925842979
212,1436376071759,24.8856999668707
213,1436376072545,27.776701267136
214,1436376073257,48.4592608420392
215,1436376073984,42.398324257386
216,1436376074707,54.8552428619915
217,1436376075382,41.5095730028874
218,1436376076098,37.5180152517503
219,1436376076796,51.0175323725559
220,1436376077502,52.1337340071724
221,1436376078237,56.3061130147374
222,1436376078984,39.3058871268688
223,1436376079723,49.0807156818633
224,1436376080468,39.881986511273
225,1436376081188,48.9359782153561
226,1436376081915,30.6776281251024
227,1436376082669,53.6931748606063
228,1436376083416,66.4180857481918
229,1436376084208,35.0426052386438
230,1436376084969,46.092387078027
231,1436376085670,54.2142764057925
232,1436376086388,54.7009226866247
233,1436376087183,55.9692018544144
234,1436376087939,32.1354822943628
235,1436376088675,29.9600681587471
236,1436376089403,30.1833478709741
237,1436376090141,40.3104272394261
238,1436376090851,57.4810802928609
239,1436376091578,43.3333462157736
240,1436376092364,48.9175589030322
241,1436376093111,49.8378985950429
242,1436376093850,33.3039218782312
243,1436376094587,24.9023626665241
244,1436376095304,32.8722469742789
245,1436376095952,24.9181756089892
246,1436376096671,55.2862903833372
247,1436376097412,48.0775549203427
248,1436376098176,47.8177304148346
249,1436376098919,38.4425622984912
250,1436376099600,23.1900349525656
251,1436376100306,54.270537466097
252,1436376101031,35.5247126233037
253,1436376101779,43.8033807069263
254,1436376102509,50.1249326301401
255,1436376103244,28.3308199270972
256,1436376103970,27.4524974679649
257,1436376104690,35.2797251703392
258,1436376105420,36.544027870902
259,1436376106127,35.4167759364571
260,1436376106863,31.1243571583538
261,1436376107580,33.4448018138635
262,1436376108338,33.4914945130857
263,1436376109081,31.965737808759
264,1436376109851,57.7319348873279
265,1436376110562,52.2785400230674
266,1436376111285,37.2123428502346
267,1436376111921,58.7513124582598
268,1436376112658,62.1977774264404
269,1436376113374,58.0556601004599
270,1436376114109,45.8805371166048
271,1436376114859,47.1784533562691
272,1436376115576,55.6938047031521
273,1436376116243,58.4163721193641
274,1436376116990,57.0995152751148
275,1436376117717,67.6169003781314
276,1436376118474,61.4225448470496
277,1436376119203,55.6503608467529
278,1436376119942,46.7703847727591
279,1436376120690,55.6312124840627
280,1436376121416,47.8498839125212
281,1436376122163,55.0354883358705
282,1436376122817,64.7506206552945
283,1436376123544,60.7924300064854
284,1436376124273,51.0374730499647
285,1436376125025,35.2234879650187
286,1436376125760,54.8116185979879
287,1436376126508,54.4055609461531
288,1436376127224,61.112660318274
289,1436376127953,64.3105240066152
290,1436376128687,47.1606980267919
291,1436376129424,60.3926612068333
292,1436376130152,62.4549365553018
293,1436376130920,33.2723495119974
294,1436376131673,35.6180507614387
295,1436376132398,29.6327450501193
296,1436376133067,30.7359215724065
297,1436376133789,29.1514935351594
298,1436376134546,28.2151366295605
299,1436376135236,26.4280965618199
300,1436376135934,26.2777734921622
301,1436376136677,26.8112017649877
302,1436376137415,27.7930156000757
303,1436376138162,26.2313883445954
304,1436376138893,28.0717750561677
305,1436376139608,30.7442707967367
306,1436376140336,32.1795710894096
307,1436376141072,32.0870670516995
308,1436376141794,33.2546283282613
309,1436376142549,35.1830184331183
310,1436376143233,33.387213116166
311,1436376143893,35.6948425731196
312,1436376144635,40.8810012184999
313,1436376145397,41.4420385026549
314,1436376146168,36.036441956079
315,1436376146882,33.8396918165151
316,1436376147643,31.2263193629302
317,1436376148385,30.1301482100152
318,1436376149134,55.3902918985897
319,1436376149868,29.1894006630133
320,1436376150589,30.3813474559581
321,1436376151319,32.05920288637
322,1436376152053,31.315452287627
323,1436376152802,33.5748163195552
324,1436376153499,28.1654157701673
325,1436376154163,25.8494184529533
326,1436376154909,25.8971013737281
327,1436376155614,25.4829701032166
328,1436376156243,24.7373280753065
329,1436376156979,22.1189868879129
330,1436376157721,24.2889155326447
331,1436376158462,20.8722885198894
332,1436376159221,27.8419469755343
333,1436376159950,20.0000644813656
334,1436376160673,26.4789370962141
335,1436376161388,22.2778625402155
336,1436376162123,21.666230302826
337,1436376162872,34.3441626294989
338,1436376163537,19.3264177661556
339,1436376164214,28.361511390959
340,1436376164966,29.885156361678
341,1436376165695,23.9040341559505
342,1436376166406,24.1938362366942
343,1436376167010,21.0728865359431
344,1436376167669,20.2818796921615
345,1436376168375,21.4466390368079
346,1436376169102,24.1039142522577
347,1436376169837,45.7212073018755
348,1436376170548,42.4407000896946
349,1436376171258,50.9290450845413
350,1436376172017,58.353979254645
351,1436376172809,38.0943032520823
352,1436376173490,41.9573312840558
353,1436376174142,32.2382136808021
354,1436376174880,44.9175727901159
355,1436376175557,32.8124187257864
356,1436376176283,60.9222593824485
357,1436376177060,47.1564474636786
358,1436376177721,60.7641716720394
359,1436376178431,40.6593551114904
360,1436376180399,24.2940352984914
361,1436376181142,27.5666442247313
362,1436376181910,50.5036704381005
363,1436376182634,58.5883439684199
364,1436376183365,67.426913022906
365,1436376184066,26.196683155329
366,1436376184728,67.5744419888226
367,1436376185451,54.6705981456572
368,1436376186196,61.8726501989036
369,1436376187035,27.480906468339
370,1436376187758,18.7805945197061
371,1436376188473,17.2764278400998
372,1436376189187,42.8382727103869
373,1436376189920,58.8686689045265
374,1436376190652,21.5091937271775
375,1436376191372,62.6360885619358
376,1436376192154,68.9370350267969
377,1436376192874,50.5757146033455
378,1436376193605,39.8480506304615
379,1436376194334,64.5377563169196
380,1436376195957,26.7290451951616
381,1436376196642,19.5242671192721
382,1436376197384,43.1036129678985
383,1436376198108,66.8937227492514
384,1436376198694,48.7884322980074
385,1436376199365,74.9190214083564
386,1436376200098,61.3480108970371
387,1436376200820,36.029669097236
388,1436376201541,20.7763265278677
389,1436376202281,19.9694051299931
390,1436376203048,61.0901469253496
391,1436376203781,49.7892142706411
392,1436376204519,29.2654699539364
393,1436376205232,61.4199523254775
394,1436376206035,26.0579453939615
395,1436376206771,59.2927557605584
396,1436376207499,28.2378478737866
397,1436376208232,43.4805959815486
398,1436376209039,53.3464191074567
399,1436376209775,31.3308378771102
400,1436376210497,58.2979268143238
401,1436376211215,44.2904096092509
402,1436376211952,61.7896750116638
403,1436376212691,38.8545947194382
404,1436376213439,33.7589641691485
405,1436376214135,32.2506178615701
406,1436376214803,71.9791022408623
407,1436376215524,64.0458969360547
408,1436376216189,47.2098766422693
409,1436376217635,38.8667546576684
410,1436376218301,71.1190789716584
411,1436376219018,55.9117825573252
412,1436376219756,29.245405673446
413,1436376220488,49.9430313010455
414,1436376221224,47.9681158703748
415,1436376221961,37.9911012438612
416,1436376222706,44.1304333070843
417,1436376223427,54.3342284787049
418,1436376224168,48.7722518635929
419,1436376224890,71.6417124844765
420,1436376225560,42.8946520627344
421,1436376226301,37.9122241681942
422,1436376227060,59.8517966824988
423,1436376227791,49.8017778971931
424,1436376228541,40.2832787878138
425,1436376229225,66.0596296782498
426,1436376230567,67.2155919212725
427,1436376231288,46.1815058664543
428,1436376232012,58.7384107786222
429,1436376232731,41.4583903442995
430,1436376233450,27.9241705325407
431,1436376234192,26.6248274772262
432,1436376234904,65.1222835450582
433,1436376235560,43.2962093112241
434,1436376236262,58.5903405951089
435,1436376237022,66.2087904852701
436,1436376237750,51.4337184389284
437,1436376238469,24.0500564583346
438,1436376239158,44.0254908835824
439,1436376239829,62.407637011244
440,1436376240533,32.4552186608034
441,1436376241260,40.4885980240626
442,1436376242021,27.1382241570668
443,1436376242785,41.9448928039344
444,1436376243501,35.4276146511809
445,1436376244212,36.8693892063482
446,1436376244930,36.6660735856186
447,1436376245619,35.0720344791888
448,1436376246326,61.7227944042367
449,1436376247070,29.9025581202532
450,1436376247787,59.5731538705887
451,1436376248522,66.6547654430387
452,1436376249270,47.1088330441195
453,1436376250004,24.5450648850527
454,1436376250690,60.1682796457845
455,1436376251298,67.6227404147886
456,1436376252001,37.7191602063418
457,1436376252733,61.8976005899846
458,1436376253493,66.5933700547453
459,1436376254228,48.2080276854509
460,1436376254960,58.9031904312146
461,1436376255689,56.7095184256151
462,1436376256305,60.0261241541131
463,1436376257070,37.1981024958309
464,1436376257829,48.2119701240427
465,1436376258540,30.2776355235972
466,1436376259229,36.9117234628447
467,1436376259931,25.8694321659144
468,1436376260662,34.342469723938
469,1436376261392,16.6955771161795
470,1436376262117,16.9011298115091
471,1436376262863,17.2089605345491
472,1436376263578,19.2693898064347
473,1436376264304,59.9645283415039
474,1436376265045,58.0406850243959
475,1436376265801,37.8203919389598
476,1436376266463,31.4213071034072
477,1436376267181,50.2959488081595
478,1436376267965,42.5645996773908
479,1436376268702,33.1244349569625
480,1436376269415,26.7773738175919
481,1436376270221,37.6409138612522
482,1436376270934,28.675681154471
483,1436376271676,20.7343726781194
484,1436376272406,21.7441577581223
485,1436376273152,42.1799770262412
486,1436376273887,23.2208168249591
487,1436376274633,17.979297008346
488,1436376275357,24.7841893412403
489,1436376276113,35.5589983928205
490,1436376276734,33.0539215379181
491,1436376277449,19.6793282168524
492,1436376278172,51.7754190136506
493,1436376278949,20.6034037840249
494,1436376279681,18.2871573545715
495,1436376280398,22.5760939883363
496,1436376281133,31.3128776971461
497,1436376281851,19.0298514378033
498,1436376282617,15.9619097075167
499,1436376283359,18.2033281753589
500,1436376284108,18.4647546446509
501,1436376284829,18.5337099309155
502,1436376285581,18.6560150575217
503,1436376286308,23.3412076637614
504,1436376287013,31.3613075598855
505,1436376287736,39.3072467096706
506,1436376288431,16.8535030809038
507,1436376289174,16.077298953231
508,1436376289924,27.5334222509256
509,1436376290651,17.9876876011633
510,1436376291412,16.475545706478
511,1436376292145,15.5726514564759
512,1436376292870,16.1920534207144
513,1436376293600,67.5063406683404
514,1436376294353,55.375084316043
515,1436376295088,35.6723565335322
516,1436376295723,25.0029074053665
517,1436376296362,17.3783703286328
518,1436376297099,15.638943392577
519,1436376297814,16.2996719332523
520,1436376298553,17.7950772281896
521,1436376299293,17.7157930440747
522,1436376300058,15.8593817201037
523,1436376300784,62.1002786732493
524,1436376301460,65.0147306171873
525,1436376302204,48.580294400716
526,1436376302947,47.906718532896
527,1436376303659,60.8446647864922
528,1436376304382,61.3641445249601
529,1436376305106,44.0101998300496
530,1436376305838,18.453146664353
531,1436376306556,25.7759521021443
532,1436376307248,47.1790868172907
533,1436376307907,30.2103834585135
534,1436376308625,63.2177729886234
535,1436376309350,44.9545251706006
536,1436376310084,21.4099314331909
537,1436376310845,46.2859264264197
538,1436376311471,38.8596578004995
539,1436376312191,62.2268873032661
540,1436376312925,35.0532565683189
541,1436376313655,63.416935437141
542,1436376314381,50.8010972624107
543,1436376315116,40.0164560325014
544,1436376315822,42.9429841649692
545,1436376316619,28.0078718201179
546,1436376317209,43.7431258504984
547,1436376317893,41.6783718582412
548,1436376318622,42.3290726244548
549,1436376319358,40.2135742628856
550,1436376320087,42.7330303188452
551,1436376320791,46.2382486290012
552,1436376321508,55.1065284956521
553,1436376322278,50.1608781961173
554,1436376322998,38.6863182388961
555,1436376323728,22.405482472554
556,1436376324459,21.7378705453187
557,1436376325179,60.0344770795926
558,1436376325916,55.4128670177647
559,1436376326658,48.8363439717627
560,1436376327346,68.0773561296731
561,1436376327985,57.6713216138886
562,1436376328680,60.1233571600627
563,1436376329387,31.3347829337744
564,1436376330121,69.4816513212375
565,1436376330834,57.818785614402
566,1436376331509,48.3276327944272
567,1436376332251,36.7430359129467
568,1436376333039,50.6658183819332
569,1436376333732,43.0413577194351
570,1436376334466,55.8498846582201
571,1436376335202,53.4785188869818
572,1436376335935,30.1091484013244
573,1436376336663,31.2093852288351
574,1436376337277,30.1497395733981
575,1436376337970,30.6207503820527
