id,attr_time,attr_x,attr_y,attr_z
1,1436890975231,29.164,-27.867,-12.834
2,1436890975251,29.164,-27.867,-12.834
3,1436890975271,29.164,-27.867,-12.834
4,1436890975292,29.164,-27.867,-12.834
5,1436890975312,29.164,-27.867,-12.834
6,1436890975331,29.164,-27.867,-12.834
7,1436890975351,29.164,-27.867,-12.834
8,1436890975372,29.164,-27.867,-12.834
9,1436890975391,29.164,-27.867,-12.834
10,1436890975410,29.164,-27.867,-12.834
11,1436890975460,29.164,-27.867,-12.834
12,1436890975463,29.164,-27.867,-12.834
13,1436890975476,29.164,-27.867,-12.834
14,1436890975503,29.164,-27.867,-13.145
15,1436890975509,29.164,-27.867,-13.145
16,1436890975530,29.164,-27.867,-13.145
17,1436890975549,29.164,-27.867,-13.145
18,1436890975569,29.164,-27.867,-13.145
19,1436890975589,29.164,-27.566,-13.145
20,1436890975610,29.164,-27.566,-13.145
21,1436890975628,29.164,-27.566,-13.145
22,1436890975652,29.164,-27.566,-13.145
23,1436890975670,29.164,-27.566,-13.145
24,1436890975692,29.164,-27.566,-13.145
25,1436890975712,29.164,-27.566,-13.145
26,1436890975732,29.164,-27.566,-13.145
27,1436890975752,29.164,-27.566,-13.145
28,1436890975772,29.164,-27.566,-13.145
29,1436890975792,29.164,-27.566,-13.145
30,1436890975812,29.164,-27.566,-13.145
31,1436890975833,29.164,-27.566,-13.145
32,1436890975853,29.164,-27.566,-13.145
33,1436890975870,29.164,-27.566,-13.145
34,1436890975890,29.524,-27.566,-13.145
35,1436890975937,29.524,-27.566,-13.145
36,1436890975938,29.524,-27.566,-13.145
37,1436890975949,29.524,-27.566,-13.145
38,1436890975969,29.524,-27.566,-13.145
39,1436890975989,29.524,-27.566,-13.145
40,1436890976010,29.847,-27.566,-13.145
41,1436890976029,29.847,-27.566,-13.145
42,1436890976052,29.847,-27.566,-13.145
43,1436890976072,29.847,-27.566,-13.145
44,1436890976092,29.847,-27.566,-13.145
45,1436890976111,29.847,-27.566,-13.145
46,1436890976130,29.847,-27.566,-13.145
47,1436890976152,29.847,-27.566,-13.145
48,1436890976173,29.847,-27.566,-13.145
49,1436890976192,29.847,-27.566,-13.145
50,1436890976214,29.847,-27.566,-13.145
51,1436890976233,29.847,-27.262,-13.145
52,1436890976252,29.847,-27.262,-13.464
53,1436890976272,29.847,-27.262,-13.464
54,1436890976292,29.847,-27.262,-13.464
55,1436890976313,29.847,-27.262,-13.464
56,1436890976333,29.847,-27.262,-13.464
57,1436890976353,29.847,-27.262,-13.464
58,1436890976370,29.847,-27.262,-13.464
59,1436890976390,29.847,-27.262,-13.464
60,1436890976438,29.847,-27.262,-13.464
61,1436890976439,29.847,-27.262,-13.464
62,1436890976456,29.847,-27.262,-13.464
63,1436890976472,29.847,-27.262,-13.464
64,1436890976490,29.847,-27.262,-13.464
65,1436890976509,29.847,-27.262,-13.464
66,1436890976532,29.847,-27.262,-13.464
67,1436890976550,29.847,-27.262,-13.464
68,1436890976571,29.847,-27.262,-13.464
69,1436890976591,29.847,-27.262,-13.464
70,1436890976611,29.847,-27.262,-13.464
71,1436890976631,29.847,-27.262,-13.464
72,1436890976652,29.847,-27.262,-13.464
73,1436890976673,29.847,-26.951,-13.464
74,1436890976693,29.847,-26.951,-13.464
75,1436890976713,29.847,-26.951,-13.464
76,1436890976731,29.847,-26.951,-13.464
77,1436890976751,29.847,-26.951,-13.464
78,1436890976773,29.847,-26.951,-13.464
79,1436890976793,29.847,-26.951,-13.464
80,1436890976813,29.847,-26.951,-13.464
81,1436890976833,29.847,-26.951,-13.464
82,1436890976852,29.847,-26.951,-13.464
83,1436890976876,29.847,-26.951,-13.464
84,1436890976937,29.847,-26.951,-13.464
85,1436890976945,29.847,-26.951,-13.464
86,1436890976946,29.847,-26.951,-13.464
87,1436890976951,29.847,-26.951,-13.464
88,1436890976973,29.847,-26.951,-13.464
89,1436890976990,30.184,-27.288,-13.464
90,1436890977010,30.184,-27.288,-13.464
91,1436890977034,30.184,-27.288,-13.464
92,1436890977052,30.184,-27.288,-13.464
93,1436890977077,30.184,-27.288,-13.464
94,1436890977091,30.184,-27.288,-13.464
95,1436890977112,30.184,-27.288,-13.464
96,1436890977158,30.184,-27.288,-13.464
97,1436890977159,30.184,-27.288,-13.464
98,1436890977170,30.184,-27.288,-13.464
99,1436890977190,30.184,-27.288,-13.464
100,1436890977210,30.184,-27.288,-13.464
101,1436890977230,30.184,-27.288,-13.464
102,1436890977251,30.184,-27.288,-13.464
103,1436890977273,30.184,-27.288,-13.464
104,1436890977291,30.184,-27.288,-13.464
105,1436890977311,30.184,-27.288,-13.464
106,1436890977331,30.184,-27.288,-13.464
107,1436890977351,30.184,-27.288,-13.464
108,1436890977371,30.184,-27.288,-13.464
109,1436890977416,30.184,-27.288,-13.818
110,1436890977417,30.184,-27.629,-13.818
111,1436890977438,30.184,-27.629,-13.818
112,1436890977467,30.184,-27.629,-13.818
113,1436890977470,30.184,-27.629,-13.818
114,1436890977490,29.858,-27.629,-13.818
115,1436890977512,29.858,-27.629,-13.818
116,1436890977531,29.858,-27.931,-13.818
117,1436890977561,29.858,-27.931,-13.818
118,1436890977610,29.858,-27.931,-13.818
119,1436890977611,29.858,-27.931,-13.818
120,1436890977612,29.858,-27.931,-13.818
121,1436890977632,29.521,-27.931,-13.818
122,1436890977650,29.521,-27.931,-13.818
123,1436890977670,29.521,-28.262,-13.818
124,1436890977690,29.521,-28.262,-13.491
125,1436890977710,29.147,-28.262,-13.491
126,1436890977730,29.147,-28.262,-13.491
127,1436890977750,29.147,-28.262,-13.491
128,1436890977770,29.147,-28.262,-13.491
129,1436890977790,28.773,-28.262,-13.491
130,1436890977810,28.773,-28.262,-13.491
131,1436890977830,28.773,-28.262,-13.143
132,1436890977853,28.773,-28.262,-13.143
133,1436890977874,28.456,-28.262,-13.143
134,1436890977890,28.456,-28.262,-13.143
135,1436890977910,28.456,-28.262,-13.143
136,1436890977930,28.456,-28.262,-13.143
137,1436890977951,28.456,-28.262,-13.143
138,1436890977971,28.123,-28.262,-13.143
139,1436890977991,28.123,-28.262,-13.143
140,1436890978011,28.123,-28.262,-13.143
141,1436890978032,28.123,-28.262,-13.143
142,1436890978051,28.123,-28.262,-13.143
143,1436890978071,28.123,-28.262,-13.143
144,1436890978091,28.123,-28.262,-13.143
145,1436890978113,28.123,-28.262,-13.143
146,1436890978132,28.431,-28.262,-13.143
147,1436890978155,28.431,-28.262,-13.143
148,1436890978171,28.431,-28.262,-13.143
149,1436890978192,28.431,-28.262,-13.143
150,1436890978212,28.431,-28.262,-13.143
151,1436890978231,28.431,-28.262,-13.143
152,1436890978251,28.431,-28.262,-13.143
153,1436890978271,28.431,-28.262,-13.143
154,1436890979733,28.431,-28.262,-13.143
155,1436890979734,28.431,-28.262,-13.143
156,1436890979735,28.431,-28.262,-13.143
157,1436890979736,28.431,-28.262,-13.143
158,1436890979737,28.431,-28.262,-13.143
159,1436890979738,28.431,-28.262,-13.143
160,1436890979739,28.431,-28.262,-13.143
161,1436890979740,28.431,-28.262,-13.143
162,1436890979741,28.431,-28.262,-13.143
163,1436890979742,28.431,-28.262,-13.143
164,1436890979743,28.431,-28.262,-13.143
165,1436890979744,28.431,-28.262,-13.143
166,1436890979745,28.431,-28.262,-13.143
167,1436890979746,28.431,-28.262,-13.143
168,1436890979747,28.793,-28.262,-13.143
169,1436890979748,28.793,-28.262,-13.143
170,1436890979749,28.793,-28.262,-13.143
171,1436890979750,28.793,-28.569,-12.834
172,1436890979751,28.793,-28.569,-12.834
173,1436890979752,29.122,-28.569,-12.834
174,1436890979753,29.122,-28.569,-12.834
175,1436890979754,29.122,-28.569,-12.834
176,1436890979755,29.122,-28.569,-12.834
177,1436890979756,29.122,-28.569,-12.834
178,1436890979757,29.122,-28.569,-12.834
179,1436890979758,29.122,-28.569,-12.834
180,1436890979759,29.122,-28.569,-12.834
181,1436890979760,29.122,-28.569,-12.834
182,1436890979761,29.122,-28.569,-12.834
183,1436890979762,29.122,-28.569,-12.834
184,1436890979763,29.122,-28.569,-12.834
185,1436890979764,29.122,-28.569,-12.834
186,1436890979765,29.122,-28.569,-12.834
187,1436890979766,29.122,-28.569,-12.834
188,1436890979767,29.122,-28.569,-12.834
189,1436890979768,29.122,-28.569,-12.834
190,1436890979769,29.122,-28.569,-12.834
191,1436890979770,29.122,-28.569,-12.834
192,1436890979771,29.122,-28.266,-12.834
193,1436890979772,29.122,-28.266,-12.834
194,1436890979773,29.122,-28.266,-12.834
195,1436890979774,29.122,-28.266,-12.834
196,1436890979775,29.122,-28.266,-12.834
197,1436890979776,29.122,-28.266,-12.834
198,1436890979777,29.122,-28.266,-12.834
199,1436890979778,29.122,-28.266,-12.834
200,1436890979779,29.122,-28.266,-12.834
201,1436890979780,29.461,-28.266,-12.834
202,1436890979781,29.461,-28.266,-12.834
203,1436890979782,29.461,-28.266,-12.834
204,1436890979783,29.461,-28.266,-12.834
205,1436890979784,29.461,-28.266,-12.834
206,1436890979785,29.461,-28.266,-12.834
207,1436890979786,29.766,-28.266,-12.834
208,1436890979787,29.766,-28.266,-12.834
209,1436890979788,29.766,-28.266,-12.834
210,1436890979789,29.766,-28.266,-12.834
211,1436890979790,29.766,-28.266,-12.834
212,1436890979791,29.766,-28.266,-12.834
213,1436890979792,29.766,-28.266,-12.834
214,1436890979793,29.766,-28.266,-12.834
215,1436890979794,29.446,-28.266,-12.834
216,1436890979795,29.446,-28.266,-12.834
217,1436890979796,29.446,-28.266,-12.834
218,1436890979797,29.13,-28.266,-12.5
219,1436890979798,29.13,-28.266,-12.5
220,1436890979799,29.13,-28.648,-12.5
221,1436890979800,28.753,-28.648,-12.5
222,1436890979801,28.753,-29.202,-12.152
223,1436890979802,28.753,-29.615,-12.152
224,1436890979803,28.385,-29.615,-12.152
225,1436890979804,28.385,-30.229,-11.831
226,1436890979805,28.385,-30.229,-11.831
227,1436890979806,27.941,-30.795,-11.831
228,1436890979807,27.941,-30.795,-11.427
229,1436890979808,27.546,-30.795,-11.427
230,1436890979813,27.546,-30.795,-11.427
231,1436890979832,27.091,-30.795,-11.042
232,1436890979853,26.77,-30.795,-11.042
233,1436890979872,26.318,-31.176,-11.042
234,1436890979893,26.318,-31.176,-10.676
235,1436890979912,26.318,-31.509,-10.676
236,1436890979931,25.952,-31.509,-10.676
237,1436890979953,25.952,-31.509,-10.676
238,1436890979973,25.952,-31.864,-10.676
239,1436890979992,25.952,-31.864,-10.334
240,1436890980035,25.952,-31.864,-10.334
241,1436890980036,25.952,-32.199,-10.334
242,1436890980051,25.952,-32.199,-10.334
243,1436890980072,25.952,-32.199,-10.334
244,1436890980092,25.576,-32.583,-10.334
245,1436890980112,25.576,-32.583,-10.021
246,1436890980132,25.576,-32.583,-10.021
247,1436890980152,25.576,-32.583,-10.021
248,1436890980172,25.231,-32.911,-10.021
249,1436890980192,25.231,-32.911,-10.021
250,1436890980212,25.231,-32.911,-10.021
251,1436890980232,25.231,-32.911,-10.021
252,1436890980252,25.231,-32.911,-10.021
253,1436890980272,25.231,-32.911,-10.021
254,1436890980292,25.231,-33.253,-10.021
255,1436890980312,24.871,-33.253,-10.021
256,1436890980332,24.562,-33.253,-10.021
257,1436890980352,24.562,-33.253,-10.021
258,1436890980372,24.562,-33.253,-10.021
259,1436890980392,24.562,-33.253,-10.325
260,1436890980413,24.562,-33.572,-10.325
261,1436890980434,24.209,-33.572,-10.325
262,1436890980452,24.209,-33.572,-10.325
263,1436890980480,24.209,-33.572,-10.325
264,1436890980492,24.209,-33.572,-10.325
265,1436890980513,24.209,-33.572,-10.717
266,1436890980534,24.209,-33.572,-10.717
267,1436890980554,24.209,-33.572,-10.717
268,1436890980576,24.209,-33.572,-10.717
269,1436890980594,24.209,-33.572,-11.048
270,1436890980614,24.209,-33.572,-11.048
271,1436890980637,24.209,-33.572,-11.048
272,1436890980657,24.209,-33.572,-11.048
273,1436890980678,24.209,-33.572,-11.048
274,1436890980694,24.209,-33.572,-11.048
275,1436890980717,24.209,-33.572,-11.048
276,1436890980736,24.209,-33.572,-11.048
277,1436890980757,24.209,-33.572,-11.048
278,1436890980774,24.209,-33.917,-11.048
279,1436890980795,24.209,-33.917,-11.048
280,1436890980814,24.209,-33.917,-11.048
281,1436890980833,24.209,-33.917,-11.048
282,1436890980855,24.209,-34.257,-11.048
283,1436890980881,24.209,-34.257,-11.048
284,1436890980923,24.209,-34.257,-11.048
285,1436890980924,24.209,-34.576,-11.048
286,1436890980943,23.721,-34.576,-11.048
287,1436890980953,23.106,-34.999,-11.048
288,1436890980975,22.636,-35.449,-11.048
289,1436890980993,22.142,-35.449,-10.716
290,1436890981016,22.142,-36.001,-10.716
291,1436890981033,21.609,-36.001,-10.716
292,1436890981054,21.609,-36.389,-10.356
293,1436890981074,21.609,-36.389,-10.356
294,1436890981098,21.609,-36.389,-10.356
295,1436890981114,21.609,-36.389,-10.356
296,1436890981138,21.609,-36.746,-9.945
297,1436890981155,21.299,-36.746,-9.945
298,1436890981174,21.299,-36.746,-9.945
299,1436890981194,21.299,-36.746,-9.561
300,1436890981214,21.299,-36.746,-9.561
301,1436890981240,20.944,-36.746,-9.561
302,1436890981255,20.944,-36.746,-9.561
303,1436890981275,20.944,-36.746,-9.182
304,1436890981294,20.944,-36.746,-9.182
305,1436890981317,20.944,-36.746,-9.182
306,1436890981378,20.944,-36.746,-9.182
307,1436890981379,20.944,-36.746,-9.182
308,1436890981380,20.944,-36.746,-9.182
309,1436890981402,20.944,-36.746,-9.182
310,1436890981415,20.944,-36.746,-9.182
311,1436890981448,21.257,-36.746,-9.182
312,1436890981455,21.257,-36.746,-9.182
313,1436890981478,21.257,-36.746,-9.182
314,1436890981500,21.257,-36.746,-9.182
315,1436890981516,21.257,-36.746,-9.182
316,1436890981535,21.257,-36.746,-9.182
317,1436890981557,21.569,-36.746,-9.182
318,1436890981574,21.569,-36.746,-9.182
319,1436890981595,21.569,-36.746,-9.182
320,1436890981614,21.569,-36.746,-9.182
321,1436890981636,21.569,-36.746,-9.182
322,1436890981657,21.569,-36.746,-9.182
323,1436890981676,21.569,-37.078,-9.182
324,1436890981697,21.569,-37.078,-9.182
325,1436890981715,21.569,-37.078,-9.182
326,1436890981734,21.569,-37.078,-9.182
327,1436890981755,21.267,-37.078,-9.182
328,1436890981776,21.267,-37.078,-9.182
329,1436890981799,21.267,-37.078,-9.182
330,1436890981859,21.267,-37.078,-9.516
331,1436890981860,21.267,-37.078,-9.516
332,1436890981861,21.267,-36.738,-9.516
333,1436890981885,21.627,-36.738,-9.516
334,1436890981926,22.175,-36.738,-9.516
335,1436890981927,22.785,-36.399,-9.516
336,1436890981939,23.222,-36.399,-9.516
337,1436890981958,23.547,-36.399,-9.516
338,1436890981984,23.547,-35.966,-9.516
339,1436890981999,23.547,-35.966,-9.516
340,1436890982017,23.986,-35.966,-9.516
341,1436890982041,23.986,-35.609,-9.516
342,1436890982057,23.986,-35.609,-9.516
343,1436890982077,23.986,-35.609,-9.867
344,1436890982095,23.986,-35.609,-9.867
345,1436890982138,23.986,-35.287,-9.867
346,1436890982139,23.986,-35.287,-9.867
347,1436890982219,23.986,-35.287,-9.867
348,1436890982220,24.322,-35.287,-9.867
349,1436890982221,24.322,-34.916,-10.176
350,1436890982222,24.322,-34.916,-10.176
351,1436890982244,24.322,-34.916,-10.176
352,1436890982379,24.322,-34.916,-10.176
353,1436890982380,24.322,-34.916,-10.176
354,1436890982381,24.322,-34.561,-10.527
355,1436890982382,24.322,-34.561,-10.527
356,1436890982383,24.322,-34.561,-10.527
357,1436890982384,24.322,-34.561,-10.527
358,1436890982385,24.322,-34.561,-10.527
359,1436890982460,24.322,-34.561,-10.527
360,1436890982461,24.322,-34.561,-10.527
361,1436890982462,24.322,-34.22,-10.527
362,1436890982463,24.322,-34.22,-10.527
363,1436890982488,24.322,-34.22,-10.527
364,1436890982510,24.322,-34.22,-10.527
365,1436890982516,24.322,-33.848,-10.527
366,1436890982549,24.322,-33.848,-10.527
367,1436890982554,24.322,-33.848,-10.527
368,1436890982574,24.322,-33.848,-10.527
369,1436890982594,24.642,-33.546,-10.527
370,1436890982642,24.642,-33.546,-10.527
371,1436890982643,24.642,-33.546,-10.527
372,1436890982654,24.996,-33.189,-10.527
373,1436890982674,24.996,-33.189,-10.527
374,1436890982694,24.996,-33.189,-10.527
375,1436890982714,25.366,-32.746,-10.527
376,1436890982734,25.366,-32.746,-10.527
377,1436890982754,25.691,-32.746,-10.527
378,1436890982774,25.691,-32.363,-10.527
379,1436890982794,25.691,-32.363,-10.527
380,1436890982814,26.089,-32.363,-10.527
381,1436890982834,26.089,-32.026,-10.527
382,1436890982854,26.089,-32.026,-10.527
383,1436890982874,26.548,-32.026,-10.527
384,1436890982894,26.548,-32.026,-10.527
385,1436890982914,26.856,-31.62,-10.527
386,1436890982935,26.856,-31.62,-10.527
387,1436890982956,26.856,-31.288,-10.527
388,1436890982976,27.268,-31.288,-10.527
389,1436890982999,27.268,-30.944,-10.527
390,1436890983019,27.861,-30.944,-10.527
391,1436890983036,28.369,-30.563,-10.833
392,1436890983058,28.369,-30.113,-10.833
393,1436890983079,28.744,-29.57,-10.833
394,1436890983103,28.744,-29.072,-10.833
395,1436890983115,28.744,-28.723,-10.833
396,1436890983139,29.151,-28.723,-10.833
397,1436890983155,29.151,-28.402,-11.143
398,1436890983179,29.151,-28.402,-11.143
399,1436890983198,29.151,-28.402,-11.143
400,1436890983216,29.612,-28.402,-11.143
401,1436890983236,29.612,-28.402,-11.143
402,1436890983256,29.612,-28.402,-11.143
403,1436890983279,30.017,-28.402,-11.143
404,1436890983299,30.017,-28.402,-11.143
405,1436890983315,30.017,-28.031,-11.143
406,1436890983341,30.389,-28.031,-11.143
407,1436890983359,30.389,-28.031,-11.143
408,1436890983378,30.389,-28.031,-11.143
409,1436890983396,30.389,-28.031,-11.143
410,1436890983416,30.389,-28.031,-11.143
411,1436890983441,30.389,-28.031,-11.143
412,1436890983459,30.389,-28.031,-11.143
413,1436890983475,30.389,-28.031,-11.143
414,1436890983495,30.389,-28.031,-11.143
415,1436890983517,30.389,-28.393,-11.143
416,1436890983570,30.389,-28.393,-11.143
417,1436890983571,30.389,-28.393,-11.143
418,1436890983582,30.389,-28.393,-11.143
419,1436890983598,30.389,-28.709,-11.143
420,1436890983617,30.389,-28.709,-11.143
421,1436890983636,30.389,-28.709,-11.143
422,1436890983658,30.389,-28.709,-11.143
423,1436890983679,30.389,-28.709,-11.143
424,1436890983697,30.389,-28.709,-11.143
425,1436890983717,30.389,-28.709,-11.143
426,1436890983737,30.389,-28.709,-11.143
427,1436890983760,30.389,-28.709,-11.143
428,1436890983776,30.389,-28.709,-11.143
429,1436890983797,30.389,-28.709,-11.143
430,1436890983817,30.389,-28.709,-10.832
431,1436890983837,30.389,-28.709,-10.832
432,1436890983861,30.389,-28.381,-10.832
433,1436890983882,30.389,-28.381,-10.832
434,1436890983902,30.389,-28.381,-10.832
435,1436890983920,30.389,-28.381,-10.832
436,1436890983937,30.389,-28.381,-10.832
437,1436890983956,30.389,-28.059,-10.832
438,1436890983978,30.712,-28.059,-10.832
439,1436890984000,30.712,-28.059,-10.832
440,1436890984018,30.712,-28.059,-10.832
441,1436890984064,30.712,-28.059,-10.832
442,1436890984065,30.712,-28.059,-10.832
443,1436890984077,30.712,-28.059,-10.832
444,1436890984100,30.712,-28.059,-10.832
445,1436890984119,30.712,-28.059,-10.832
446,1436890984137,30.712,-28.059,-10.832
447,1436890984165,30.712,-27.706,-10.832
448,1436890984178,30.712,-27.706,-10.832
449,1436890984200,31.022,-27.706,-11.175
450,1436890984220,31.022,-27.706,-11.175
451,1436890984237,31.022,-27.337,-11.175
452,1436890984257,31.022,-27.337,-11.175
453,1436890984277,31.398,-27.337,-11.175
454,1436890984300,31.398,-26.89,-11.502
455,1436890984320,31.398,-26.89,-11.502
456,1436890984340,31.782,-26.89,-11.502
457,1436890984361,31.782,-26.53,-11.502
458,1436890984380,32.089,-26.53,-11.502
459,1436890984400,32.089,-26.53,-11.86
460,1436890984419,32.089,-26.53,-11.86
461,1436890984440,32.4,-26.162,-11.86
462,1436890984463,32.4,-26.162,-11.86
463,1436890984481,32.4,-26.162,-11.86
464,1436890984499,32.4,-26.162,-11.86
465,1436890984521,32.4,-26.162,-11.86
466,1436890984574,32.733,-26.162,-11.86
467,1436890984585,32.733,-26.162,-11.86
468,1436890984586,32.733,-26.162,-11.86
469,1436890984607,32.733,-26.162,-11.86
470,1436890984618,32.733,-26.162,-11.86
471,1436890984667,32.733,-26.162,-11.86
472,1436890984668,33.033,-26.519,-12.199
473,1436890984682,33.033,-26.519,-12.199
474,1436890984701,33.033,-26.519,-12.199
475,1436890984724,33.033,-26.885,-12.513
476,1436890984738,33.033,-26.885,-12.513
477,1436890984758,33.033,-26.885,-12.513
478,1436890984777,32.618,-27.194,-12.513
479,1436890984797,32.618,-27.194,-12.875
480,1436890984817,32.618,-27.194,-12.875
481,1436890984838,32.258,-27.194,-12.875
482,1436890984863,32.258,-27.555,-13.227
483,1436890984883,32.258,-27.555,-13.227
484,1436890984900,31.869,-27.555,-13.227
485,1436890984921,31.869,-27.555,-13.623
486,1436890984938,31.869,-27.92,-13.623
487,1436890984957,31.869,-27.92,-13.623
488,1436890984977,31.468,-27.92,-13.623
489,1436890984999,31.468,-27.92,-13.995
490,1436890985018,31.468,-28.224,-13.995
491,1436890985065,31.468,-28.224,-13.995
492,1436890985066,31.047,-28.224,-13.995
