id,attr_time,attr_x,attr_y,attr_z
1,1436967792027,45.9015,1.19934,-16.8793
2,1436967792048,45.9015,1.19934,-16.8793
3,1436967792067,46.4264,2.07825,-16.3742
4,1436967792087,45.5505,0.144958,-16.2064
5,1436967792106,45.5505,0.144958,-16.2064
6,1436967792125,45.9015,1.55029,-16.8793
7,1436967792146,46.077,1.37482,-18.0557
8,1436967792165,46.077,1.37482,-18.0557
9,1436967792186,46.077,3.13263,-15.7013
10,1436967792206,46.4264,2.07825,-17.0471
11,1436967792225,46.4264,2.07825,-17.0471
12,1436967792245,45.9015,0.495911,-15.5334
13,1436967792265,44.1498,-0.91095,-16.2064
14,1436967792284,44.1498,-0.91095,-16.2064
15,1436967792305,46.4264,1.37482,-17.0471
16,1436967792324,44.8502,0.144958,-17.215
17,1436967792343,44.8502,0.144958,-17.215
18,1436967792364,45.3751,2.4292,-15.0284
19,1436967792384,46.2509,0.495911,-18.2236
20,1436967792404,46.2509,0.495911,-18.2236
21,1436967792423,46.6019,0.144958,-16.2064
22,1436967792446,45.3751,1.37482,-17.0471
23,1436967792463,45.3751,1.37482,-17.0471
24,1436967792481,46.2509,1.19934,-16.2064
25,1436967792502,45.5505,-0.20752,-16.8793
26,1436967792522,45.5505,-0.20752,-16.8793
27,1436967792541,44.8502,2.60468,-15.8707
28,1436967792562,44.4992,1.19934,-17.8879
29,1436967792582,44.4992,1.19934,-17.8879
30,1436967792601,46.077,1.02386,-15.3656
31,1436967792620,45.726,0.320435,-17.0471
32,1436967792641,45.726,0.320435,-17.0471
33,1436967792659,46.7773,2.4292,-18.0557
34,1436967792681,47.8287,1.02386,-16.7114
35,1436967792700,47.8287,1.02386,-16.7114
36,1436967792783,45.1996,2.95715,-15.8707
37,1436967792784,46.6019,0.846863,-17.5522
38,1436967792785,46.6019,0.846863,-17.5522
39,1436967792786,46.4264,2.07825,-17.3828
40,1436967792798,45.1996,3.30811,-17.5522
41,1436967792819,45.1996,3.30811,-17.5522
42,1436967792838,45.9015,1.90277,-15.8707
43,1436967792858,46.4264,0.671387,-17.0471
44,1436967792878,46.4264,0.671387,-17.0471
45,1436967792898,44.8502,0.846863,-15.8707
46,1436967792917,45.0256,0.320435,-17.72
47,1436967792937,45.0256,0.320435,-17.72
48,1436967792957,45.726,0.320435,-17.72
49,1436967792978,45.726,0.671387,-17.3828
50,1436967792997,45.726,0.671387,-17.3828
51,1436967793016,46.2509,0.846863,-16.8793
52,1436967793037,44.8502,-0.558472,-16.5421
53,1436967793056,44.8502,-0.558472,-16.5421
54,1436967793076,44.4992,0.144958,-16.2064
55,1436967793094,45.5505,-0.558472,-17.215
56,1436967793114,45.5505,-0.558472,-17.215
57,1436967793135,44.8502,0.846863,-15.8707
58,1436967793154,45.5505,-0.20752,-17.215
59,1436967793177,45.5505,-0.20752,-17.215
60,1436967793194,46.6019,0.846863,-17.215
61,1436967793213,43.9743,0.671387,-16.3742
62,1436967793234,43.9743,0.671387,-16.3742
63,1436967793252,45.3751,0.671387,-16.0385
64,1436967793276,46.4264,0.320435,-16.7114
65,1436967793292,46.4264,0.320435,-16.7114
66,1436967793313,46.077,-0.0320435,-15.3656
67,1436967793333,46.4264,-0.733948,-17.3828
68,1436967793352,46.4264,-0.733948,-17.3828
69,1436967793373,45.3751,1.37482,-16.7114
70,1436967793392,46.077,0.320435,-16.7114
71,1436967793412,46.077,0.320435,-16.7114
72,1436967793433,45.3751,1.37482,-17.72
73,1436967793451,45.9015,0.144958,-16.8793
74,1436967793473,45.9015,0.144958,-16.8793
75,1436967793490,45.726,2.07825,-17.3828
76,1436967793511,46.2509,0.495911,-17.8879
77,1436967793531,46.2509,0.495911,-17.8879
78,1436967793550,46.2509,1.19934,-16.8793
79,1436967793569,45.726,1.37482,-18.3929
80,1436967793590,45.726,1.37482,-18.3929
81,1436967793608,46.9528,0.846863,-17.215
82,1436967793629,45.3751,-0.382996,-16.0385
83,1436967793649,45.3751,-0.382996,-16.0385
84,1436967793669,44.8502,1.90277,-14.5248
85,1436967793689,44.4992,1.55029,-16.5421
86,1436967793711,44.4992,1.55029,-16.5421
87,1436967793728,45.3751,1.02386,-16.0385
88,1436967793746,46.4264,0.671387,-18.0557
89,1436967793768,46.4264,0.671387,-18.0557
90,1436967793787,46.6019,2.60468,-17.5522
91,1436967793808,45.0256,0.320435,-17.3828
92,1436967793827,45.0256,0.320435,-17.3828
93,1436967793847,45.1996,1.19934,-16.8793
94,1436967793867,45.9015,0.846863,-17.215
95,1436967793885,45.9015,0.846863,-17.215
96,1436967793907,45.726,1.02386,-16.3742
97,1436967793925,46.4264,0.320435,-16.7114
98,1436967793946,46.4264,0.320435,-16.7114
99,1436967793966,45.726,1.72577,-17.72
100,1436967793985,45.726,-0.0320435,-17.3828
101,1436967794005,45.726,-0.0320435,-17.3828
102,1436967794025,45.3751,2.07825,-16.3742
103,1436967794044,46.7773,0.671387,-15.7013
104,1436967794065,46.7773,0.671387,-15.7013
105,1436967794084,45.726,2.07825,-16.0385
106,1436967794103,45.3751,0.671387,-18.0557
107,1436967794124,45.3751,0.671387,-18.0557
108,1436967794144,46.7773,1.02386,-17.72
109,1436967794164,44.8502,0.144958,-17.215
110,1436967794183,44.8502,0.144958,-17.215
111,1436967794205,45.5505,1.55029,-16.8793
112,1436967794223,44.6747,-0.0320435,-17.0471
113,1436967794241,44.6747,-0.0320435,-17.0471
114,1436967794262,46.077,1.02386,-16.7114
115,1436967794282,46.077,1.37482,-18.3929
116,1436967794304,46.077,1.37482,-18.3929
117,1436967794321,45.9015,1.90277,-15.8707
118,1436967794341,46.4264,0.320435,-18.0557
119,1436967794361,46.4264,0.320435,-18.0557
120,1436967794380,44.8502,2.95715,-16.2064
121,1436967794403,46.6019,1.55029,-16.8793
122,1436967794419,46.6019,1.55029,-16.8793
123,1436967794440,46.7773,1.37482,-16.7114
124,1436967794460,46.9528,0.144958,-16.8793
125,1436967794479,46.9528,0.144958,-16.8793
126,1436967794502,47.8287,1.72577,-16.0385
127,1436967794519,45.9015,0.495911,-17.8879
128,1436967794538,45.9015,0.495911,-17.8879
129,1436967794560,45.5505,1.55029,-17.215
130,1436967794579,45.9015,0.144958,-17.215
131,1436967794597,45.9015,0.144958,-17.215
132,1436967794618,45.726,1.72577,-16.7114
133,1436967794638,46.7773,1.72577,-17.3828
134,1436967794658,46.7773,1.72577,-17.3828
135,1436967794678,45.0256,1.37482,-17.3828
136,1436967794696,46.077,-0.382996,-18.3929
137,1436967794717,46.077,-0.382996,-18.3929
138,1436967794736,45.0256,1.02386,-16.7114
139,1436967794756,46.2509,0.495911,-17.215
140,1436967794779,46.2509,0.495911,-17.215
141,1436967794796,46.2509,2.60468,-16.2064
142,1436967794813,46.077,1.02386,-17.0471
143,1436967794832,46.077,1.02386,-17.0471
144,1436967794851,44.4992,2.60468,-17.5522
145,1436967794871,45.5505,2.25372,-16.5421
146,1436967794891,45.5505,2.25372,-16.5421
147,1436967794914,46.2509,1.55029,-16.5421
148,1436967794935,45.3751,1.02386,-17.3828
149,1436967794954,45.3751,1.02386,-17.3828
150,1436967794974,44.6747,2.78168,-16.3742
151,1436967794994,44.6747,2.4292,-16.7114
152,1436967795012,44.6747,2.4292,-16.7114
153,1436967795034,44.8502,1.90277,-16.8793
154,1436967795052,46.4264,1.72577,-18.3929
155,1436967795073,46.4264,1.72577,-18.3929
156,1436967795090,45.9015,2.60468,-17.5522
157,1436967795112,45.5505,1.55029,-16.5421
158,1436967795133,45.5505,1.55029,-16.5421
159,1436967795152,45.9015,0.846863,-17.215
160,1436967795172,45.9015,2.25372,-16.5421
161,1436967795191,45.9015,2.25372,-16.5421
162,1436967795211,45.9015,2.60468,-17.215
163,1436967795230,44.6747,1.37482,-18.0557
164,1436967795251,44.6747,1.37482,-18.0557
165,1436967795271,45.3751,3.48358,-16.0385
166,1436967795291,45.9015,1.90277,-17.5522
167,1436967795310,45.9015,1.90277,-17.5522
168,1436967795329,45.1996,2.25372,-18.2236
169,1436967795350,44.8502,1.55029,-17.5522
170,1436967795371,44.8502,1.55029,-17.5522
171,1436967795389,46.9528,1.90277,-15.8707
172,1436967795409,45.0256,2.07825,-17.72
173,1436967795429,45.0256,2.07825,-17.72
174,1436967795449,45.9015,1.90277,-17.215
175,1436967795471,46.4264,1.72577,-17.3828
176,1436967795488,46.4264,1.72577,-17.3828
177,1436967795506,44.4992,2.95715,-17.215
178,1436967795527,45.3751,0.671387,-17.0471
179,1436967795546,45.3751,0.671387,-17.0471
180,1436967795568,45.5505,2.25372,-16.2064
181,1436967795587,45.726,1.37482,-18.0557
182,1436967795607,45.726,1.37482,-18.0557
183,1436967795627,46.2509,1.90277,-16.8793
184,1436967795645,47.4777,1.72577,-18.7286
185,1436967795666,47.4777,1.72577,-18.7286
186,1436967795686,45.1996,1.19934,-17.8879
187,1436967795706,46.077,-1.08643,-18.3929
188,1436967795725,46.077,-1.08643,-18.3929
189,1436967795745,45.726,1.72577,-17.72
190,1436967795765,44.8502,1.19934,-18.2236
191,1436967795785,44.8502,1.19934,-18.2236
192,1436967795807,47.3022,2.60468,-17.215
193,1436967795823,46.2509,2.25372,-18.2236
194,1436967795844,46.2509,2.25372,-18.2236
195,1436967795863,45.3751,2.4292,-18.0557
196,1436967795883,44.6747,1.02386,-16.0385
197,1436967795906,44.6747,1.02386,-16.0385
198,1436967795923,45.726,1.02386,-16.0385
199,1436967795943,44.8502,1.19934,-16.5421
200,1436967795963,44.8502,1.19934,-16.5421
201,1436967795983,46.9528,2.25372,-18.2236
202,1436967796002,45.1996,1.19934,-17.5522
203,1436967796022,45.1996,1.19934,-17.5522
204,1436967796042,44.3237,1.37482,-16.0385
205,1436967796062,45.5505,1.90277,-17.215
206,1436967796082,45.5505,1.90277,-17.215
207,1436967796101,45.5505,1.55029,-16.5421
208,1436967796121,45.3751,0.320435,-16.7114
209,1436967796140,45.3751,0.320435,-16.7114
210,1436967796161,46.4264,2.4292,-17.0471
211,1436967796179,46.2509,0.846863,-18.2236
212,1436967796202,46.2509,0.846863,-18.2236
213,1436967796220,45.9015,1.90277,-16.8793
214,1436967796240,46.2509,1.19934,-17.5522
215,1436967796260,46.2509,1.19934,-17.5522
216,1436967796279,44.4992,2.25372,-16.2064
217,1436967796299,45.1996,2.60468,-17.5522
218,1436967796319,45.1996,2.60468,-17.5522
219,1436967796339,44.1498,2.25372,-17.215
220,1436967796358,45.0256,2.4292,-17.72
221,1436967796378,45.0256,2.4292,-17.72
222,1436967796398,43.6234,3.48358,-17.0471
223,1436967796418,45.1996,1.55029,-17.215
224,1436967796437,45.1996,1.55029,-17.215
225,1436967796457,45.9015,2.60468,-17.5522
226,1436967796477,46.077,2.07825,-17.3828
227,1436967796495,46.077,2.07825,-17.3828
228,1436967796517,45.726,1.37482,-16.0385
229,1436967796536,45.9015,1.55029,-18.2236
230,1436967796557,45.9015,1.55029,-18.2236
231,1436967796576,45.726,2.78168,-16.7114
232,1436967796596,45.3751,1.02386,-16.3742
233,1436967796616,45.3751,1.02386,-16.3742
234,1436967796635,45.726,2.4292,-16.3742
235,1436967796655,46.2509,2.25372,-16.8793
236,1436967796674,46.2509,2.25372,-16.8793
237,1436967796695,45.5505,1.55029,-17.215
238,1436967796714,45.5505,2.60468,-16.8793
239,1436967796734,45.5505,2.60468,-16.8793
240,1436967796753,45.726,1.37482,-17.3828
241,1436967796772,45.0256,1.72577,-17.3828
242,1436967796796,45.0256,1.72577,-17.3828
243,1436967796812,45.5505,1.90277,-17.5522
244,1436967796835,45.3751,2.4292,-18.0557
245,1436967796853,45.3751,2.4292,-18.0557
246,1436967796872,44.8502,1.19934,-16.5421
247,1436967796893,45.726,3.13263,-17.0471
248,1436967796912,45.726,3.13263,-17.0471
249,1436967796933,44.8502,2.60468,-16.2064
250,1436967796951,46.2509,1.55029,-18.5608
251,1436967796971,46.2509,1.55029,-18.5608
252,1436967796991,46.7773,1.37482,-17.0471
253,1436967797011,45.0256,1.02386,-15.7013
254,1436967797031,45.0256,1.02386,-15.7013
255,1436967797051,45.0256,3.48358,-16.0385
256,1436967797070,46.6019,1.90277,-17.8879
257,1436967797091,46.6019,1.90277,-17.8879
258,1436967797110,46.7773,3.48358,-17.0471
259,1436967797131,45.726,-0.382996,-17.72
260,1436967797150,45.726,-0.382996,-17.72
261,1436967797169,45.5505,2.95715,-16.8793
262,1436967797189,45.726,1.72577,-18.0557
263,1436967797208,45.726,1.72577,-18.0557
264,1436967797229,46.077,0.671387,-17.0471
265,1436967797248,46.7773,2.07825,-18.3929
266,1436967797266,46.7773,2.07825,-18.3929
267,1436967797288,44.8502,3.66058,-17.8879
268,1436967797307,46.2509,2.60468,-17.215
269,1436967797328,46.2509,2.60468,-17.215
270,1436967797347,46.6019,2.25372,-18.2236
271,1436967797367,45.9015,1.55029,-16.5421
272,1436967797387,45.9015,1.55029,-16.5421
273,1436967797405,45.5505,2.25372,-18.2236
274,1436967797427,46.077,0.320435,-17.0471
275,1436967797446,46.077,0.320435,-17.0471
276,1436967797466,45.0256,0.320435,-16.3742
277,1436967797486,45.1996,1.55029,-18.2236
278,1436967797505,45.1996,1.55029,-18.2236
279,1436967797526,44.8502,2.60468,-17.215
280,1436967797544,45.5505,-0.558472,-18.8965
281,1436967797565,45.5505,-0.558472,-18.8965
282,1436967797583,46.4264,3.13263,-18.0557
283,1436967797604,46.7773,1.72577,-18.3929
284,1436967797623,46.7773,1.72577,-18.3929
285,1436967797644,44.8502,2.60468,-15.1978
286,1436967797664,45.3751,1.37482,-19.7372
287,1436967797684,45.3751,1.37482,-19.7372
288,1436967797703,45.0256,1.37482,-17.72
289,1436967797724,43.9743,2.78168,-17.0471
290,1436967797743,43.9743,2.78168,-17.0471
291,1436967797762,45.3751,1.02386,-17.0471
292,1436967797783,46.077,1.37482,-18.0557
293,1436967797802,46.077,1.37482,-18.0557
294,1436967797825,45.9015,2.25372,-16.5421
295,1436967797842,43.9743,2.4292,-17.0471
296,1436967797861,43.9743,2.4292,-17.0471
297,1436967797881,47.4777,2.4292,-17.0471
298,1436967797899,45.5505,0.846863,-16.8793
299,1436967797921,45.5505,0.846863,-16.8793
300,1436967797939,44.6747,2.4292,-17.0471
301,1436967797961,45.726,1.72577,-18.0557
302,1436967797980,45.726,1.72577,-18.0557
303,1436967798000,45.9015,2.60468,-16.8793
304,1436967798020,45.1996,1.90277,-17.215
305,1436967798039,45.1996,1.90277,-17.215
306,1436967798062,45.3751,3.48358,-18.3929
307,1436967798079,45.0256,1.72577,-17.72
308,1436967798099,45.0256,1.72577,-17.72
309,1436967798119,46.9528,1.55029,-18.5608
310,1436967798138,44.4992,0.846863,-17.8879
311,1436967798159,44.4992,0.846863,-17.8879
312,1436967798178,45.726,1.72577,-17.3828
313,1436967798198,45.1996,1.90277,-17.215
314,1436967798217,45.1996,1.90277,-17.215
315,1436967798237,45.1996,3.30811,-17.8879
316,1436967798257,45.1996,1.90277,-18.2236
317,1436967798277,45.1996,1.90277,-18.2236
318,1436967798296,45.726,2.07825,-17.72
319,1436967798317,46.4264,1.37482,-17.0471
320,1436967798336,46.4264,1.37482,-17.0471
321,1436967798356,45.3751,2.4292,-18.0557
322,1436967798376,45.1996,1.90277,-17.215
323,1436967798395,45.1996,1.90277,-17.215
324,1436967798415,45.726,3.13263,-16.7114
325,1436967798434,46.7773,1.02386,-18.3929
326,1436967798457,46.7773,1.02386,-18.3929
327,1436967798475,45.726,2.07825,-17.0471
328,1436967798494,46.2509,0.495911,-18.5608
329,1436967798514,46.2509,0.495911,-18.5608
330,1436967798532,46.7773,2.78168,-19.7372
331,1436967798553,45.9015,2.25372,-17.5522
332,1436967798572,45.9015,2.25372,-17.5522
333,1436967798593,44.6747,2.78168,-18.3929
334,1436967798613,47.4777,1.72577,-19.4016
335,1436967798633,47.4777,1.72577,-19.4016
336,1436967798653,46.2509,2.60468,-17.8879
337,1436967798672,44.6747,0.671387,-18.3929
338,1436967798692,44.6747,0.671387,-18.3929
339,1436967798712,44.6747,1.72577,-17.72
340,1436967798732,46.2509,-0.20752,-17.5522
341,1436967798750,46.2509,-0.20752,-17.5522
342,1436967798771,45.726,2.4292,-17.72
343,1436967798791,44.3237,1.02386,-17.3828
344,1436967798811,44.3237,1.02386,-17.3828
345,1436967798830,45.9015,0.495911,-17.215
346,1436967798849,45.1996,1.19934,-17.5522
347,1436967798870,45.1996,1.19934,-17.5522
348,1436967798888,43.9743,2.4292,-17.72
349,1436967798910,45.1996,1.19934,-17.8879
350,1436967798929,45.1996,1.19934,-17.8879
351,1436967798952,44.4992,2.25372,-17.8879
352,1436967798969,46.2509,1.90277,-18.2236
353,1436967798989,46.2509,1.90277,-18.2236
354,1436967799008,45.9015,1.90277,-17.215
355,1436967799028,45.5505,1.55029,-19.2337
356,1436967799048,45.5505,1.55029,-19.2337
357,1436967799067,45.9015,1.90277,-17.215
358,1436967799088,46.2509,1.19934,-17.8879
359,1436967799107,46.2509,1.19934,-17.8879
360,1436967799127,45.3751,1.37482,-17.3828
361,1436967799147,44.8502,2.60468,-18.2236
362,1436967799165,44.8502,2.60468,-18.2236
363,1436967799189,46.9528,3.30811,-16.8793
364,1436967799206,45.9015,1.19934,-18.8965
365,1436967799225,45.9015,1.19934,-18.8965
366,1436967799246,46.7773,2.78168,-19.0643
367,1436967799266,45.5505,1.55029,-17.5522
368,1436967799288,45.5505,1.55029,-17.5522
369,1436967799305,45.0256,3.13263,-16.3742
370,1436967799325,45.3751,1.37482,-19.4016
371,1436967799343,45.3751,1.37482,-19.4016
372,1436967799365,45.3751,2.78168,-18.0557
373,1436967799384,44.4992,3.30811,-18.2236
374,1436967799404,44.4992,3.30811,-18.2236
375,1436967799424,45.726,3.13263,-17.0471
376,1436967799444,46.9528,1.55029,-18.2236
377,1436967799463,46.9528,1.55029,-18.2236
378,1436967799484,45.9015,4.01154,-17.5522
379,1436967799502,45.9015,1.90277,-16.5421
380,1436967799522,45.9015,1.90277,-16.5421
381,1436967799543,44.4992,4.36249,-16.8793
382,1436967799562,44.3237,1.37482,-18.0557
383,1436967799582,44.3237,1.37482,-18.0557
384,1436967799602,43.6234,3.13263,-16.7114
385,1436967799622,46.2509,4.36249,-18.8965
386,1436967799642,46.2509,4.36249,-18.8965
387,1436967799659,45.1996,3.30811,-16.2064
388,1436967799683,45.726,0.671387,-17.0471
389,1436967799700,45.726,0.671387,-17.0471
390,1436967799720,45.0256,2.4292,-15.7013
391,1436967799741,46.7773,4.53949,-17.3828
392,1436967799759,46.7773,4.53949,-17.3828
393,1436967799782,44.4992,2.60468,-15.1978
394,1436967799799,45.726,2.4292,-16.3742
395,1436967799819,45.726,2.4292,-16.3742
396,1436967799839,45.1996,3.66058,-16.5421
397,1436967799859,45.726,2.78168,-17.3828
398,1436967799881,45.726,2.78168,-17.3828
399,1436967799898,44.6747,2.78168,-18.0557
400,1436967799918,45.5505,2.95715,-16.8793
401,1436967799938,45.5505,2.95715,-16.8793
402,1436967799958,45.9015,4.01154,-17.215
403,1436967799979,46.077,2.4292,-17.3828
404,1436967799997,46.077,2.4292,-17.3828
405,1436967800016,46.2509,2.95715,-17.8879
406,1436967800037,46.7773,3.48358,-18.3929
407,1436967800057,46.7773,3.48358,-18.3929
408,1436967800079,44.1498,2.25372,-16.5421
409,1436967800096,45.9015,2.60468,-17.215
410,1436967800116,45.9015,2.60468,-17.215
411,1436967800136,45.726,2.78168,-17.72
412,1436967800155,46.077,2.78168,-17.3828
413,1436967800176,46.077,2.78168,-17.3828
414,1436967800195,45.5505,3.30811,-16.5421
415,1436967800217,46.7773,3.13263,-17.72
416,1436967800235,46.7773,3.13263,-17.72
417,1436967800254,46.077,4.53949,-18.3929
418,1436967800275,45.5505,1.55029,-17.215
419,1436967800293,45.5505,1.55029,-17.215
420,1436967800316,46.2509,3.66058,-17.8879
421,1436967800333,46.2509,1.19934,-16.2064
422,1436967800353,46.2509,1.19934,-16.2064
423,1436967800373,45.3751,3.48358,-17.3828
424,1436967800393,46.2509,0.846863,-19.2337
425,1436967800415,46.2509,0.846863,-19.2337
426,1436967800432,46.077,4.18701,-18.3929
427,1436967800452,47.1268,2.4292,-18.7286
428,1436967800472,47.1268,2.4292,-18.7286
429,1436967800491,46.7773,2.78168,-17.72
430,1436967800513,46.2509,1.90277,-18.2236
431,1436967800531,46.2509,1.90277,-18.2236
432,1436967800549,45.9015,4.01154,-17.215
433,1436967800571,44.6747,0.671387,-17.3828
434,1436967800591,44.6747,0.671387,-17.3828
435,1436967800609,45.9015,3.66058,-17.215
436,1436967800630,45.0256,3.13263,-18.3929
437,1436967800649,45.0256,3.13263,-18.3929
438,1436967800670,47.4777,2.4292,-16.7114
439,1436967800689,46.077,1.37482,-17.0471
440,1436967800710,46.077,1.37482,-17.0471
441,1436967800729,45.1996,2.25372,-18.5608
442,1436967800748,46.2509,1.90277,-18.8965
443,1436967800769,46.2509,1.90277,-18.8965
444,1436967800788,45.5505,4.36249,-16.8793
445,1436967800808,46.7773,1.37482,-18.3929
446,1436967800827,46.7773,1.37482,-18.3929
447,1436967800848,44.6747,3.13263,-18.0557
448,1436967800868,44.3237,3.83606,-17.0471
449,1436967800887,44.3237,3.83606,-17.0471
450,1436967800907,45.1996,2.95715,-17.8879
451,1436967800925,44.6747,1.72577,-17.72
452,1436967800947,44.6747,1.72577,-17.72
453,1436967800967,44.3237,4.53949,-18.3929
454,1436967800986,44.1498,1.55029,-19.2337
455,1436967801008,44.1498,1.55029,-19.2337
456,1436967801026,45.5505,2.95715,-17.5522
457,1436967801045,46.4264,3.48358,-17.3828
458,1436967801066,46.4264,3.48358,-17.3828
459,1436967801085,45.1996,3.30811,-17.8879
460,1436967801103,45.5505,2.25372,-18.2236
461,1436967801125,45.5505,2.25372,-18.2236
462,1436967801143,45.3751,4.18701,-19.0643
463,1436967801164,45.5505,1.19934,-18.5608
464,1436967801184,45.5505,1.19934,-18.5608
465,1436967801204,44.3237,2.4292,-17.3828
466,1436967801223,44.3237,2.4292,-19.0643
467,1436967801242,44.3237,2.4292,-19.0643
468,1436967801263,45.1996,2.95715,-17.8879
