id,attr_time,attr_light
1,1436182170027,6.0
2,1436182170048,6.0
3,1436182170068,6.0
4,1436182170086,6.0
5,1436182170110,6.0
6,1436182170128,6.0
7,1436182170148,6.0
8,1436182170168,6.0
9,1436182170188,6.0
10,1436182170208,6.0
11,1436182170228,6.0
12,1436182170245,6.0
13,1436182170266,6.0
14,1436182170288,6.0
15,1436182170307,6.0
16,1436182170327,6.0
17,1436182170346,6.0
18,1436182170368,6.0
19,1436182170388,6.0
20,1436182170408,6.0
21,1436182170428,6.0
22,1436182170447,6.0
23,1436182170467,6.0
24,1436182170487,6.0
25,1436182170505,6.0
26,1436182170525,6.0
27,1436182170590,6.0
28,1436182170591,6.0
29,1436182170592,6.0
30,1436182170605,6.0
31,1436182170629,6.0
32,1436182170645,6.0
33,1436182170665,6.0
34,1436182170687,6.0
35,1436182170705,6.0
36,1436182170726,6.0
37,1436182170746,6.0
38,1436182170766,6.0
39,1436182170786,6.0
40,1436182170805,6.0
41,1436182170835,6.0
42,1436182170864,6.0
43,1436182170865,6.0
44,1436182170886,6.0
45,1436182170906,6.0
46,1436182170925,6.0
47,1436182170947,6.0
48,1436182170965,6.0
49,1436182170986,6.0
50,1436182171005,6.0
51,1436182171026,6.0
52,1436182171045,6.0
53,1436182171083,6.0
54,1436182171088,6.0
55,1436182171106,6.0
56,1436182171126,6.0
57,1436182171146,6.0
58,1436182171166,6.0
59,1436182171185,6.0
60,1436182171205,6.0
61,1436182171229,6.0
62,1436182171245,6.0
63,1436182171265,6.0
64,1436182171286,6.0
65,1436182171305,6.0
66,1436182171325,6.0
67,1436182171345,6.0
68,1436182171365,6.0
69,1436182171392,6.0
70,1436182171405,6.0
71,1436182171425,6.0
72,1436182171445,6.0
73,1436182171465,6.0
74,1436182171485,6.0
75,1436182171505,6.0
76,1436182171525,6.0
77,1436182171545,6.0
78,1436182171565,6.0
79,1436182171585,6.0
80,1436182171605,6.0
81,1436182171626,6.0
82,1436182171647,6.0
83,1436182171667,6.0
84,1436182171689,6.0
85,1436182171710,6.0
86,1436182171729,6.0
87,1436182171748,6.0
88,1436182171768,6.0
89,1436182171786,6.0
90,1436182171807,6.0
91,1436182171827,6.0
92,1436182171849,6.0
93,1436182171879,6.0
94,1436182171896,6.0
95,1436182171906,6.0
96,1436182171926,6.0
97,1436182171947,6.0
98,1436182171966,6.0
99,1436182171990,6.0
100,1436182172007,6.0
101,1436182172026,6.0
102,1436182172048,6.0
103,1436182172066,6.0
104,1436182172086,6.0
105,1436182172106,6.0
106,1436182172127,6.0
107,1436182172148,6.0
108,1436182172168,6.0
109,1436182172188,6.0
110,1436182172210,6.0
111,1436182172229,6.0
112,1436182172249,6.0
113,1436182172267,6.0
114,1436182172290,6.0
115,1436182172309,6.0
116,1436182172331,6.0
117,1436182172348,6.0
118,1436182172370,6.0
119,1436182172390,6.0
120,1436182172410,6.0
121,1436182172430,6.0
122,1436182172449,6.0
123,1436182172470,6.0
124,1436182172489,6.0
125,1436182172508,6.0
126,1436182172530,6.0
127,1436182172600,6.0
128,1436182172601,6.0
129,1436182172602,6.0
130,1436182172607,6.0
131,1436182172628,6.0
132,1436182172650,6.0
133,1436182172667,6.0
134,1436182172687,6.0
135,1436182172708,6.0
136,1436182172730,6.0
137,1436182172749,6.0
138,1436182172768,6.0
139,1436182172788,6.0
140,1436182172810,6.0
141,1436182172830,6.0
142,1436182172848,6.0
143,1436182172875,6.0
144,1436182172887,6.0
145,1436182172907,6.0
146,1436182172927,6.0
147,1436182172947,6.0
148,1436182172968,6.0
149,1436182172989,6.0
150,1436182173008,6.0
151,1436182173031,6.0
152,1436182173050,6.0
153,1436182173069,6.0
154,1436182173091,6.0
155,1436182173111,6.0
156,1436182173131,6.0
157,1436182173152,6.0
158,1436182173169,6.0
159,1436182173189,6.0
160,1436182173210,6.0
161,1436182173231,6.0
162,1436182173249,6.0
163,1436182173271,6.0
164,1436182173318,6.0
165,1436182173319,6.0
166,1436182173330,6.0
167,1436182173348,6.0
168,1436182173368,6.0
169,1436182173388,6.0
170,1436182173408,6.0
171,1436182173429,6.0
172,1436182173448,6.0
173,1436182173468,6.0
174,1436182173490,6.0
175,1436182173509,6.0
176,1436182173528,6.0
177,1436182173549,6.0
178,1436182173569,6.0
179,1436182173589,6.0
180,1436182173611,6.0
181,1436182173631,6.0
182,1436182173649,6.0
183,1436182173670,6.0
184,1436182173688,6.0
185,1436182173709,6.0
186,1436182173730,6.0
187,1436182173749,6.0
188,1436182173772,6.0
189,1436182173790,6.0
190,1436182173810,6.0
191,1436182173831,6.0
192,1436182173850,6.0
193,1436182173871,6.0
194,1436182173890,6.0
195,1436182173910,6.0
196,1436182173932,6.0
197,1436182173951,6.0
198,1436182173970,6.0
199,1436182173989,6.0
200,1436182174055,6.0
201,1436182174056,6.0
202,1436182174057,6.0
203,1436182174072,6.0
204,1436182174089,6.0
205,1436182174111,6.0
206,1436182174128,6.0
207,1436182174148,6.0
208,1436182174170,6.0
209,1436182174188,6.0
210,1436182174210,6.0
211,1436182174229,6.0
212,1436182174249,6.0
213,1436182174271,6.0
214,1436182174292,6.0
215,1436182174312,6.0
216,1436182174331,6.0
217,1436182174352,6.0
218,1436182174372,6.0
219,1436182174390,6.0
220,1436182174411,6.0
221,1436182174432,6.0
222,1436182174451,6.0
223,1436182174475,6.0
224,1436182174490,6.0
225,1436182174511,6.0
226,1436182174532,6.0
227,1436182174581,6.0
228,1436182174582,6.0
229,1436182174591,6.0
230,1436182174609,6.0
231,1436182174629,6.0
232,1436182174653,6.0
233,1436182174671,6.0
234,1436182174692,6.0
235,1436182174710,6.0
236,1436182174738,6.0
237,1436182174791,6.0
238,1436182174792,6.0
239,1436182174796,6.0
240,1436182174834,6.0
241,1436182174835,6.0
242,1436182174850,6.0
243,1436182174872,6.0
244,1436182174889,6.0
245,1436182174923,6.0
246,1436182174929,6.0
247,1436182174949,6.0
248,1436182174972,6.0
249,1436182174989,6.0
250,1436182175009,6.0
251,1436182175032,6.0
252,1436182175053,6.0
253,1436182175073,6.0
254,1436182175093,6.0
255,1436182175112,6.0
256,1436182175133,6.0
257,1436182175153,6.0
258,1436182175173,6.0
259,1436182175190,6.0
260,1436182175210,6.0
261,1436182175233,5.0
262,1436182175253,5.0
263,1436182175273,5.0
264,1436182175293,5.0
265,1436182175313,5.0
266,1436182175333,5.0
267,1436182175352,5.0
268,1436182175372,5.0
269,1436182175393,5.0
270,1436182175415,5.0
271,1436182175434,5.0
272,1436182175453,5.0
273,1436182175473,5.0
274,1436182175533,5.0
275,1436182175534,4.0
276,1436182175545,4.0
277,1436182175553,4.0
278,1436182175573,4.0
279,1436182175594,5.0
280,1436182175610,5.0
281,1436182175630,5.0
282,1436182175664,6.0
283,1436182175670,6.0
284,1436182175691,7.0
285,1436182175711,7.0
286,1436182175736,7.0
287,1436182175753,7.0
288,1436182175773,8.0
289,1436182175793,8.0
290,1436182175813,8.0
291,1436182175833,8.0
292,1436182175854,10.0
293,1436182175873,10.0
294,1436182175894,10.0
295,1436182175913,10.0
296,1436182175930,9.0
297,1436182175953,9.0
298,1436182175973,9.0
299,1436182175993,9.0
300,1436182176014,8.0
301,1436182176030,8.0
302,1436182176053,8.0
303,1436182176073,8.0
304,1436182176094,8.0
305,1436182176115,8.0
306,1436182176132,8.0
307,1436182176153,8.0
308,1436182176172,9.0
309,1436182176200,9.0
310,1436182176211,9.0
311,1436182176260,9.0
312,1436182176261,9.0
313,1436182176281,9.0
314,1436182176290,9.0
315,1436182176311,9.0
316,1436182176344,9.0
317,1436182176363,9.0
318,1436182176371,8.0
319,1436182176391,8.0
320,1436182176411,8.0
321,1436182176439,8.0
322,1436182176455,8.0
323,1436182176495,7.0
324,1436182176496,7.0
325,1436182176515,7.0
326,1436182176531,7.0
327,1436182176551,6.0
328,1436182176571,6.0
329,1436182176591,6.0
330,1436182176611,6.0
331,1436182176633,6.0
332,1436182176653,6.0
333,1436182176676,5.0
334,1436182176691,5.0
335,1436182176710,5.0
336,1436182176730,5.0
337,1436182176750,5.0
338,1436182176771,5.0
339,1436182176793,5.0
340,1436182176815,5.0
341,1436182176834,4.0
342,1436182176852,4.0
343,1436182176873,4.0
344,1436182176891,4.0
345,1436182176911,4.0
346,1436182176934,4.0
347,1436182177017,4.0
348,1436182177018,4.0
349,1436182177019,5.0
350,1436182177020,5.0
351,1436182177034,6.0
352,1436182177050,6.0
353,1436182177070,7.0
354,1436182177091,7.0
355,1436182177113,9.0
356,1436182177130,9.0
357,1436182177150,9.0
358,1436182177170,9.0
359,1436182177190,10.0
360,1436182177210,10.0
361,1436182177230,11.0
362,1436182177250,11.0
363,1436182177270,14.0
364,1436182177290,15.0
365,1436182177310,15.0
366,1436182177330,11.0
367,1436182177350,11.0
368,1436182177370,13.0
369,1436182177390,13.0
370,1436182177415,10.0
371,1436182177433,10.0
372,1436182177452,10.0
373,1436182177475,10.0
374,1436182177494,10.0
375,1436182177514,10.0
376,1436182177534,10.0
377,1436182177554,10.0
378,1436182177572,9.0
379,1436182177596,9.0
380,1436182177637,9.0
381,1436182177638,9.0
382,1436182177660,10.0
383,1436182177672,10.0
384,1436182177696,9.0
385,1436182177714,9.0
386,1436182177733,8.0
387,1436182177754,8.0
388,1436182177774,7.0
389,1436182177793,7.0
390,1436182177813,6.0
391,1436182177835,6.0
392,1436182177852,6.0
393,1436182177875,6.0
394,1436182177895,7.0
395,1436182177915,7.0
396,1436182177935,7.0
397,1436182177955,7.0
398,1436182177975,6.0
399,1436182177995,6.0
400,1436182178015,5.0
401,1436182178035,5.0
402,1436182178052,5.0
403,1436182178075,5.0
404,1436182178095,5.0
405,1436182178118,5.0
406,1436182178136,6.0
407,1436182178156,7.0
408,1436182178174,7.0
409,1436182178195,7.0
410,1436182178216,7.0
411,1436182178235,8.0
412,1436182178256,8.0
413,1436182178276,9.0
414,1436182178293,9.0
415,1436182178314,17.0
416,1436182178366,17.0
417,1436182178367,32.0
418,1436182178377,32.0
419,1436182178393,20.0
420,1436182178413,20.0
421,1436182178434,15.0
422,1436182178453,15.0
423,1436182178478,12.0
424,1436182178495,12.0
425,1436182178513,10.0
426,1436182178533,10.0
427,1436182178554,10.0
428,1436182178576,10.0
429,1436182178597,10.0
430,1436182178616,10.0
431,1436182178635,10.0
432,1436182178656,10.0
433,1436182178676,11.0
434,1436182178695,11.0
435,1436182178716,13.0
436,1436182178736,13.0
437,1436182178756,16.0
438,1436182178776,16.0
439,1436182178795,15.0
440,1436182178816,15.0
441,1436182178836,12.0
442,1436182178853,12.0
443,1436182178875,14.0
444,1436182178896,14.0
445,1436182178917,14.0
446,1436182178936,14.0
447,1436182178956,12.0
448,1436182178976,11.0
449,1436182178995,11.0
450,1436182179015,10.0
451,1436182179034,10.0
452,1436182179055,9.0
453,1436182179117,9.0
454,1436182179118,8.0
455,1436182179119,8.0
456,1436182179147,8.0
457,1436182179153,8.0
458,1436182179176,7.0
459,1436182179245,7.0
460,1436182179246,7.0
461,1436182179247,7.0
462,1436182179254,7.0
463,1436182179274,7.0
464,1436182179299,8.0
465,1436182179316,8.0
466,1436182179337,11.0
467,1436182179357,11.0
468,1436182179377,10.0
469,1436182179397,10.0
470,1436182179417,11.0
471,1436182179437,11.0
472,1436182179457,11.0
473,1436182179477,11.0
474,1436182179497,15.0
475,1436182179517,15.0
476,1436182179534,13.0
477,1436182179557,13.0
478,1436182179577,13.0
479,1436182179597,13.0
480,1436182179618,14.0
481,1436182179636,14.0
482,1436182179657,13.0
483,1436182179677,13.0
484,1436182179697,14.0
485,1436182179717,14.0
486,1436182179737,13.0
487,1436182179757,13.0
488,1436182179777,14.0
489,1436182179802,14.0
490,1436182179860,14.0
491,1436182179861,13.0
492,1436182179862,13.0
493,1436182179877,12.0
494,1436182179897,12.0
495,1436182179921,11.0
496,1436182179936,11.0
497,1436182179955,11.0
498,1436182180016,11.0
499,1436182180017,10.0
500,1436182180018,10.0
501,1436182180040,12.0
502,1436182180057,12.0
503,1436182180077,13.0
504,1436182180097,13.0
505,1436182180117,13.0
506,1436182180138,13.0
507,1436182180158,12.0
508,1436182180177,12.0
509,1436182180197,11.0
510,1436182180217,11.0
511,1436182180238,11.0
512,1436182180256,11.0
513,1436182180276,13.0
514,1436182180298,13.0
515,1436182180317,11.0
516,1436182180338,11.0
517,1436182180356,10.0
518,1436182180377,10.0
519,1436182180397,11.0
520,1436182180417,11.0
521,1436182180438,12.0
522,1436182180456,12.0
523,1436182180478,12.0
524,1436182180496,12.0
525,1436182180516,13.0
526,1436182180538,13.0
527,1436182180577,31.0
528,1436182180590,31.0
529,1436182180599,59.0
530,1436182180615,59.0
531,1436182180635,87.0
532,1436182180655,146.0
533,1436182180675,146.0
534,1436182180695,179.0
535,1436182180715,179.0
536,1436182180735,235.0
537,1436182180761,235.0
538,1436182180775,312.0
539,1436182180797,312.0
540,1436182180818,346.0
541,1436182180838,346.0
542,1436182180858,298.0
543,1436182180878,298.0
544,1436182180898,252.0
545,1436182180919,252.0
546,1436182180936,243.0
547,1436182180961,243.0
548,1436182180981,218.0
549,1436182180998,218.0
550,1436182181017,218.0
551,1436182181035,218.0
552,1436182181055,197.0
553,1436182181218,197.0
554,1436182181219,163.0
555,1436182181220,163.0
556,1436182181221,122.0
557,1436182181222,122.0
558,1436182181223,50.0
559,1436182181224,50.0
560,1436182181225,31.0
561,1436182181429,31.0
562,1436182181432,51.0
563,1436182181433,51.0
564,1436182181434,42.0
565,1436182181435,42.0
566,1436182181436,23.0
567,1436182181437,23.0
568,1436182181438,20.0
569,1436182181439,20.0
570,1436182181440,33.0
571,1436182181441,33.0
572,1436182181458,38.0
573,1436182181477,28.0
574,1436182181498,28.0
575,1436182181519,11.0
576,1436182181538,11.0
577,1436182181558,11.0
578,1436182181577,11.0
579,1436182181598,11.0
580,1436182181618,11.0
581,1436182181639,10.0
582,1436182181658,10.0
583,1436182181678,18.0
584,1436182181697,18.0
585,1436182181718,31.0
586,1436182181737,31.0
587,1436182181757,48.0
588,1436182181777,48.0
589,1436182181799,98.0
590,1436182181819,98.0
591,1436182181840,180.0
592,1436182181858,180.0
593,1436182181877,186.0
594,1436182181896,186.0
595,1436182181917,268.0
596,1436182181937,268.0
597,1436182181959,311.0
598,1436182182023,311.0
599,1436182182024,304.0
600,1436182182025,304.0
601,1436182182037,235.0
602,1436182182060,235.0
603,1436182182077,234.0
604,1436182182097,234.0
605,1436182182117,201.0
606,1436182182138,201.0
607,1436182182157,193.0
608,1436182182176,193.0
609,1436182182197,191.0
610,1436182182216,191.0
611,1436182182237,199.0
612,1436182182258,199.0
613,1436182182278,189.0
614,1436182182301,189.0
615,1436182182318,182.0
616,1436182182340,138.0
617,1436182182358,138.0
618,1436182182378,103.0
619,1436182182399,103.0
620,1436182182418,108.0
621,1436182182440,108.0
622,1436182182458,100.0
623,1436182182478,100.0
624,1436182182500,81.0
625,1436182182518,81.0
626,1436182182539,60.0
627,1436182182559,60.0
628,1436182182579,55.0
629,1436182182600,55.0
630,1436182182618,48.0
631,1436182182637,48.0
632,1436182182658,17.0
633,1436182182678,17.0
634,1436182182742,14.0
635,1436182182743,14.0
636,1436182182744,13.0
637,1436182182763,13.0
638,1436182182777,13.0
639,1436182182797,13.0
640,1436182182817,19.0
641,1436182182837,19.0
642,1436182182858,31.0
643,1436182182879,31.0
644,1436182182898,48.0
645,1436182182920,48.0
646,1436182182937,82.0
647,1436182182958,82.0
648,1436182182980,173.0
649,1436182183000,173.0
650,1436182183021,190.0
651,1436182183038,190.0
652,1436182183060,226.0
653,1436182183080,226.0
654,1436182183100,287.0
655,1436182183121,287.0
656,1436182183138,303.0
657,1436182183158,261.0
658,1436182183180,261.0
659,1436182183200,210.0
660,1436182183220,210.0
661,1436182183238,207.0
662,1436182183261,207.0
663,1436182183279,209.0
664,1436182183300,209.0
665,1436182183320,218.0
666,1436182183337,218.0
667,1436182183358,205.0
668,1436182183378,205.0
669,1436182183398,192.0
670,1436182183424,192.0
671,1436182183478,165.0
672,1436182183479,165.0
673,1436182183480,160.0
674,1436182183499,160.0
675,1436182183518,123.0
676,1436182183538,123.0
677,1436182183557,103.0
678,1436182183578,103.0
679,1436182183598,88.0
680,1436182183620,88.0
681,1436182183639,72.0
682,1436182183665,72.0
683,1436182183679,60.0
684,1436182183701,60.0
685,1436182183719,45.0
686,1436182183741,45.0
687,1436182183758,41.0
688,1436182183779,41.0
689,1436182183801,38.0
690,1436182183819,38.0
691,1436182183841,18.0
692,1436182183859,18.0
693,1436182183880,15.0
694,1436182183904,15.0
695,1436182183919,16.0
696,1436182183941,16.0
697,1436182183958,15.0
698,1436182183979,15.0
699,1436182184001,15.0
700,1436182184018,26.0
701,1436182184040,26.0
702,1436182184062,40.0
703,1436182184079,40.0
704,1436182184101,73.0
705,1436182184119,73.0
706,1436182184139,150.0
707,1436182184170,150.0
708,1436182184178,188.0
709,1436182184226,188.0
710,1436182184227,217.0
711,1436182184247,217.0
712,1436182184258,260.0
713,1436182184279,260.0
714,1436182184299,239.0
715,1436182184318,239.0
716,1436182184341,165.0
717,1436182184359,165.0
718,1436182184380,145.0
719,1436182184400,145.0
720,1436182184419,134.0
721,1436182184438,134.0
722,1436182184461,151.0
723,1436182184479,151.0
724,1436182184501,154.0
725,1436182184522,154.0
726,1436182184542,146.0
727,1436182184587,146.0
728,1436182184588,144.0
729,1436182184601,144.0
730,1436182184621,124.0
731,1436182184640,124.0
732,1436182184661,134.0
733,1436182184682,134.0
734,1436182184699,138.0
735,1436182184723,138.0
736,1436182184742,104.0
737,1436182184760,104.0
738,1436182184783,92.0
739,1436182184799,92.0
740,1436182184821,68.0
741,1436182184842,55.0
742,1436182184861,55.0
743,1436182184880,45.0
744,1436182184901,45.0
745,1436182184966,41.0
746,1436182184976,41.0
747,1436182184977,26.0
748,1436182184980,26.0
749,1436182185001,17.0
750,1436182185021,17.0
751,1436182185039,17.0
752,1436182185059,17.0
753,1436182185081,18.0
754,1436182185100,18.0
755,1436182185120,15.0
756,1436182185139,15.0
757,1436182185161,19.0
758,1436182185182,19.0
759,1436182185202,30.0
760,1436182185223,30.0
761,1436182185241,48.0
762,1436182185263,48.0
763,1436182185283,99.0
764,1436182185302,99.0
765,1436182185319,165.0
766,1436182185339,165.0
767,1436182185359,153.0
768,1436182185379,153.0
769,1436182185399,236.0
770,1436182185419,236.0
771,1436182185439,279.0
772,1436182185459,279.0
773,1436182185479,235.0
774,1436182185499,235.0
775,1436182185519,155.0
776,1436182185539,155.0
777,1436182185559,149.0
778,1436182185580,149.0
779,1436182185600,121.0
780,1436182185619,121.0
781,1436182185680,137.0
782,1436182185681,139.0
783,1436182185682,139.0
784,1436182185704,127.0
785,1436182185721,127.0
786,1436182185742,123.0
787,1436182185759,123.0
788,1436182185783,124.0
789,1436182185802,124.0
790,1436182185823,129.0
791,1436182185840,129.0
792,1436182185863,136.0
793,1436182185883,136.0
794,1436182185899,114.0
795,1436182185923,114.0
796,1436182185941,97.0
797,1436182185963,97.0
798,1436182185983,53.0
799,1436182186003,53.0
800,1436182186023,39.0
801,1436182186043,39.0
802,1436182186060,32.0
803,1436182186084,32.0
804,1436182186104,25.0
805,1436182186124,25.0
806,1436182186143,17.0
807,1436182186164,17.0
808,1436182186192,17.0
809,1436182186201,17.0
810,1436182186219,18.0
811,1436182186243,18.0
812,1436182186264,16.0
813,1436182186282,16.0
814,1436182186303,14.0
815,1436182186321,14.0
816,1436182186385,16.0
817,1436182186386,16.0
818,1436182186387,16.0
819,1436182186409,16.0
820,1436182186422,16.0
821,1436182186441,16.0
822,1436182186461,47.0
823,1436182186480,47.0
824,1436182186502,145.0
825,1436182186520,186.0
826,1436182186543,186.0
827,1436182186566,254.0
828,1436182186581,254.0
829,1436182186600,222.0
830,1436182186625,222.0
831,1436182186644,191.0
832,1436182186664,191.0
833,1436182186684,180.0
834,1436182186704,180.0
835,1436182186724,177.0
836,1436182186744,177.0
837,1436182186764,145.0
838,1436182186784,145.0
839,1436182186801,154.0
840,1436182186824,154.0
841,1436182186844,136.0
842,1436182186864,136.0
843,1436182186884,138.0
844,1436182186904,138.0
845,1436182186924,152.0
846,1436182186944,152.0
847,1436182186964,122.0
848,1436182186984,122.0
849,1436182187004,97.0
850,1436182187025,97.0
851,1436182187043,114.0
852,1436182187064,114.0
853,1436182187116,88.0
854,1436182187117,88.0
855,1436182187141,53.0
856,1436182187142,53.0
857,1436182187163,33.0
858,1436182187185,33.0
859,1436182187201,26.0
860,1436182187226,26.0
861,1436182187243,23.0
862,1436182187261,23.0
863,1436182187295,23.0
864,1436182187301,23.0
865,1436182187321,23.0
866,1436182187341,22.0
867,1436182187364,22.0
868,1436182187384,23.0
869,1436182187404,23.0
870,1436182187425,22.0
871,1436182187444,22.0
872,1436182187465,18.0
873,1436182187485,18.0
874,1436182187505,21.0
875,1436182187525,21.0
876,1436182187545,33.0
877,1436182187561,33.0
878,1436182187583,71.0
879,1436182187605,71.0
880,1436182187622,122.0
881,1436182187655,122.0
882,1436182187685,140.0
