id,attr_time,attr_light
1,1436896020489,2.0
2,1436896020509,2.0
3,1436896020529,2.0
4,1436896020549,2.0
5,1436896020570,2.0
6,1436896020588,2.0
7,1436896020608,2.0
8,1436896020631,2.0
9,1436896020651,2.0
10,1436896020671,2.0
11,1436896020691,2.0
12,1436896020710,2.0
13,1436896020728,2.0
14,1436896020748,2.0
15,1436896020769,2.0
16,1436896020788,2.0
17,1436896020841,2.0
18,1436896020855,2.0
19,1436896020856,2.0
20,1436896020868,2.0
21,1436896020893,2.0
22,1436896020910,2.0
23,1436896020929,2.0
24,1436896020953,2.0
25,1436896020968,2.0
26,1436896020991,2.0
27,1436896021015,2.0
28,1436896021029,2.0
29,1436896021052,2.0
30,1436896021070,2.0
31,1436896021090,2.0
32,1436896021111,2.0
33,1436896021130,2.0
34,1436896021151,2.0
35,1436896021170,2.0
36,1436896021190,2.0
37,1436896021212,2.0
38,1436896021230,2.0
39,1436896021252,2.0
40,1436896021270,2.0
41,1436896021291,2.0
42,1436896021314,2.0
43,1436896021331,2.0
44,1436896021352,2.0
45,1436896021369,2.0
46,1436896021388,2.0
47,1436896021408,2.0
48,1436896021435,2.0
49,1436896021451,2.0
50,1436896021471,2.0
51,1436896021489,2.0
52,1436896021518,2.0
53,1436896021530,2.0
54,1436896021597,2.0
55,1436896021598,2.0
56,1436896021599,2.0
57,1436896021608,2.0
58,1436896021640,2.0
59,1436896021649,2.0
60,1436896021668,2.0
61,1436896021690,2.0
62,1436896021708,2.0
63,1436896021732,2.0
64,1436896021754,2.0
65,1436896021769,2.0
66,1436896021789,2.0
67,1436896021813,2.0
68,1436896021830,2.0
69,1436896021852,2.0
70,1436896021871,2.0
71,1436896021893,2.0
72,1436896021913,2.0
73,1436896021932,2.0
74,1436896021952,2.0
75,1436896021975,2.0
76,1436896021989,2.0
77,1436896022012,2.0
78,1436896022035,2.0
79,1436896022052,2.0
80,1436896022072,2.0
81,1436896022092,2.0
82,1436896022112,2.0
83,1436896022132,2.0
84,1436896022152,2.0
85,1436896022173,2.0
86,1436896022193,2.0
87,1436896022213,2.0
88,1436896022233,3.0
89,1436896022250,3.0
90,1436896022323,3.0
91,1436896022324,3.0
92,1436896022325,3.0
93,1436896022334,3.0
94,1436896022353,3.0
95,1436896022374,3.0
96,1436896022389,3.0
97,1436896022409,3.0
98,1436896022443,3.0
99,1436896022450,3.0
100,1436896022470,3.0
101,1436896022490,3.0
102,1436896022515,3.0
103,1436896022533,3.0
104,1436896022553,2.0
105,1436896022573,2.0
106,1436896022593,2.0
107,1436896022612,2.0
108,1436896022633,2.0
109,1436896022653,2.0
110,1436896022673,2.0
111,1436896022694,2.0
112,1436896022711,2.0
113,1436896022731,2.0
114,1436896022753,2.0
115,1436896022771,2.0
116,1436896022790,2.0
117,1436896022810,2.0
118,1436896022833,2.0
119,1436896022853,2.0
120,1436896022873,2.0
121,1436896022893,2.0
122,1436896022910,1.0
123,1436896022930,1.0
124,1436896022950,1.0
125,1436896022971,1.0
126,1436896022990,1.0
127,1436896023044,1.0
128,1436896023045,1.0
129,1436896023061,1.0
130,1436896023070,1.0
131,1436896023097,1.0
132,1436896023111,1.0
133,1436896023130,1.0
134,1436896023172,1.0
135,1436896023173,1.0
136,1436896023193,1.0
137,1436896023211,0.0
138,1436896023231,0.0
139,1436896023250,0.0
140,1436896023273,0.0
141,1436896023293,0.0
142,1436896023315,0.0
143,1436896023333,0.0
144,1436896023353,0.0
145,1436896023373,0.0
146,1436896023393,0.0
147,1436896023413,0.0
148,1436896023433,0.0
149,1436896023451,1.0
150,1436896023474,1.0
151,1436896023494,1.0
152,1436896023514,1.0
153,1436896023533,1.0
154,1436896023554,1.0
155,1436896023574,2.0
156,1436896023593,2.0
157,1436896023614,1.0
158,1436896023642,1.0
159,1436896023650,0.0
160,1436896023670,0.0
161,1436896023690,0.0
162,1436896023710,0.0
163,1436896023744,0.0
164,1436896023765,0.0
165,1436896023779,0.0
166,1436896023791,0.0
167,1436896023810,1.0
168,1436896023833,1.0
169,1436896023851,1.0
170,1436896023871,2.0
171,1436896023891,2.0
172,1436896023911,2.0
173,1436896023933,2.0
174,1436896023952,2.0
175,1436896023972,2.0
176,1436896023991,2.0
177,1436896024014,2.0
178,1436896024031,2.0
179,1436896024054,2.0
180,1436896024074,3.0
181,1436896024094,3.0
182,1436896024114,3.0
183,1436896024134,3.0
184,1436896024154,0.0
185,1436896024174,0.0
186,1436896024191,0.0
187,1436896024214,0.0
188,1436896024243,0.0
189,1436896024252,0.0
190,1436896024273,0.0
191,1436896024294,0.0
192,1436896024314,1.0
193,1436896024334,1.0
194,1436896024354,2.0
195,1436896024373,2.0
196,1436896024395,2.0
197,1436896024414,2.0
198,1436896024434,2.0
199,1436896024458,2.0
200,1436896024518,2.0
201,1436896024519,2.0
202,1436896024520,2.0
203,1436896024533,2.0
204,1436896024552,2.0
205,1436896024574,2.0
206,1436896024591,2.0
207,1436896024616,2.0
208,1436896024632,3.0
209,1436896024682,3.0
210,1436896024683,2.0
211,1436896024718,1.0
212,1436896024719,1.0
213,1436896024733,1.0
214,1436896024753,1.0
215,1436896024775,1.0
216,1436896024795,1.0
217,1436896024815,1.0
218,1436896024835,1.0
219,1436896024855,2.0
220,1436896024875,2.0
221,1436896024895,2.0
222,1436896024915,2.0
223,1436896024935,2.0
224,1436896024956,2.0
225,1436896024975,2.0
226,1436896024993,2.0
227,1436896025015,1.0
228,1436896025034,1.0
229,1436896025053,1.0
230,1436896025073,1.0
231,1436896025097,1.0
232,1436896025117,1.0
233,1436896025138,1.0
234,1436896025155,1.0
235,1436896025172,0.0
236,1436896025192,0.0
237,1436896025213,0.0
238,1436896025233,0.0
239,1436896025255,0.0
240,1436896025309,0.0
241,1436896025310,0.0
242,1436896025324,0.0
243,1436896025332,0.0
244,1436896025353,0.0
245,1436896025376,1.0
246,1436896025393,1.0
247,1436896025413,1.0
248,1436896025434,1.0
249,1436896025454,1.0
250,1436896025473,1.0
251,1436896025492,2.0
252,1436896025513,2.0
253,1436896025536,2.0
254,1436896025556,2.0
255,1436896025575,2.0
256,1436896025596,2.0
257,1436896025616,2.0
258,1436896025636,3.0
259,1436896025656,3.0
260,1436896025676,2.0
261,1436896025696,2.0
262,1436896025716,0.0
263,1436896025733,0.0
264,1436896025756,0.0
265,1436896025775,0.0
266,1436896025796,0.0
267,1436896025816,0.0
268,1436896025836,0.0
269,1436896025856,0.0
270,1436896025876,1.0
271,1436896025896,1.0
272,1436896025916,1.0
273,1436896025936,1.0
274,1436896025957,1.0
275,1436896025976,1.0
276,1436896025999,1.0
277,1436896026054,1.0
278,1436896026055,2.0
279,1436896026056,2.0
280,1436896026082,2.0
281,1436896026093,2.0
282,1436896026116,2.0
283,1436896026133,2.0
284,1436896026154,1.0
285,1436896026175,1.0
286,1436896026193,2.0
287,1436896026215,2.0
288,1436896026235,1.0
289,1436896026254,1.0
290,1436896026273,0.0
291,1436896026295,0.0
292,1436896026317,0.0
293,1436896026336,0.0
294,1436896026356,0.0
295,1436896026376,0.0
296,1436896026394,0.0
297,1436896026417,1.0
298,1436896026436,1.0
299,1436896026457,1.0
300,1436896026474,1.0
301,1436896026494,1.0
302,1436896026514,1.0
303,1436896026534,2.0
304,1436896026553,2.0
305,1436896026578,2.0
306,1436896026598,2.0
307,1436896026619,2.0
308,1436896026637,2.0
309,1436896026655,2.0
310,1436896026673,2.0
311,1436896026693,2.0
312,1436896026714,2.0
313,1436896026840,2.0
314,1436896026841,2.0
315,1436896026842,1.0
316,1436896026843,1.0
317,1436896026844,0.0
318,1436896026845,0.0
319,1436896026992,0.0
320,1436896026997,0.0
321,1436896026998,0.0
322,1436896026999,0.0
323,1436896027000,0.0
324,1436896027001,0.0
325,1436896027002,1.0
326,1436896027003,1.0
327,1436896027046,1.0
328,1436896027047,1.0
329,1436896027054,1.0
330,1436896027074,1.0
331,1436896027103,2.0
332,1436896027115,2.0
333,1436896027136,2.0
334,1436896027154,2.0
335,1436896027195,2.0
336,1436896027196,2.0
337,1436896027214,2.0
338,1436896027234,2.0
339,1436896027253,2.0
340,1436896027273,2.0
341,1436896027293,2.0
342,1436896027316,1.0
343,1436896027334,1.0
344,1436896027354,0.0
345,1436896027373,0.0
346,1436896027394,0.0
347,1436896027413,0.0
348,1436896027437,0.0
349,1436896027456,0.0
350,1436896027476,1.0
351,1436896027494,1.0
352,1436896027517,1.0
353,1436896027538,1.0
354,1436896027558,2.0
355,1436896027577,2.0
356,1436896027594,2.0
357,1436896027616,2.0
358,1436896027636,2.0
359,1436896027658,2.0
360,1436896027675,2.0
361,1436896027696,2.0
362,1436896027714,2.0
363,1436896027736,2.0
364,1436896027756,3.0
365,1436896027774,3.0
366,1436896027794,2.0
367,1436896027815,2.0
368,1436896027835,1.0
369,1436896027858,1.0
370,1436896027877,1.0
371,1436896027898,1.0
372,1436896027942,0.0
373,1436896027943,0.0
374,1436896027954,0.0
375,1436896027974,0.0
376,1436896027994,0.0
377,1436896028014,0.0
378,1436896028034,0.0
379,1436896028054,1.0
380,1436896028074,1.0
381,1436896028094,1.0
382,1436896028114,1.0
383,1436896028135,1.0
384,1436896028157,1.0
385,1436896028175,1.0
386,1436896028197,1.0
387,1436896028216,1.0
388,1436896028238,1.0
389,1436896028255,2.0
390,1436896028277,2.0
391,1436896028296,2.0
392,1436896028315,2.0
393,1436896028371,0.0
394,1436896028372,0.0
395,1436896028378,0.0
396,1436896028395,0.0
397,1436896028416,0.0
398,1436896028438,0.0
399,1436896028455,0.0
400,1436896028475,0.0
401,1436896028497,0.0
402,1436896028515,0.0
403,1436896028537,0.0
404,1436896028557,0.0
405,1436896028576,0.0
406,1436896028597,0.0
407,1436896028617,0.0
408,1436896028637,0.0
409,1436896028659,0.0
410,1436896028679,0.0
411,1436896028699,0.0
412,1436896028716,0.0
413,1436896028737,0.0
414,1436896028759,0.0
415,1436896028778,0.0
416,1436896028797,0.0
417,1436896028816,0.0
418,1436896028839,0.0
419,1436896028859,0.0
420,1436896028892,0.0
421,1436896028896,0.0
422,1436896028915,0.0
423,1436896028935,0.0
424,1436896028955,0.0
425,1436896028975,0.0
426,1436896028997,0.0
427,1436896029017,0.0
428,1436896029038,0.0
429,1436896029066,0.0
430,1436896029141,0.0
431,1436896029172,0.0
432,1436896029173,0.0
433,1436896029174,0.0
434,1436896029175,1.0
435,1436896029178,1.0
436,1436896029201,1.0
437,1436896029216,1.0
438,1436896029237,1.0
439,1436896029257,1.0
440,1436896029277,1.0
441,1436896029297,1.0
442,1436896029317,1.0
443,1436896029337,1.0
444,1436896029359,1.0
445,1436896029379,1.0
446,1436896029397,0.0
447,1436896029417,0.0
448,1436896029437,0.0
449,1436896029459,0.0
450,1436896029479,1.0
451,1436896029497,1.0
452,1436896029517,1.0
453,1436896029541,1.0
454,1436896029557,1.0
455,1436896029582,1.0
456,1436896029596,1.0
457,1436896029668,1.0
458,1436896029669,1.0
459,1436896029672,1.0
460,1436896029676,1.0
461,1436896029698,1.0
462,1436896029717,1.0
463,1436896029743,1.0
464,1436896029757,1.0
465,1436896029778,2.0
466,1436896029804,2.0
467,1436896029864,1.0
468,1436896029878,1.0
469,1436896029879,2.0
470,1436896029880,2.0
471,1436896029898,1.0
472,1436896029922,1.0
473,1436896029936,0.0
474,1436896029957,0.0
475,1436896029977,0.0
476,1436896029997,0.0
477,1436896030017,0.0
478,1436896030040,0.0
479,1436896030060,1.0
480,1436896030080,1.0
481,1436896030097,1.0
482,1436896030119,1.0
483,1436896030138,1.0
484,1436896030158,1.0
485,1436896030180,1.0
486,1436896030197,1.0
487,1436896030218,1.0
488,1436896030240,1.0
489,1436896030258,1.0
490,1436896030285,1.0
491,1436896030297,2.0
492,1436896030318,2.0
493,1436896030340,1.0
494,1436896030358,1.0
495,1436896030380,1.0
496,1436896030397,1.0
497,1436896030417,1.0
498,1436896030439,1.0
499,1436896030458,0.0
500,1436896030480,0.0
501,1436896030499,0.0
502,1436896030519,0.0
503,1436896030544,0.0
504,1436896030599,0.0
505,1436896030600,0.0
506,1436896030601,0.0
507,1436896030617,0.0
508,1436896030640,1.0
509,1436896030661,1.0
510,1436896030677,1.0
511,1436896030698,1.0
512,1436896030720,1.0
513,1436896030738,1.0
514,1436896030758,1.0
515,1436896030778,1.0
516,1436896030798,1.0
517,1436896030820,1.0
518,1436896030841,1.0
519,1436896030861,1.0
520,1436896030879,1.0
521,1436896030900,1.0
522,1436896030918,2.0
523,1436896030939,2.0
524,1436896030961,2.0
525,1436896030980,2.0
526,1436896031001,1.0
527,1436896031025,1.0
528,1436896031041,1.0
529,1436896031061,1.0
530,1436896031079,2.0
531,1436896031100,2.0
532,1436896031120,2.0
533,1436896031137,2.0
534,1436896031160,1.0
535,1436896031180,1.0
536,1436896031201,1.0
537,1436896031220,1.0
538,1436896031240,1.0
539,1436896031259,1.0
540,1436896031288,1.0
541,1436896031348,1.0
542,1436896031349,1.0
543,1436896031350,1.0
544,1436896031362,1.0
545,1436896031380,0.0
546,1436896031398,0.0
547,1436896031419,0.0
548,1436896031440,0.0
549,1436896031460,0.0
550,1436896031478,0.0
551,1436896031501,0.0
552,1436896031518,0.0
553,1436896031544,0.0
554,1436896031562,0.0
555,1436896031580,0.0
556,1436896031601,0.0
557,1436896031619,0.0
558,1436896031641,0.0
559,1436896031661,0.0
560,1436896031682,0.0
561,1436896031701,0.0
562,1436896031720,0.0
563,1436896031739,0.0
564,1436896031761,0.0
565,1436896031782,0.0
566,1436896031798,0.0
567,1436896031820,0.0
568,1436896031840,0.0
569,1436896031861,0.0
570,1436896031885,0.0
571,1436896031902,0.0
572,1436896031923,0.0
573,1436896031938,0.0
574,1436896031959,0.0
575,1436896031978,0.0
576,1436896032002,0.0
577,1436896032117,0.0
578,1436896032134,0.0
579,1436896032135,0.0
580,1436896032137,0.0
581,1436896032138,0.0
582,1436896032140,0.0
583,1436896032141,0.0
584,1436896032169,0.0
585,1436896032241,0.0
586,1436896032242,0.0
587,1436896032243,0.0
588,1436896032280,0.0
589,1436896032281,0.0
590,1436896032282,0.0
591,1436896032316,0.0
592,1436896032320,1.0
593,1436896032339,1.0
594,1436896032359,1.0
595,1436896032379,1.0
596,1436896032399,1.0
597,1436896032422,1.0
598,1436896032439,1.0
599,1436896032460,1.0
600,1436896032481,1.0
601,1436896032502,1.0
602,1436896032522,1.0
603,1436896032540,1.0
604,1436896032561,1.0
605,1436896032583,1.0
606,1436896032602,0.0
607,1436896032622,0.0
608,1436896032640,0.0
609,1436896032659,0.0
610,1436896032680,0.0
611,1436896032702,0.0
612,1436896032722,0.0
613,1436896032740,0.0
614,1436896032762,0.0
615,1436896032783,0.0
616,1436896032800,0.0
617,1436896032828,0.0
618,1436896032888,1.0
619,1436896032889,1.0
620,1436896032900,1.0
621,1436896032901,1.0
622,1436896032921,1.0
623,1436896032942,1.0
624,1436896032959,1.0
625,1436896032979,1.0
626,1436896033001,2.0
627,1436896033022,2.0
628,1436896033042,2.0
629,1436896033060,2.0
630,1436896033086,2.0
631,1436896033103,2.0
632,1436896033123,2.0
633,1436896033143,1.0
634,1436896033190,1.0
635,1436896033191,0.0
636,1436896033203,0.0
637,1436896033222,0.0
638,1436896033243,0.0
639,1436896033262,0.0
640,1436896033280,0.0
641,1436896033303,0.0
642,1436896033322,0.0
643,1436896033341,0.0
644,1436896033362,0.0
645,1436896033380,0.0
646,1436896033403,0.0
647,1436896033423,0.0
648,1436896033443,0.0
649,1436896033464,1.0
650,1436896033481,1.0
651,1436896033501,1.0
652,1436896033522,1.0
653,1436896033543,1.0
654,1436896033561,1.0
655,1436896033620,1.0
656,1436896033621,1.0
657,1436896033632,2.0
658,1436896033644,2.0
659,1436896033668,2.0
660,1436896033734,2.0
661,1436896033735,3.0
662,1436896033736,3.0
663,1436896033800,3.0
664,1436896033801,3.0
665,1436896033802,3.0
666,1436896033803,3.0
667,1436896033829,3.0
668,1436896033843,3.0
669,1436896033861,3.0
670,1436896033882,2.0
671,1436896033902,2.0
672,1436896033921,2.0
673,1436896033943,2.0
674,1436896033964,2.0
675,1436896033984,2.0
676,1436896034004,2.0
677,1436896034024,2.0
678,1436896034043,2.0
679,1436896034062,2.0
680,1436896034084,2.0
681,1436896034106,2.0
682,1436896034120,2.0
683,1436896034140,2.0
684,1436896034160,2.0
685,1436896034181,2.0
686,1436896034201,3.0
687,1436896034227,3.0
688,1436896034243,2.0
689,1436896034264,2.0
690,1436896034284,1.0
691,1436896034303,1.0
692,1436896034323,1.0
693,1436896034343,1.0
694,1436896034363,1.0
695,1436896034381,1.0
696,1436896034450,1.0
697,1436896034451,1.0
698,1436896034452,1.0
699,1436896034462,1.0
700,1436896034483,2.0
701,1436896034503,2.0
702,1436896034521,2.0
703,1436896034541,2.0
704,1436896034564,3.0
705,1436896034582,3.0
706,1436896034602,3.0
707,1436896034621,3.0
708,1436896034641,3.0
709,1436896034664,3.0
710,1436896034684,3.0
711,1436896034704,4.0
712,1436896034724,4.0
713,1436896034741,3.0
714,1436896034764,3.0
715,1436896034785,2.0
716,1436896034805,2.0
717,1436896034825,2.0
718,1436896034844,2.0
719,1436896034863,2.0
720,1436896034885,2.0
721,1436896034903,2.0
722,1436896034923,2.0
723,1436896034944,1.0
724,1436896034965,1.0
725,1436896034985,1.0
726,1436896035005,1.0
727,1436896035025,2.0
728,1436896035043,2.0
729,1436896035063,2.0
730,1436896035083,2.0
731,1436896035102,2.0
732,1436896035123,2.0
733,1436896035188,2.0
734,1436896035189,2.0
735,1436896035200,2.0
736,1436896035206,2.0
737,1436896035222,2.0
738,1436896035244,2.0
739,1436896035324,2.0
740,1436896035325,2.0
741,1436896035326,2.0
742,1436896035327,2.0
743,1436896035377,2.0
744,1436896035378,2.0
745,1436896035384,2.0
746,1436896035402,2.0
747,1436896035422,2.0
748,1436896035443,2.0
749,1436896035462,2.0
750,1436896035482,2.0
751,1436896035503,2.0
752,1436896035522,2.0
753,1436896035542,2.0
754,1436896035562,2.0
755,1436896035582,2.0
756,1436896035603,2.0
757,1436896035622,2.0
758,1436896035642,2.0
759,1436896035663,2.0
760,1436896035682,2.0
761,1436896035703,2.0
762,1436896035722,2.0
763,1436896035742,2.0
764,1436896035762,3.0
765,1436896035782,3.0
766,1436896035803,3.0
767,1436896035823,3.0
768,1436896035842,2.0
769,1436896035863,2.0
770,1436896035882,1.0
771,1436896035902,1.0
772,1436896035930,0.0
773,1436896035977,0.0
774,1436896035978,0.0
775,1436896035990,0.0
776,1436896036002,0.0
777,1436896036049,0.0
778,1436896036050,1.0
779,1436896036065,1.0
780,1436896036082,2.0
781,1436896036107,2.0
782,1436896036124,2.0
783,1436896036142,2.0
784,1436896036163,2.0
785,1436896036185,2.0
786,1436896036204,2.0
787,1436896036225,2.0
788,1436896036243,2.0
789,1436896036262,2.0
790,1436896036283,2.0
791,1436896036302,2.0
792,1436896036322,3.0
793,1436896036342,3.0
794,1436896036362,4.0
795,1436896036382,3.0
796,1436896036403,3.0
797,1436896036422,3.0
798,1436896036442,3.0
799,1436896036463,3.0
800,1436896036482,3.0
801,1436896036502,3.0
802,1436896036522,3.0
803,1436896036542,2.0
804,1436896036562,2.0
805,1436896036583,2.0
806,1436896036603,2.0
807,1436896036622,1.0
808,1436896036642,1.0
809,1436896036663,1.0
810,1436896036683,1.0
811,1436896036703,1.0
812,1436896036725,1.0
813,1436896036742,1.0
814,1436896036763,1.0
815,1436896036783,1.0
816,1436896036803,1.0
817,1436896036823,2.0
818,1436896036843,2.0
819,1436896036863,2.0
820,1436896036883,2.0
821,1436896036903,2.0
822,1436896036923,2.0
823,1436896036943,3.0
824,1436896036963,3.0
825,1436896036983,3.0
826,1436896037003,3.0
827,1436896037023,3.0
828,1436896037043,3.0
829,1436896037063,3.0
830,1436896037083,3.0
831,1436896037103,2.0
832,1436896037123,2.0
833,1436896037143,2.0
834,1436896037163,2.0
835,1436896037183,2.0
836,1436896037203,2.0
837,1436896037224,2.0
838,1436896037243,2.0
839,1436896037264,2.0
840,1436896037283,2.0
841,1436896037303,2.0
842,1436896037324,1.0
843,1436896037343,1.0
844,1436896037372,2.0
845,1436896037418,2.0
846,1436896037419,2.0
847,1436896037429,2.0
848,1436896037444,1.0
849,1436896037464,1.0
850,1436896037484,1.0
851,1436896037505,1.0
852,1436896037524,1.0
853,1436896037544,1.0
854,1436896037564,1.0
855,1436896037584,1.0
856,1436896037607,1.0
857,1436896037624,1.0
858,1436896037644,1.0
859,1436896037666,1.0
860,1436896037684,1.0
861,1436896037704,1.0
862,1436896037724,1.0
863,1436896037744,1.0
864,1436896037764,2.0
865,1436896037784,2.0
866,1436896037804,2.0
867,1436896037824,2.0
868,1436896037844,3.0
869,1436896037864,3.0
870,1436896037884,3.0
871,1436896037904,3.0
872,1436896037924,4.0
873,1436896037945,4.0
874,1436896037964,4.0
875,1436896037986,4.0
876,1436896038004,3.0
877,1436896038024,3.0
878,1436896038045,3.0
879,1436896038064,3.0
880,1436896038085,3.0
881,1436896038104,3.0
882,1436896038136,3.0
883,1436896038174,2.0
884,1436896038175,2.0
885,1436896038191,2.0
886,1436896038229,2.0
887,1436896038230,2.0
888,1436896038253,2.0
889,1436896038265,2.0
890,1436896038285,2.0
891,1436896038305,2.0
892,1436896038325,2.0
893,1436896038347,3.0
894,1436896038365,3.0
895,1436896038385,2.0
896,1436896038407,2.0
897,1436896038425,2.0
898,1436896038445,2.0
899,1436896038465,3.0
900,1436896038486,3.0
901,1436896038505,3.0
902,1436896038525,3.0
903,1436896038546,2.0
904,1436896038565,2.0
905,1436896038585,2.0
906,1436896038605,2.0
907,1436896038625,2.0
908,1436896038645,2.0
909,1436896038712,2.0
910,1436896038713,2.0
911,1436896038714,1.0
912,1436896038743,1.0
