id,attr_time,attr_light
1,1436896020503,0.0
2,1436896020520,0.0
3,1436896020541,0.0
4,1436896020562,0.0
5,1436896020582,0.0
6,1436896020600,0.0
7,1436896020623,0.0
8,1436896020640,0.0
9,1436896020661,0.0
10,1436896020681,0.0
11,1436896020713,0.0
12,1436896020720,0.0
13,1436896020740,0.0
14,1436896020761,0.0
15,1436896020781,0.0
16,1436896020802,0.0
17,1436896020821,0.0
18,1436896020840,0.0
19,1436896020862,0.0
20,1436896020885,0.0
21,1436896020905,0.0
22,1436896020923,0.0
23,1436896020944,0.0
24,1436896020962,0.0
25,1436896020984,0.0
26,1436896021004,0.0
27,1436896021024,0.0
28,1436896021042,0.0
29,1436896021061,0.0
30,1436896021083,0.0
31,1436896021102,0.0
32,1436896021123,0.0
33,1436896021143,0.0
34,1436896021165,0.0
35,1436896021185,0.0
36,1436896021205,0.0
37,1436896021225,0.0
38,1436896021244,0.0
39,1436896021263,0.0
40,1436896021283,0.0
41,1436896021304,0.0
42,1436896021322,0.0
43,1436896021392,0.0
44,1436896021393,0.0
45,1436896021394,0.0
46,1436896021402,0.0
47,1436896021424,0.0
48,1436896021455,0.0
49,1436896021464,0.0
50,1436896021525,0.0
51,1436896021526,0.0
52,1436896021527,0.0
53,1436896021542,0.0
54,1436896021562,0.0
55,1436896021588,0.0
56,1436896021602,0.0
57,1436896021625,0.0
58,1436896021645,0.0
59,1436896021665,0.0
60,1436896021684,0.0
61,1436896021705,0.0
62,1436896021725,0.0
63,1436896021742,0.0
64,1436896021762,0.0
65,1436896021782,0.0
66,1436896021802,0.0
67,1436896021822,0.0
68,1436896021844,0.0
69,1436896021866,0.0
70,1436896021885,0.0
71,1436896021905,0.0
72,1436896021925,0.0
73,1436896021944,0.0
74,1436896021964,0.0
75,1436896021983,0.0
76,1436896022007,0.0
77,1436896022027,0.0
78,1436896022048,0.0
79,1436896022063,0.0
80,1436896022170,0.0
81,1436896022171,0.0
82,1436896022172,0.0
83,1436896022173,0.0
84,1436896022174,0.0
85,1436896022194,0.0
86,1436896022203,0.0
87,1436896022223,0.0
88,1436896022242,0.0
89,1436896022263,0.0
90,1436896022282,0.0
91,1436896022303,0.0
92,1436896022324,0.0
93,1436896022344,0.0
94,1436896022364,0.0
95,1436896022387,0.0
96,1436896022404,0.0
97,1436896022423,0.0
98,1436896022446,0.0
99,1436896022464,0.0
100,1436896022484,0.0
101,1436896022504,0.0
102,1436896022524,0.0
103,1436896022546,0.0
104,1436896022563,0.0
105,1436896022584,0.0
106,1436896022604,0.0
107,1436896022624,0.0
108,1436896022646,0.0
109,1436896022663,0.0
110,1436896022683,0.0
111,1436896022703,0.0
112,1436896022724,0.0
113,1436896022746,0.0
114,1436896022764,0.0
115,1436896022784,0.0
116,1436896022804,0.0
117,1436896022829,0.0
118,1436896022903,0.0
119,1436896022904,0.0
120,1436896022905,0.0
121,1436896022906,0.0
122,1436896022924,0.0
123,1436896022946,0.0
124,1436896022963,0.0
125,1436896022983,0.0
126,1436896023004,0.0
127,1436896023025,0.0
128,1436896023046,0.0
129,1436896023064,0.0
130,1436896023086,0.0
131,1436896023103,0.0
132,1436896023124,0.0
133,1436896023143,0.0
134,1436896023163,0.0
135,1436896023184,0.0
136,1436896023203,0.0
137,1436896023224,0.0
138,1436896023247,0.0
139,1436896023264,0.0
140,1436896023284,0.0
141,1436896023310,0.0
142,1436896023324,0.0
143,1436896023344,0.0
144,1436896023364,0.0
145,1436896023384,0.0
146,1436896023407,0.0
147,1436896023425,0.0
148,1436896023446,0.0
149,1436896023465,0.0
150,1436896023485,0.0
151,1436896023509,0.0
152,1436896023525,0.0
153,1436896023544,0.0
154,1436896023571,0.0
155,1436896023644,0.0
156,1436896023645,0.0
157,1436896023646,0.0
158,1436896023647,0.0
159,1436896023664,0.0
160,1436896023684,0.0
161,1436896023704,0.0
162,1436896023724,0.0
163,1436896023744,0.0
164,1436896023765,0.0
165,1436896023786,0.0
166,1436896023804,0.0
167,1436896023826,0.0
168,1436896023846,0.0
169,1436896023865,0.0
170,1436896023887,0.0
171,1436896023905,0.0
172,1436896023924,0.0
173,1436896023947,0.0
174,1436896023965,0.0
175,1436896023987,0.0
176,1436896024007,0.0
177,1436896024025,0.0
178,1436896024046,0.0
179,1436896024064,0.0
180,1436896024086,0.0
181,1436896024104,0.0
182,1436896024127,0.0
183,1436896025793,0.0
184,1436896025794,0.0
185,1436896025795,0.0
186,1436896025796,0.0
187,1436896025797,0.0
188,1436896025798,0.0
189,1436896025799,0.0
190,1436896025800,0.0
191,1436896025801,0.0
192,1436896025802,0.0
193,1436896025803,0.0
194,1436896025804,0.0
195,1436896025805,0.0
196,1436896025806,0.0
197,1436896025807,0.0
198,1436896025808,0.0
199,1436896025809,0.0
200,1436896025810,0.0
201,1436896025811,0.0
202,1436896025812,0.0
203,1436896025813,0.0
204,1436896025814,0.0
205,1436896025815,0.0
206,1436896025816,0.0
207,1436896025817,0.0
208,1436896025818,0.0
209,1436896025819,0.0
210,1436896025820,0.0
211,1436896025821,0.0
212,1436896025822,0.0
213,1436896025823,0.0
214,1436896025824,0.0
215,1436896025825,0.0
216,1436896025826,0.0
217,1436896025827,0.0
218,1436896025828,0.0
219,1436896025829,0.0
220,1436896025830,0.0
221,1436896025831,0.0
222,1436896025832,0.0
223,1436896025833,0.0
224,1436896025834,0.0
225,1436896025835,0.0
226,1436896025836,0.0
227,1436896025837,0.0
228,1436896025838,0.0
229,1436896025839,0.0
230,1436896025840,0.0
231,1436896025841,0.0
232,1436896025842,0.0
233,1436896025843,0.0
234,1436896025844,0.0
235,1436896025845,0.0
236,1436896025846,0.0
237,1436896025847,0.0
238,1436896025848,0.0
239,1436896025849,0.0
240,1436896025850,0.0
241,1436896025851,0.0
242,1436896025852,0.0
243,1436896025853,0.0
244,1436896025854,0.0
245,1436896025855,0.0
246,1436896025856,0.0
247,1436896025857,0.0
248,1436896025858,0.0
249,1436896025859,0.0
250,1436896025860,0.0
251,1436896025861,0.0
252,1436896025862,0.0
253,1436896025863,0.0
254,1436896025864,0.0
255,1436896025865,0.0
256,1436896025866,0.0
257,1436896025867,0.0
258,1436896025868,0.0
259,1436896025869,0.0
260,1436896025870,0.0
261,1436896025871,0.0
262,1436896025872,0.0
263,1436896025873,0.0
264,1436896025874,0.0
265,1436896025875,0.0
266,1436896025876,0.0
267,1436896025877,0.0
268,1436896025878,0.0
269,1436896025879,0.0
270,1436896025884,0.0
271,1436896025904,0.0
272,1436896025924,0.0
273,1436896025944,0.0
274,1436896025964,0.0
275,1436896025985,0.0
276,1436896026004,0.0
277,1436896026030,0.0
278,1436896026047,0.0
279,1436896026067,0.0
280,1436896026089,0.0
281,1436896026110,0.0
282,1436896026128,0.0
283,1436896026147,0.0
284,1436896026169,0.0
285,1436896026189,0.0
286,1436896026209,0.0
287,1436896026229,0.0
288,1436896026247,0.0
289,1436896026269,0.0
290,1436896026289,0.0
291,1436896026307,0.0
292,1436896026326,0.0
293,1436896026359,0.0
294,1436896026370,0.0
295,1436896026385,0.0
296,1436896026411,0.0
297,1436896026426,0.0
298,1436896026448,0.0
299,1436896026469,0.0
300,1436896026487,0.0
301,1436896026510,0.0
302,1436896026529,0.0
303,1436896026550,0.0
304,1436896026567,0.0
305,1436896026590,0.0
306,1436896026610,0.0
307,1436896026632,0.0
308,1436896026652,0.0
309,1436896026670,0.0
310,1436896026691,0.0
311,1436896026707,0.0
312,1436896026729,0.0
313,1436896026749,0.0
314,1436896026769,0.0
315,1436896026789,0.0
316,1436896026810,0.0
317,1436896026829,0.0
318,1436896026850,0.0
319,1436896026870,0.0
320,1436896026890,0.0
321,1436896026911,0.0
322,1436896026930,0.0
323,1436896026949,0.0
324,1436896026971,0.0
325,1436896027048,0.0
326,1436896027049,0.0
327,1436896027050,0.0
328,1436896027051,0.0
329,1436896027077,0.0
330,1436896027089,0.0
331,1436896027134,0.0
332,1436896027135,0.0
333,1436896027149,0.0
334,1436896027190,0.0
335,1436896027191,0.0
336,1436896027211,0.0
337,1436896027237,0.0
338,1436896027247,0.0
339,1436896027267,0.0
340,1436896027287,0.0
341,1436896027307,0.0
342,1436896027327,0.0
343,1436896027353,0.0
344,1436896027367,0.0
345,1436896027387,0.0
346,1436896027423,0.0
347,1436896027426,0.0
348,1436896027450,0.0
349,1436896027471,0.0
350,1436896027488,0.0
351,1436896027511,0.0
352,1436896027528,0.0
353,1436896027547,0.0
354,1436896027568,0.0
355,1436896027590,0.0
356,1436896027607,0.0
357,1436896027627,0.0
358,1436896027648,0.0
359,1436896027667,0.0
360,1436896027689,0.0
361,1436896027711,0.0
362,1436896027732,0.0
363,1436896027751,0.0
364,1436896027770,0.0
365,1436896027786,0.0
366,1436896027806,0.0
367,1436896027829,0.0
368,1436896027852,0.0
369,1436896027868,0.0
370,1436896027888,0.0
371,1436896027912,0.0
372,1436896027932,0.0
373,1436896027952,0.0
374,1436896027971,0.0
375,1436896027989,0.0
376,1436896028012,0.0
377,1436896028032,0.0
378,1436896028052,0.0
379,1436896028072,0.0
380,1436896028088,0.0
381,1436896028109,0.0
382,1436896028131,0.0
383,1436896028152,0.0
384,1436896028169,0.0
385,1436896028187,0.0
386,1436896028210,0.0
387,1436896028234,0.0
388,1436896028254,0.0
389,1436896028274,0.0
390,1436896028291,0.0
391,1436896028308,0.0
392,1436896028328,0.0
393,1436896028348,0.0
394,1436896028370,0.0
395,1436896028393,0.0
396,1436896028434,0.0
397,1436896028435,0.0
398,1436896028455,0.0
399,1436896028468,0.0
400,1436896028490,0.0
401,1436896028510,0.0
402,1436896028529,0.0
403,1436896028550,0.0
404,1436896028570,0.0
405,1436896028591,0.0
406,1436896028608,0.0
407,1436896028631,0.0
408,1436896028652,0.0
409,1436896028672,0.0
410,1436896028691,0.0
411,1436896028711,0.0
412,1436896028732,0.0
413,1436896028752,0.0
414,1436896028772,0.0
415,1436896028792,0.0
416,1436896028812,0.0
417,1436896028835,0.0
418,1436896028850,0.0
419,1436896028871,0.0
420,1436896028893,0.0
421,1436896028915,0.0
422,1436896028932,0.0
423,1436896028952,0.0
424,1436896028972,0.0
425,1436896028991,0.0
426,1436896029011,0.0
427,1436896029033,0.0
428,1436896029053,0.0
429,1436896029073,0.0
430,1436896029092,0.0
431,1436896029112,0.0
432,1436896029182,0.0
433,1436896029183,0.0
434,1436896029184,0.0
435,1436896029192,0.0
436,1436896029211,0.0
437,1436896029230,0.0
438,1436896029249,0.0
439,1436896029269,0.0
440,1436896029289,0.0
441,1436896029313,0.0
442,1436896029334,0.0
443,1436896029350,0.0
444,1436896029373,0.0
445,1436896029391,0.0
446,1436896029413,0.0
447,1436896029433,0.0
448,1436896029452,0.0
449,1436896029472,0.0
450,1436896029492,0.0
451,1436896029512,0.0
452,1436896029533,0.0
453,1436896030923,0.0
454,1436896030924,0.0
455,1436896030925,0.0
456,1436896030926,0.0
457,1436896030927,0.0
458,1436896030928,0.0
459,1436896030929,0.0
460,1436896030930,0.0
461,1436896030931,0.0
462,1436896030932,0.0
463,1436896030933,0.0
464,1436896030934,0.0
465,1436896030935,0.0
466,1436896030936,0.0
467,1436896030937,0.0
468,1436896030938,0.0
469,1436896030939,0.0
470,1436896030940,0.0
471,1436896030941,0.0
472,1436896030942,0.0
473,1436896030943,0.0
474,1436896030944,0.0
475,1436896030945,0.0
476,1436896030946,0.0
477,1436896030947,0.0
478,1436896030948,0.0
479,1436896030949,0.0
480,1436896030950,0.0
481,1436896030951,0.0
482,1436896030952,0.0
483,1436896030953,0.0
484,1436896030954,0.0
485,1436896030955,0.0
486,1436896030956,0.0
487,1436896030957,0.0
488,1436896030958,0.0
489,1436896030959,0.0
490,1436896030960,0.0
491,1436896030961,0.0
492,1436896030962,0.0
493,1436896030963,0.0
494,1436896030964,0.0
495,1436896030965,0.0
496,1436896030966,0.0
497,1436896030967,0.0
498,1436896030968,0.0
499,1436896030969,0.0
500,1436896030970,0.0
501,1436896030971,0.0
502,1436896030972,0.0
503,1436896030973,0.0
504,1436896030974,0.0
505,1436896030975,0.0
506,1436896030976,0.0
507,1436896030977,0.0
508,1436896030978,0.0
509,1436896030979,0.0
510,1436896030980,0.0
511,1436896030981,0.0
512,1436896030982,0.0
513,1436896030983,0.0
514,1436896030984,0.0
515,1436896030985,0.0
516,1436896030986,0.0
517,1436896030987,0.0
518,1436896030988,0.0
519,1436896030989,0.0
520,1436896030990,0.0
521,1436896030991,0.0
522,1436896030992,0.0
523,1436896030993,0.0
524,1436896030994,0.0
525,1436896030995,0.0
526,1436896031009,0.0
527,1436896031029,0.0
528,1436896031049,0.0
529,1436896031069,0.0
530,1436896031089,0.0
531,1436896031109,0.0
532,1436896031130,0.0
533,1436896031149,0.0
534,1436896031169,0.0
535,1436896031192,0.0
536,1436896031213,0.0
537,1436896031232,0.0
538,1436896031254,0.0
539,1436896031271,0.0
540,1436896031290,0.0
541,1436896031310,0.0
542,1436896031368,0.0
543,1436896031375,0.0
544,1436896031376,0.0
545,1436896031390,0.0
546,1436896031410,0.0
547,1436896031430,0.0
548,1436896031451,0.0
549,1436896031476,0.0
550,1436896031491,0.0
551,1436896031510,0.0
552,1436896031530,0.0
553,1436896031550,0.0
554,1436896031570,0.0
555,1436896031590,0.0
556,1436896031610,0.0
557,1436896031630,0.0
558,1436896031650,0.0
559,1436896031670,0.0
560,1436896031690,0.0
561,1436896031710,0.0
562,1436896031730,0.0
563,1436896031752,0.0
564,1436896031773,0.0
565,1436896031791,0.0
566,1436896031811,0.0
567,1436896031832,0.0
568,1436896031853,0.0
569,1436896031874,0.0
570,1436896031892,0.0
571,1436896031913,0.0
572,1436896031935,0.0
573,1436896031954,0.0
574,1436896031976,0.0
575,1436896031995,0.0
576,1436896032012,0.0
577,1436896032032,0.0
578,1436896032056,0.0
579,1436896032173,0.0
580,1436896032174,0.0
581,1436896032175,0.0
582,1436896032176,0.0
583,1436896032177,0.0
584,1436896032178,0.0
585,1436896032192,0.0
586,1436896032213,0.0
587,1436896032232,0.0
588,1436896032253,0.0
589,1436896032273,0.0
590,1436896032292,0.0
591,1436896032313,0.0
592,1436896032333,0.0
593,1436896032354,0.0
594,1436896032373,0.0
595,1436896032395,0.0
596,1436896032415,0.0
597,1436896032449,0.0
598,1436896032452,0.0
599,1436896032472,0.0
600,1436896032492,0.0
601,1436896032512,0.0
602,1436896032534,0.0
603,1436896032557,0.0
604,1436896032573,0.0
605,1436896032595,0.0
606,1436896032614,0.0
607,1436896032635,0.0
608,1436896032653,0.0
609,1436896032676,0.0
610,1436896032700,0.0
611,1436896032725,0.0
612,1436896032733,0.0
613,1436896032752,0.0
614,1436896032773,0.0
615,1436896032794,0.0
616,1436896032814,0.0
617,1436896032835,0.0
618,1436896032905,0.0
619,1436896032906,0.0
620,1436896032907,0.0
621,1436896032913,0.0
622,1436896032932,0.0
623,1436896032952,0.0
624,1436896032972,0.0
625,1436896032995,0.0
626,1436896033012,0.0
627,1436896033033,0.0
628,1436896033064,0.0
629,1436896033073,0.0
630,1436896033101,0.0
631,1436896033112,0.0
632,1436896033134,0.0
633,1436896033154,0.0
634,1436896033173,0.0
635,1436896033194,0.0
636,1436896033216,0.0
637,1436896033236,0.0
638,1436896033256,0.0
639,1436896033274,0.0
640,1436896033295,0.0
641,1436896033314,0.0
642,1436896033336,0.0
643,1436896033353,0.0
644,1436896033373,0.0
645,1436896033393,0.0
646,1436896033413,0.0
647,1436896033434,0.0
648,1436896033460,0.0
649,1436896033474,0.0
650,1436896033493,0.0
651,1436896033514,0.0
652,1436896033536,0.0
653,1436896033556,0.0
654,1436896033622,0.0
655,1436896033623,0.0
656,1436896033624,0.0
657,1436896033633,0.0
658,1436896033655,0.0
659,1436896033673,0.0
660,1436896033693,0.0
661,1436896033714,0.0
662,1436896033735,0.0
663,1436896033754,0.0
664,1436896033775,0.0
665,1436896033794,0.0
666,1436896033817,0.0
667,1436896033836,0.0
668,1436896033856,0.0
669,1436896033874,0.0
670,1436896033894,0.0
671,1436896033913,0.0
672,1436896033934,0.0
673,1436896033956,0.0
674,1436896033974,0.0
675,1436896033995,0.0
676,1436896034014,0.0
677,1436896034034,0.0
678,1436896034055,0.0
679,1436896034074,0.0
680,1436896034098,0.0
681,1436896034114,0.0
682,1436896034138,0.0
683,1436896034154,0.0
684,1436896034175,0.0
685,1436896034194,0.0
686,1436896034214,0.0
687,1436896034234,0.0
688,1436896034256,0.0
689,1436896034279,0.0
690,1436896034342,0.0
691,1436896034343,0.0
692,1436896034344,0.0
693,1436896034354,0.0
694,1436896034398,0.0
695,1436896034399,0.0
696,1436896034414,0.0
697,1436896034435,0.0
698,1436896034454,0.0
699,1436896034475,0.0
700,1436896034502,0.0
701,1436896034515,0.0
702,1436896034534,0.0
703,1436896034557,0.0
704,1436896034575,0.0
705,1436896034597,0.0
706,1436896034614,0.0
707,1436896034635,0.0
708,1436896034657,0.0
709,1436896034675,0.0
710,1436896034697,0.0
711,1436896034715,0.0
712,1436896034741,0.0
713,1436896034757,0.0
714,1436896034775,0.0
715,1436896034797,0.0
716,1436896034815,0.0
717,1436896034836,0.0
718,1436896034857,0.0
719,1436896034876,0.0
720,1436896034896,0.0
721,1436896034917,0.0
722,1436896034937,0.0
723,1436896034979,0.0
724,1436896034980,0.0
725,1436896035137,0.0
726,1436896035138,0.0
727,1436896035139,0.0
728,1436896035140,0.0
729,1436896035141,0.0
730,1436896035155,0.0
731,1436896035156,0.0
732,1436896035157,0.0
733,1436896035158,0.0
734,1436896035174,0.0
735,1436896035198,0.0
736,1436896035215,0.0
737,1436896035235,0.0
738,1436896035255,0.0
739,1436896035275,0.0
740,1436896035295,0.0
741,1436896035315,0.0
742,1436896035337,0.0
743,1436896035358,0.0
744,1436896035379,0.0
745,1436896035397,0.0
746,1436896035419,0.0
747,1436896035435,0.0
748,1436896035456,0.0
749,1436896035479,0.0
750,1436896035496,0.0
751,1436896035519,0.0
752,1436896035537,0.0
753,1436896035557,0.0
754,1436896035577,0.0
755,1436896035597,0.0
756,1436896035618,0.0
757,1436896035637,0.0
758,1436896035658,0.0
759,1436896035678,0.0
760,1436896035699,0.0
761,1436896035717,0.0
762,1436896035736,0.0
763,1436896035756,0.0
764,1436896035777,0.0
765,1436896035796,0.0
766,1436896035826,0.0
767,1436896035842,0.0
768,1436896035855,0.0
769,1436896035874,0.0
770,1436896035898,0.0
771,1436896035916,0.0
772,1436896035937,0.0
773,1436896035957,0.0
774,1436896035979,0.0
775,1436896035998,0.0
776,1436896036019,0.0
777,1436896036039,0.0
778,1436896036057,0.0
779,1436896036079,0.0
780,1436896036098,0.0
781,1436896036118,0.0
782,1436896036138,0.0
783,1436896036159,0.0
784,1436896036176,0.0
785,1436896036199,0.0
786,1436896036219,0.0
787,1436896036239,0.0
788,1436896036259,0.0
789,1436896036280,0.0
790,1436896036297,0.0
791,1436896036318,0.0
792,1436896036337,0.0
793,1436896036358,0.0
794,1436896036379,0.0
795,1436896036399,0.0
796,1436896036417,0.0
797,1436896036447,0.0
798,1436896036501,0.0
799,1436896036502,0.0
800,1436896036503,0.0
801,1436896036523,0.0
802,1436896036536,0.0
803,1436896036556,0.0
804,1436896036577,0.0
805,1436896036596,0.0
806,1436896036619,0.0
807,1436896036636,0.0
808,1436896036657,0.0
809,1436896036677,0.0
810,1436896036702,0.0
811,1436896036716,0.0
812,1436896036739,0.0
813,1436896036757,0.0
814,1436896036779,0.0
815,1436896036799,0.0
816,1436896036819,0.0
817,1436896036839,0.0
818,1436896036856,0.0
819,1436896036878,0.0
820,1436896036900,0.0
821,1436896036917,0.0
822,1436896036939,0.0
823,1436896036961,0.0
824,1436896036979,0.0
825,1436896036997,0.0
826,1436896037019,0.0
827,1436896037044,0.0
828,1436896037057,0.0
829,1436896037079,0.0
830,1436896037101,0.0
831,1436896037122,0.0
832,1436896037142,0.0
833,1436896037159,0.0
834,1436896037245,0.0
835,1436896037246,0.0
836,1436896037247,0.0
837,1436896037248,0.0
838,1436896037256,0.0
839,1436896037282,0.0
840,1436896037297,0.0
841,1436896037317,0.0
842,1436896037340,0.0
843,1436896037365,0.0
844,1436896037378,0.0
845,1436896037403,0.0
846,1436896037417,0.0
847,1436896037440,0.0
848,1436896037459,0.0
849,1436896037480,0.0
850,1436896037499,0.0
851,1436896037520,0.0
852,1436896037540,0.0
853,1436896037557,0.0
854,1436896037581,0.0
855,1436896037600,0.0
856,1436896037620,0.0
857,1436896037637,0.0
858,1436896037660,0.0
859,1436896037682,0.0
860,1436896037700,0.0
861,1436896037720,0.0
862,1436896037737,0.0
863,1436896037757,0.0
864,1436896037780,0.0
865,1436896037800,0.0
866,1436896037820,0.0
867,1436896037841,0.0
868,1436896037865,0.0
869,1436896037877,0.0
870,1436896037898,0.0
871,1436896037943,0.0
872,1436896037944,0.0
873,1436896037963,0.0
874,1436896037977,0.0
875,1436896037997,0.0
876,1436896038017,0.0
877,1436896038037,0.0
878,1436896038080,0.0
879,1436896038081,0.0
880,1436896038110,0.0
881,1436896038118,0.0
882,1436896038141,0.0
883,1436896038164,0.0
884,1436896038177,0.0
885,1436896038197,0.0
886,1436896038319,0.0
887,1436896038320,0.0
888,1436896038321,0.0
889,1436896038322,0.0
890,1436896038323,0.0
891,1436896038324,0.0
892,1436896038529,0.0
893,1436896038530,0.0
894,1436896038531,0.0
895,1436896038532,0.0
896,1436896038533,0.0
897,1436896038534,0.0
898,1436896038535,0.0
899,1436896038536,0.0
900,1436896038537,0.0
901,1436896038538,0.0
902,1436896038545,0.0
903,1436896038557,0.0
904,1436896038577,0.0
905,1436896038597,0.0
906,1436896038620,0.0
907,1436896038637,0.0
908,1436896038657,0.0
909,1436896038677,0.0
910,1436896038696,0.0
911,1436896038716,0.0
912,1436896038736,0.0
