id,attr_time,attr_light
1,1437145182034,180.0
2,1437145182053,180.0
3,1437145182073,180.0
4,1437145182096,180.0
5,1437145182113,180.0
6,1437145182133,180.0
7,1437145182156,180.0
8,1437145182176,180.0
9,1437145182196,180.0
10,1437145182213,180.0
11,1437145182233,180.0
12,1437145182256,180.0
13,1437145182273,180.0
14,1437145182295,180.0
15,1437145182315,180.0
16,1437145182335,180.0
17,1437145182355,179.0
18,1437145182375,179.0
19,1437145182396,179.0
20,1437145182418,179.0
21,1437145182437,179.0
22,1437145182456,179.0
23,1437145182474,179.0
24,1437145182495,179.0
25,1437145182516,179.0
26,1437145182534,179.0
27,1437145182636,179.0
28,1437145182637,179.0
29,1437145182638,179.0
30,1437145182639,179.0
31,1437145182640,179.0
32,1437145182661,179.0
33,1437145182702,179.0
34,1437145182703,179.0
35,1437145182715,179.0
36,1437145182751,178.0
37,1437145182767,178.0
38,1437145182774,178.0
39,1437145182799,178.0
40,1437145182814,178.0
41,1437145182841,178.0
42,1437145182868,177.0
43,1437145182873,177.0
44,1437145182893,177.0
45,1437145182913,177.0
46,1437145182933,177.0
47,1437145183083,177.0
48,1437145183084,177.0
49,1437145183085,176.0
50,1437145183086,176.0
51,1437145183087,177.0
52,1437145183088,177.0
53,1437145183089,176.0
54,1437145183121,176.0
55,1437145183122,176.0
56,1437145183140,176.0
57,1437145183156,176.0
58,1437145183178,175.0
59,1437145183192,175.0
60,1437145183212,174.0
61,1437145183232,174.0
62,1437145183254,173.0
63,1437145183272,173.0
64,1437145183292,172.0
65,1437145183313,172.0
66,1437145183333,171.0
67,1437145183352,171.0
68,1437145183373,171.0
69,1437145183392,171.0
70,1437145183412,171.0
71,1437145183432,171.0
72,1437145183453,170.0
73,1437145183473,170.0
74,1437145183493,170.0
75,1437145183512,170.0
76,1437145183532,170.0
77,1437145183555,170.0
78,1437145183577,170.0
79,1437145183596,170.0
80,1437145183613,170.0
81,1437145183636,170.0
82,1437145183657,170.0
83,1437145183677,170.0
84,1437145183696,170.0
85,1437145183715,170.0
86,1437145183736,170.0
87,1437145183758,170.0
88,1437145183773,170.0
89,1437145183793,170.0
90,1437145183813,170.0
91,1437145183833,170.0
92,1437145183855,170.0
93,1437145183885,170.0
94,1437145183929,170.0
95,1437145183930,170.0
96,1437145183949,170.0
97,1437145183955,170.0
98,1437145183973,170.0
99,1437145183993,170.0
100,1437145184013,170.0
101,1437145184033,170.0
102,1437145184053,170.0
103,1437145184073,170.0
104,1437145184093,170.0
105,1437145184113,170.0
106,1437145184133,170.0
107,1437145184153,170.0
108,1437145184173,170.0
109,1437145184193,169.0
110,1437145184213,169.0
111,1437145184234,169.0
112,1437145184253,169.0
113,1437145184275,168.0
114,1437145184297,168.0
115,1437145184316,168.0
116,1437145184336,167.0
117,1437145184356,167.0
118,1437145184375,166.0
119,1437145184396,166.0
120,1437145184416,166.0
121,1437145184438,166.0
122,1437145184458,165.0
123,1437145184476,165.0
124,1437145184496,165.0
125,1437145184519,165.0
126,1437145184538,164.0
127,1437145184556,164.0
128,1437145184576,164.0
129,1437145184595,164.0
130,1437145184617,163.0
131,1437145184642,163.0
132,1437145184656,163.0
133,1437145184680,163.0
134,1437145184697,163.0
135,1437145184716,164.0
136,1437145184735,164.0
137,1437145184758,164.0
138,1437145184777,164.0
139,1437145184798,164.0
140,1437145184818,164.0
141,1437145184838,165.0
142,1437145184858,165.0
143,1437145184877,165.0
144,1437145184898,165.0
145,1437145184916,166.0
146,1437145184943,166.0
147,1437145184958,166.0
148,1437145184977,166.0
149,1437145184998,166.0
150,1437145185019,166.0
151,1437145185038,166.0
152,1437145185058,166.0
153,1437145185078,166.0
154,1437145185098,165.0
155,1437145185119,165.0
156,1437145185138,165.0
157,1437145185158,165.0
158,1437145185176,165.0
159,1437145185205,164.0
160,1437145185276,164.0
161,1437145185277,164.0
162,1437145185278,164.0
163,1437145185279,164.0
164,1437145185296,164.0
165,1437145185318,163.0
166,1437145185335,163.0
167,1437145185367,163.0
168,1437145185376,163.0
169,1437145185397,162.0
170,1437145185421,162.0
171,1437145185436,160.0
172,1437145185461,160.0
173,1437145185479,159.0
174,1437145185503,157.0
175,1437145185519,157.0
176,1437145185540,155.0
177,1437145185558,155.0
178,1437145185579,153.0
179,1437145185599,153.0
180,1437145185620,151.0
181,1437145185641,151.0
182,1437145185659,148.0
183,1437145185676,148.0
184,1437145185696,146.0
185,1437145185724,146.0
186,1437145185743,144.0
187,1437145185756,144.0
188,1437145185776,141.0
189,1437145185796,138.0
190,1437145185843,138.0
191,1437145185844,136.0
192,1437145185856,136.0
193,1437145185876,134.0
194,1437145185899,134.0
195,1437145185916,131.0
196,1437145186001,131.0
197,1437145186002,130.0
198,1437145186003,130.0
199,1437145186004,127.0
200,1437145186061,127.0
201,1437145186062,125.0
202,1437145186063,123.0
203,1437145186077,123.0
204,1437145186097,123.0
205,1437145186116,123.0
206,1437145186136,123.0
207,1437145186158,123.0
208,1437145186177,125.0
209,1437145186199,125.0
210,1437145186220,128.0
211,1437145186240,128.0
212,1437145186259,133.0
213,1437145186280,133.0
214,1437145186299,138.0
215,1437145186319,138.0
216,1437145186340,145.0
217,1437145186357,151.0
218,1437145186378,151.0
219,1437145186398,158.0
220,1437145186420,158.0
221,1437145186438,163.0
222,1437145186460,163.0
223,1437145186476,167.0
224,1437145186501,167.0
225,1437145186521,170.0
226,1437145186541,170.0
227,1437145186560,172.0
228,1437145186576,172.0
229,1437145186597,172.0
230,1437145186715,172.0
231,1437145186716,173.0
232,1437145186717,173.0
233,1437145186718,173.0
234,1437145186719,174.0
235,1437145186720,174.0
236,1437145186753,175.0
237,1437145186757,175.0
238,1437145186786,176.0
239,1437145186800,176.0
240,1437145186821,177.0
241,1437145186837,177.0
242,1437145186857,177.0
243,1437145186880,177.0
244,1437145186918,177.0
245,1437145186919,177.0
246,1437145186950,178.0
247,1437145186959,179.0
248,1437145186985,179.0
249,1437145186999,180.0
250,1437145187017,180.0
251,1437145187037,182.0
252,1437145187068,182.0
253,1437145187076,183.0
254,1437145187096,183.0
255,1437145187116,184.0
256,1437145187136,184.0
257,1437145187156,185.0
258,1437145187176,185.0
259,1437145187197,185.0
260,1437145187216,186.0
261,1437145187236,186.0
262,1437145187256,186.0
263,1437145187276,186.0
264,1437145187296,185.0
265,1437145187316,185.0
266,1437145187336,184.0
267,1437145187356,184.0
268,1437145187376,183.0
269,1437145187396,183.0
270,1437145187416,182.0
271,1437145187436,182.0
272,1437145187457,182.0
273,1437145187479,182.0
274,1437145187497,182.0
275,1437145187519,181.0
276,1437145187542,181.0
277,1437145187561,181.0
278,1437145187580,181.0
279,1437145187599,181.0
280,1437145187620,181.0
281,1437145187638,180.0
282,1437145187660,180.0
283,1437145187681,180.0
284,1437145187698,180.0
285,1437145187720,180.0
286,1437145187739,180.0
287,1437145187760,179.0
288,1437145187777,179.0
289,1437145187798,180.0
290,1437145187818,179.0
291,1437145187842,179.0
292,1437145187862,178.0
293,1437145187880,178.0
294,1437145187900,177.0
295,1437145187918,177.0
296,1437145187938,177.0
297,1437145187958,177.0
298,1437145187979,178.0
299,1437145188000,178.0
300,1437145188028,178.0
301,1437145188045,178.0
302,1437145188063,180.0
303,1437145188079,181.0
304,1437145188099,181.0
305,1437145188129,182.0
306,1437145188138,182.0
307,1437145188159,183.0
308,1437145188251,183.0
309,1437145188252,184.0
310,1437145188253,184.0
311,1437145188254,184.0
312,1437145188463,184.0
313,1437145188464,185.0
314,1437145188465,185.0
315,1437145188466,187.0
316,1437145188467,187.0
317,1437145188468,190.0
318,1437145188469,193.0
319,1437145188470,193.0
320,1437145188471,196.0
321,1437145188472,196.0
322,1437145188473,197.0
323,1437145188593,197.0
324,1437145188594,199.0
325,1437145188595,199.0
326,1437145188596,200.0
327,1437145188597,200.0
328,1437145188598,201.0
329,1437145188617,201.0
330,1437145188624,202.0
331,1437145188661,202.0
332,1437145188662,203.0
333,1437145188678,203.0
334,1437145188698,203.0
335,1437145188718,203.0
336,1437145188737,203.0
337,1437145188758,203.0
338,1437145188778,203.0
339,1437145188798,203.0
340,1437145188818,203.0
341,1437145188838,203.0
342,1437145188858,203.0
343,1437145188878,202.0
344,1437145188898,202.0
345,1437145188918,202.0
346,1437145188938,201.0
347,1437145188958,201.0
348,1437145188978,200.0
349,1437145188998,200.0
350,1437145189018,199.0
351,1437145189038,199.0
352,1437145189059,198.0
353,1437145189079,198.0
354,1437145189102,197.0
355,1437145189123,197.0
356,1437145189142,197.0
357,1437145189159,197.0
358,1437145189183,196.0
359,1437145189202,196.0
360,1437145189223,196.0
361,1437145189241,196.0
362,1437145189261,196.0
363,1437145189282,196.0
364,1437145189302,196.0
365,1437145189322,195.0
366,1437145189343,195.0
367,1437145189364,195.0
368,1437145189379,195.0
369,1437145189399,194.0
370,1437145189422,194.0
371,1437145189440,193.0
372,1437145189462,193.0
373,1437145189480,193.0
374,1437145189500,193.0
375,1437145189541,193.0
376,1437145189542,193.0
377,1437145189561,193.0
378,1437145189580,194.0
379,1437145189600,194.0
380,1437145189622,195.0
381,1437145189642,195.0
382,1437145189670,195.0
383,1437145189682,195.0
384,1437145189702,195.0
385,1437145189723,195.0
386,1437145189741,195.0
387,1437145189763,195.0
388,1437145189782,195.0
389,1437145189802,195.0
390,1437145189823,194.0
391,1437145189843,194.0
392,1437145189863,194.0
393,1437145189882,194.0
394,1437145189902,194.0
395,1437145189920,194.0
396,1437145189941,194.0
397,1437145189960,194.0
398,1437145189981,194.0
399,1437145190005,194.0
400,1437145190026,194.0
401,1437145190046,194.0
402,1437145190063,194.0
403,1437145190082,194.0
404,1437145190101,194.0
405,1437145190121,194.0
406,1437145190142,194.0
407,1437145190161,194.0
408,1437145190235,194.0
409,1437145190236,194.0
410,1437145190237,193.0
411,1437145190245,193.0
412,1437145190262,193.0
413,1437145190285,193.0
414,1437145190300,193.0
415,1437145190330,193.0
416,1437145190340,193.0
417,1437145190361,193.0
418,1437145190386,193.0
419,1437145190402,193.0
420,1437145190421,193.0
421,1437145190441,193.0
422,1437145190463,193.0
423,1437145190483,193.0
424,1437145190503,193.0
425,1437145190523,193.0
426,1437145190546,193.0
427,1437145190563,194.0
428,1437145190584,194.0
429,1437145190602,194.0
430,1437145190621,194.0
431,1437145190645,194.0
432,1437145190662,194.0
433,1437145190681,194.0
434,1437145190702,195.0
435,1437145190721,195.0
436,1437145190745,195.0
437,1437145190763,195.0
438,1437145190786,195.0
439,1437145190801,195.0
440,1437145190822,196.0
441,1437145190842,196.0
442,1437145190862,196.0
443,1437145190881,196.0
444,1437145190902,196.0
445,1437145190952,196.0
446,1437145190953,196.0
447,1437145190972,196.0
448,1437145190981,196.0
449,1437145191001,196.0
450,1437145191030,196.0
451,1437145191050,196.0
452,1437145191061,196.0
453,1437145191081,196.0
454,1437145191110,196.0
455,1437145191176,196.0
456,1437145191177,196.0
457,1437145191178,196.0
458,1437145191184,196.0
459,1437145191205,196.0
460,1437145191221,196.0
461,1437145191241,195.0
462,1437145191264,195.0
463,1437145191281,195.0
464,1437145191301,195.0
465,1437145191321,195.0
466,1437145191341,195.0
467,1437145191361,195.0
468,1437145191434,194.0
469,1437145191435,194.0
470,1437145191436,194.0
471,1437145191444,194.0
472,1437145191483,194.0
473,1437145191486,194.0
474,1437145191509,194.0
475,1437145191531,194.0
476,1437145191542,194.0
477,1437145191561,194.0
478,1437145191581,194.0
479,1437145191601,194.0
480,1437145191621,194.0
481,1437145191641,193.0
482,1437145191661,193.0
483,1437145191681,193.0
484,1437145191708,193.0
485,1437145191721,193.0
486,1437145191741,193.0
487,1437145191761,193.0
488,1437145191781,193.0
489,1437145191801,193.0
490,1437145191821,193.0
491,1437145191841,193.0
492,1437145191861,193.0
493,1437145191881,193.0
494,1437145191901,193.0
495,1437145191921,193.0
496,1437145191941,193.0
497,1437145191963,193.0
498,1437145191983,193.0
499,1437145192002,193.0
500,1437145192021,193.0
501,1437145192042,193.0
502,1437145192061,193.0
503,1437145192083,193.0
504,1437145192104,193.0
505,1437145192124,193.0
506,1437145192144,193.0
507,1437145192161,192.0
508,1437145192182,192.0
509,1437145192201,191.0
510,1437145192222,191.0
511,1437145192242,190.0
512,1437145192277,190.0
513,1437145192285,190.0
514,1437145192303,190.0
515,1437145192324,190.0
516,1437145192344,190.0
517,1437145192362,190.0
518,1437145192384,190.0
519,1437145192408,190.0
520,1437145192423,190.0
521,1437145192443,190.0
522,1437145192466,190.0
523,1437145192482,190.0
524,1437145192505,190.0
525,1437145192526,190.0
526,1437145192544,191.0
527,1437145192564,191.0
528,1437145192584,191.0
529,1437145192603,191.0
530,1437145192624,192.0
531,1437145192647,192.0
532,1437145192663,192.0
533,1437145192689,192.0
534,1437145192704,193.0
535,1437145192728,195.0
536,1437145192743,195.0
537,1437145192763,198.0
538,1437145192783,198.0
539,1437145192802,201.0
540,1437145192824,201.0
541,1437145192843,204.0
542,1437145192864,204.0
543,1437145192886,207.0
544,1437145192908,207.0
545,1437145192988,209.0
546,1437145192989,209.0
547,1437145192990,211.0
548,1437145192991,211.0
549,1437145193003,213.0
550,1437145193038,215.0
551,1437145193044,215.0
552,1437145193077,218.0
553,1437145193084,218.0
554,1437145193104,222.0
555,1437145193124,222.0
556,1437145193144,228.0
557,1437145193164,228.0
558,1437145193186,232.0
559,1437145193204,232.0
560,1437145193226,224.0
561,1437145193244,224.0
562,1437145193265,210.0
563,1437145193286,197.0
564,1437145193305,197.0
565,1437145193327,190.0
566,1437145193346,190.0
567,1437145193365,184.0
568,1437145193385,184.0
569,1437145193407,177.0
570,1437145193427,177.0
571,1437145193448,174.0
572,1437145193466,174.0
573,1437145193487,172.0
574,1437145193507,172.0
575,1437145193527,168.0
576,1437145193548,168.0
577,1437145193565,163.0
578,1437145193586,156.0
579,1437145193611,156.0
580,1437145193635,151.0
581,1437145193706,151.0
582,1437145193707,146.0
583,1437145193708,146.0
584,1437145193709,144.0
585,1437145193725,144.0
586,1437145193747,142.0
587,1437145193768,142.0
588,1437145193784,141.0
589,1437145193804,141.0
590,1437145193824,141.0
591,1437145193850,141.0
592,1437145193865,141.0
593,1437145193885,142.0
594,1437145193916,142.0
595,1437145193924,143.0
596,1437145193945,143.0
597,1437145193966,144.0
598,1437145193986,144.0
599,1437145194006,145.0
600,1437145194026,145.0
601,1437145194044,146.0
602,1437145194065,146.0
603,1437145194086,147.0
604,1437145194106,147.0
605,1437145194127,149.0
606,1437145194147,153.0
607,1437145194168,153.0
608,1437145194186,159.0
609,1437145194209,159.0
610,1437145194230,162.0
611,1437145194249,162.0
612,1437145194267,162.0
613,1437145194285,162.0
614,1437145194304,159.0
615,1437145194325,159.0
616,1437145194351,156.0
617,1437145194372,156.0
618,1437145194390,151.0
619,1437145194407,151.0
620,1437145194427,146.0
621,1437145194510,142.0
622,1437145194511,142.0
623,1437145194512,139.0
624,1437145194513,139.0
625,1437145194525,137.0
626,1437145194552,137.0
627,1437145194575,134.0
628,1437145194588,134.0
629,1437145194609,132.0
630,1437145194624,132.0
631,1437145194645,131.0
632,1437145194670,131.0
633,1437145194685,130.0
634,1437145194710,130.0
635,1437145194726,131.0
636,1437145194746,131.0
637,1437145194768,131.0
638,1437145194787,133.0
639,1437145194807,133.0
640,1437145194827,135.0
641,1437145194848,135.0
642,1437145194869,138.0
643,1437145194887,138.0
644,1437145194906,142.0
645,1437145194927,142.0
646,1437145194950,148.0
647,1437145194979,148.0
648,1437145194985,147.0
649,1437145195005,140.0
650,1437145195028,140.0
651,1437145195048,136.0
652,1437145195068,136.0
653,1437145195085,138.0
654,1437145195109,138.0
655,1437145195126,142.0
656,1437145195148,142.0
657,1437145195169,144.0
658,1437145195188,144.0
659,1437145195206,144.0
660,1437145195229,144.0
661,1437145195298,143.0
662,1437145195299,143.0
663,1437145195300,141.0
664,1437145195307,140.0
665,1437145195325,140.0
666,1437145195349,139.0
667,1437145195386,139.0
668,1437145195387,138.0
669,1437145195407,138.0
670,1437145195432,137.0
671,1437145195446,137.0
672,1437145195469,137.0
673,1437145195486,137.0
674,1437145195509,136.0
675,1437145195529,136.0
676,1437145195548,137.0
677,1437145195572,137.0
678,1437145195589,138.0
679,1437145195610,140.0
680,1437145195627,140.0
681,1437145195651,141.0
682,1437145195667,141.0
683,1437145195689,142.0
684,1437145195712,142.0
685,1437145195730,142.0
686,1437145195749,142.0
687,1437145195769,142.0
688,1437145195789,142.0
689,1437145195809,142.0
690,1437145195826,142.0
691,1437145195849,142.0
692,1437145195869,142.0
693,1437145195890,142.0
694,1437145195908,142.0
695,1437145195930,142.0
696,1437145196021,141.0
697,1437145196022,141.0
698,1437145196023,140.0
699,1437145196028,140.0
700,1437145196030,138.0
701,1437145196051,138.0
702,1437145196066,137.0
703,1437145196111,137.0
704,1437145196112,134.0
705,1437145196164,134.0
706,1437145196165,130.0
707,1437145196180,125.0
708,1437145196221,125.0
709,1437145196222,123.0
710,1437145196226,123.0
711,1437145196247,120.0
712,1437145196271,120.0
713,1437145196286,119.0
714,1437145196306,119.0
715,1437145196326,119.0
716,1437145196346,119.0
717,1437145196368,117.0
718,1437145196386,117.0
719,1437145196410,114.0
720,1437145196426,114.0
721,1437145196446,110.0
722,1437145196466,105.0
723,1437145196486,105.0
724,1437145196506,100.0
725,1437145196526,100.0
726,1437145196547,95.0
727,1437145196584,95.0
728,1437145196585,91.0
729,1437145196611,91.0
730,1437145196629,84.0
731,1437145196649,84.0
732,1437145196672,75.0
733,1437145196691,75.0
734,1437145196709,65.0
735,1437145196726,65.0
736,1437145196747,56.0
737,1437145196768,50.0
738,1437145196822,50.0
739,1437145196823,45.0
740,1437145196837,45.0
741,1437145196848,42.0
742,1437145196866,42.0
743,1437145196886,39.0
744,1437145196905,39.0
745,1437145196925,34.0
746,1437145196946,34.0
747,1437145196966,30.0
748,1437145196985,30.0
749,1437145197005,28.0
750,1437145197026,28.0
751,1437145197046,26.0
752,1437145197066,23.0
753,1437145197086,23.0
754,1437145197106,20.0
755,1437145197126,20.0
756,1437145197148,18.0
757,1437145197168,18.0
758,1437145197188,15.0
759,1437145197206,15.0
760,1437145197228,14.0
761,1437145197249,14.0
762,1437145197278,12.0
763,1437145197286,12.0
764,1437145197306,11.0
765,1437145197328,11.0
766,1437145197351,11.0
767,1437145197381,11.0
768,1437145197387,11.0
769,1437145197409,10.0
770,1437145197428,10.0
771,1437145197450,10.0
772,1437145197467,10.0
773,1437145197487,10.0
774,1437145197507,10.0
775,1437145197531,10.0
776,1437145197550,10.0
777,1437145197570,10.0
778,1437145197587,10.0
779,1437145197608,10.0
780,1437145197630,10.0
781,1437145197650,10.0
782,1437145197670,10.0
783,1437145197691,10.0
784,1437145197711,10.0
785,1437145197728,10.0
786,1437145197751,10.0
787,1437145197769,10.0
788,1437145197791,10.0
789,1437145197810,10.0
790,1437145197832,10.0
791,1437145197851,10.0
792,1437145197869,10.0
793,1437145197891,10.0
794,1437145197911,9.0
795,1437145197931,9.0
796,1437145197949,9.0
797,1437145197969,9.0
798,1437145197988,9.0
799,1437145198009,9.0
800,1437145198038,9.0
801,1437145198055,8.0
802,1437145198070,8.0
803,1437145198089,8.0
804,1437145198109,8.0
805,1437145198129,8.0
806,1437145198150,8.0
807,1437145198169,8.0
808,1437145198189,8.0
809,1437145198209,8.0
810,1437145198230,8.0
811,1437145198248,8.0
812,1437145198273,8.0
813,1437145198290,8.0
814,1437145198311,8.0
815,1437145198331,8.0
816,1437145198352,8.0
817,1437145198371,8.0
818,1437145198392,8.0
819,1437145198412,8.0
820,1437145198432,8.0
821,1437145198450,8.0
822,1437145198472,8.0
823,1437145198490,7.0
824,1437145198512,7.0
825,1437145198530,8.0
826,1437145198552,8.0
827,1437145198572,8.0
828,1437145198593,8.0
829,1437145198611,8.0
830,1437145198630,8.0
831,1437145198651,8.0
832,1437145198670,8.0
833,1437145198699,8.0
834,1437145198710,8.0
835,1437145198763,8.0
836,1437145198764,8.0
837,1437145198773,8.0
838,1437145198790,8.0
839,1437145198809,8.0
840,1437145198830,8.0
841,1437145198849,8.0
842,1437145198872,8.0
843,1437145198889,8.0
