id,attr_time,attr_x,attr_y,attr_z
1,1436471341217,-32.716,-1.402,-31.356
2,1436471341237,-32.716,-1.402,-31.356
3,1436471341257,-32.716,-1.402,-31.356
4,1436471341278,-32.716,-1.402,-31.356
5,1436471341296,-32.716,-1.402,-31.356
6,1436471341317,-32.716,-1.402,-31.356
7,1436471341337,-32.716,-1.402,-31.356
8,1436471341357,-32.716,-1.402,-31.356
9,1436471341375,-32.716,-1.402,-31.356
10,1436471341395,-32.716,-1.402,-31.356
11,1436471341417,-32.716,-1.402,-31.356
12,1436471341437,-32.716,-1.402,-31.356
13,1436471341457,-32.716,-1.402,-31.356
14,1436471341477,-32.716,-1.402,-31.356
15,1436471341497,-32.716,-1.402,-31.356
16,1436471341517,-32.716,-1.402,-31.356
17,1436471341537,-32.716,-1.402,-31.356
18,1436471341557,-32.716,-1.402,-31.356
19,1436471341577,-32.716,-1.095,-31.356
20,1436471341595,-32.716,-1.095,-31.356
21,1436471341615,-32.716,-1.095,-31.056
22,1436471341643,-32.716,-1.095,-31.056
23,1436471341716,-32.716,-1.095,-31.056
24,1436471341717,-32.716,-1.095,-31.056
25,1436471341718,-32.716,-1.095,-31.056
26,1436471341719,-32.716,-1.095,-31.056
27,1436471341735,-32.716,-1.095,-31.056
28,1436471341764,-32.716,-0.779,-31.056
29,1436471341775,-32.716,-0.779,-31.056
30,1436471341794,-32.716,-0.779,-31.056
31,1436471341816,-32.716,-0.779,-31.056
32,1436471341839,-32.716,-0.779,-31.056
33,1436471341854,-32.716,-0.779,-31.056
34,1436471341877,-33.033,-0.779,-31.056
35,1436471341895,-33.033,-0.779,-31.056
36,1436471341914,-33.033,-0.779,-31.056
37,1436471341938,-33.033,-0.779,-31.056
38,1436471341958,-33.033,-0.779,-31.056
39,1436471341978,-33.033,-0.779,-31.056
40,1436471341997,-33.033,-0.469,-31.056
41,1436471342017,-33.033,-0.469,-31.056
42,1436471342038,-33.033,-0.469,-31.056
43,1436471342058,-33.033,-0.469,-31.056
44,1436471342078,-33.033,-0.469,-31.056
45,1436471342097,-33.033,-0.469,-31.056
46,1436471342117,-33.033,-0.469,-31.056
47,1436471342137,-33.033,-0.469,-30.7
48,1436471342157,-33.033,-0.469,-30.7
49,1436471342177,-33.033,-0.469,-30.7
50,1436471342198,-33.033,-0.469,-30.7
51,1436471342217,-33.033,-0.469,-30.7
52,1436471342238,-33.033,-0.469,-30.7
53,1436471342257,-33.033,-0.469,-30.7
54,1436471342278,-33.033,-0.469,-30.7
55,1436471342300,-33.033,-0.469,-30.7
56,1436471342317,-33.033,-0.469,-30.7
57,1436471342338,-33.033,-0.469,-30.7
58,1436471342356,-33.033,-0.469,-30.7
59,1436471342376,-33.033,-0.469,-30.7
60,1436471342396,-33.34,-0.469,-30.7
61,1436471342462,-33.34,-0.469,-30.7
62,1436471342463,-33.34,-0.469,-30.7
63,1436471342464,-33.34,-0.469,-30.7
64,1436471342482,-33.34,-0.469,-30.7
65,1436471342496,-33.34,-0.469,-30.7
66,1436471342518,-33.34,-0.469,-30.7
67,1436471342536,-33.34,-0.469,-30.7
68,1436471342557,-33.34,-0.469,-30.7
69,1436471342576,-33.34,-0.469,-30.7
70,1436471342596,-33.34,-0.469,-30.7
71,1436471342615,-33.34,-0.469,-30.7
72,1436471342638,-33.34,-0.469,-30.7
73,1436471342656,-33.34,-0.469,-30.7
74,1436471342676,-33.34,-0.469,-30.7
75,1436471342698,-33.34,-0.469,-30.7
76,1436471342717,-33.34,-0.469,-30.7
77,1436471342737,-33.34,-0.469,-30.7
78,1436471342758,-33.34,-0.469,-30.7
79,1436471342778,-33.34,-0.469,-30.7
80,1436471342797,-33.34,-0.469,-30.7
81,1436471342823,-33.34,-0.469,-30.7
82,1436471342928,-33.34,-0.469,-30.7
83,1436471342929,-33.34,-0.469,-30.7
84,1436471342930,-33.34,-0.469,-30.7
85,1436471342931,-33.34,-0.469,-30.7
86,1436471342932,-33.34,-0.469,-30.7
87,1436471342964,-33.34,-0.469,-30.7
88,1436471342965,-33.34,-0.469,-30.7
89,1436471343021,-33.34,-0.469,-30.7
90,1436471343022,-33.34,-0.469,-30.7
91,1436471343023,-33.34,-0.469,-30.7
92,1436471343035,-33.34,-0.469,-30.7
93,1436471343061,-33.34,-0.773,-30.7
94,1436471343075,-33.34,-0.773,-30.7
95,1436471343096,-33.34,-0.773,-30.7
96,1436471343116,-33.34,-0.773,-30.7
97,1436471343136,-33.34,-0.773,-30.7
98,1436471343169,-33.34,-0.773,-30.7
99,1436471343236,-33.34,-0.773,-30.7
100,1436471343237,-33.34,-0.773,-30.7
101,1436471343238,-33.34,-0.773,-30.7
102,1436471343239,-33.34,-0.773,-30.7
103,1436471343259,-33.34,-0.773,-30.7
104,1436471343276,-33.34,-0.773,-30.7
105,1436471343304,-33.34,-0.773,-30.7
106,1436471343316,-33.34,-0.773,-30.7
107,1436471343336,-33.34,-0.773,-30.7
108,1436471343356,-33.34,-0.773,-30.7
109,1436471343376,-33.34,-0.773,-30.7
110,1436471343397,-33.34,-0.773,-30.7
111,1436471343416,-33.34,-0.773,-30.7
112,1436471343438,-33.34,-0.773,-30.7
113,1436471343457,-33.34,-0.773,-30.7
114,1436471343508,-33.34,-0.773,-30.7
115,1436471343509,-33.34,-0.466,-30.7
116,1436471343517,-33.34,-0.466,-30.7
117,1436471343536,-33.34,-0.466,-30.7
118,1436471343556,-33.34,-0.466,-30.7
119,1436471343576,-33.34,-0.466,-30.7
120,1436471343596,-33.34,-0.466,-30.7
121,1436471343615,-33.34,-0.466,-30.7
122,1436471343635,-33.34,-0.466,-30.7
123,1436471343657,-33.34,-0.466,-30.7
124,1436471343676,-33.34,-0.466,-30.7
125,1436471343696,-33.34,-0.466,-30.7
126,1436471343718,-33.34,-0.466,-30.7
127,1436471343737,-33.34,-0.466,-30.7
128,1436471343757,-33.34,-0.466,-30.7
129,1436471343777,-33.34,-0.466,-30.7
130,1436471343796,-33.34,-0.466,-30.7
131,1436471343817,-33.34,-0.466,-30.7
132,1436471343836,-33.34,-0.466,-30.7
133,1436471343857,-33.34,-0.466,-30.7
134,1436471343877,-33.34,-0.148,-30.7
135,1436471343901,-33.34,-0.148,-30.7
136,1436471343915,-33.34,-0.148,-30.7
137,1436471343936,-33.34,-0.148,-30.7
138,1436471343956,-33.34,-0.148,-30.7
139,1436471343978,-33.34,-0.148,-30.7
140,1436471343997,-33.34,-0.148,-30.7
141,1436471344016,-33.34,-0.148,-30.7
142,1436471344037,-33.34,-0.148,-30.7
143,1436471344056,-33.34,-0.148,-30.7
144,1436471344078,-33.34,-0.148,-30.7
145,1436471344096,-33.34,-0.148,-30.7
146,1436471344117,-33.34,-0.148,-30.7
147,1436471344139,-33.34,-0.148,-30.7
148,1436471344157,-33.34,-0.148,-30.7
149,1436471344179,-33.34,-0.148,-30.7
150,1436471344196,-33.34,-0.148,-30.7
151,1436471344217,-33.34,-0.148,-30.7
152,1436471344237,-33.34,0.157,-30.7
153,1436471344257,-33.34,0.157,-30.7
154,1436471344281,-33.34,0.157,-30.7
155,1436471344301,-33.34,0.157,-30.7
156,1436471344317,-33.34,0.157,-30.7
157,1436471344341,-33.039,0.157,-30.7
158,1436471344357,-33.039,0.157,-30.7
159,1436471344377,-33.039,0.157,-30.7
160,1436471344399,-33.039,0.157,-30.7
161,1436471344421,-33.039,0.157,-30.7
162,1436471344438,-33.039,0.157,-30.7
163,1436471344459,-33.039,0.157,-30.7
164,1436471344478,-33.039,0.157,-30.7
165,1436471344503,-33.039,0.157,-30.7
166,1436471344557,-33.039,0.157,-30.7
167,1436471344558,-33.039,0.157,-30.7
168,1436471344559,-33.039,0.157,-30.7
169,1436471344581,-33.039,0.157,-30.7
170,1436471344597,-33.039,0.157,-30.7
171,1436471344620,-33.039,0.157,-30.7
172,1436471344638,-33.039,0.157,-30.7
173,1436471344657,-33.039,0.157,-30.7
174,1436471344679,-33.039,0.157,-30.7
175,1436471344702,-33.039,0.157,-30.7
176,1436471344718,-33.039,0.157,-30.7
177,1436471344740,-33.039,0.157,-30.7
178,1436471344758,-33.039,0.157,-30.7
179,1436471344779,-33.039,-0.141,-30.7
180,1436471344800,-33.039,-0.141,-30.7
181,1436471344820,-33.039,-0.141,-30.7
182,1436471344838,-33.039,-0.141,-30.7
183,1436471344860,-33.039,-0.141,-30.7
184,1436471344878,-33.039,-0.141,-30.7
185,1436471344898,-33.039,-0.141,-30.7
186,1436471344917,-33.039,-0.141,-30.7
187,1436471344939,-33.039,-0.141,-30.7
188,1436471344961,-33.039,-0.485,-30.7
189,1436471344978,-33.039,-0.485,-30.7
190,1436471344997,-33.039,-0.485,-30.7
191,1436471345018,-33.039,-0.485,-30.7
192,1436471345038,-33.039,-0.485,-30.7
193,1436471345065,-33.039,-0.485,-30.7
194,1436471345080,-33.039,-0.485,-30.7
195,1436471345105,-33.039,-0.485,-31.005
196,1436471345120,-33.039,-0.485,-31.005
197,1436471345140,-33.039,-0.485,-31.005
198,1436471345160,-33.039,-0.485,-31.005
199,1436471345187,-33.039,-0.804,-31.005
200,1436471345206,-33.039,-0.804,-31.005
201,1436471345303,-33.039,-0.804,-31.005
202,1436471345304,-33.039,-0.804,-31.005
203,1436471345305,-33.039,-0.804,-31.005
204,1436471345306,-33.039,-0.804,-31.005
205,1436471345307,-33.039,-0.804,-31.005
206,1436471345320,-33.039,-0.804,-31.005
207,1436471345338,-33.039,-0.804,-31.005
208,1436471345358,-33.039,-0.804,-31.005
209,1436471345378,-33.039,-0.804,-31.005
210,1436471345409,-33.039,-0.804,-31.005
211,1436471345428,-33.039,-0.804,-31.005
212,1436471345438,-33.039,-0.804,-31.005
213,1436471345459,-33.039,-0.804,-31.005
214,1436471345478,-33.039,-0.804,-31.005
215,1436471345501,-33.039,-0.804,-31.005
216,1436471345522,-33.039,-0.804,-31.005
217,1436471345540,-33.039,-0.804,-31.005
218,1436471345561,-33.039,-0.804,-31.005
219,1436471345578,-33.039,-0.804,-31.005
220,1436471345598,-33.039,-0.804,-31.005
221,1436471345623,-32.723,-0.489,-31.005
222,1436471345641,-32.723,-0.489,-31.005
223,1436471345661,-32.723,-0.489,-31.005
224,1436471345678,-32.723,-0.489,-31.306
225,1436471345701,-32.723,-0.489,-31.306
226,1436471345722,-32.723,-0.489,-31.306
227,1436471345742,-32.723,-0.489,-31.306
228,1436471345762,-32.723,-0.489,-31.306
229,1436471345779,-32.723,-0.489,-31.306
230,1436471345800,-32.723,-0.489,-31.306
231,1436471345818,-32.723,-0.489,-31.306
232,1436471345841,-32.723,-0.489,-31.306
233,1436471345863,-32.723,-0.489,-31.306
234,1436471345880,-32.723,-0.489,-31.306
235,1436471345903,-32.723,-0.489,-31.306
236,1436471345918,-32.723,-0.489,-31.306
237,1436471345939,-32.723,-0.489,-31.306
238,1436471345985,-32.723,-0.489,-31.306
239,1436471345987,-32.723,-0.489,-31.306
240,1436471345999,-32.723,-0.489,-31.306
241,1436471346022,-32.723,-0.489,-31.306
242,1436471346037,-32.723,-0.489,-31.306
243,1436471346062,-32.723,-0.489,-31.306
244,1436471346080,-32.723,-0.489,-31.306
245,1436471346100,-32.723,-0.489,-31.306
246,1436471346119,-32.723,-0.489,-31.306
247,1436471346139,-32.723,-0.489,-31.306
248,1436471346161,-32.723,-0.489,-31.306
249,1436471346185,-32.723,-0.489,-31.306
250,1436471346202,-32.723,-0.489,-31.306
251,1436471346222,-32.723,-0.489,-31.306
252,1436471346239,-32.723,-0.489,-31.306
253,1436471346262,-32.723,-0.489,-31.306
254,1436471346282,-32.723,-0.489,-31.306
255,1436471346302,-32.723,-0.489,-31.306
256,1436471346322,-32.723,-0.489,-31.306
257,1436471346341,-32.723,-0.489,-31.306
258,1436471346362,-33.029,-0.489,-31.306
259,1436471346383,-33.029,-0.811,-31.306
260,1436471346402,-33.029,-0.811,-30.976
261,1436471346422,-33.029,-0.811,-30.976
262,1436471346439,-33.029,-0.811,-30.976
263,1436471346462,-33.372,-0.811,-30.618
264,1436471346483,-33.372,-0.811,-30.618
265,1436471346502,-33.372,-0.811,-30.307
266,1436471346522,-33.836,-0.811,-29.493
267,1436471346540,-33.836,-0.811,-28.938
268,1436471346561,-34.696,-0.811,-28.053
269,1436471346582,-35.249,-0.811,-27.545
270,1436471346599,-35.737,-0.811,-26.728
271,1436471346667,-36.198,-0.811,-26.202
272,1436471346668,-36.674,-0.811,-25.326
273,1436471346669,-37.019,-0.811,-24.707
274,1436471346688,-37.677,-1.141,-23.849
275,1436471346699,-38.101,-1.141,-22.972
276,1436471346728,-38.491,-1.464,-22.523
277,1436471346740,-38.491,-2.719,-21.565
278,1436471346759,-39.273,-4.028,-21.041
279,1436471346804,-39.273,-4.881,-19.924
280,1436471346805,-39.782,-5.757,-19.415
281,1436471346826,-39.782,-7.061,-19.415
282,1436471346840,-39.782,-7.061,-19.003
283,1436471346860,-40.098,-8.201,-18.487
284,1436471346879,-40.098,-8.796,-17.904
285,1436471346902,-40.098,-9.568,-17.187
286,1436471346920,-40.098,-10.037,-16.584
287,1436471346942,-40.451,-10.939,-16.085
288,1436471346962,-40.451,-11.296,-15.022
289,1436471346982,-40.451,-12.263,-14.515
290,1436471347004,-40.451,-12.973,-13.54
291,1436471347023,-40.451,-13.491,-12.841
292,1436471347042,-40.451,-14.447,-12.841
293,1436471347061,-40.893,-15.328,-12.207
294,1436471347083,-40.893,-16.044,-11.239
295,1436471347103,-40.893,-17.013,-10.929
296,1436471347120,-40.893,-17.626,-10.629
297,1436471347141,-40.893,-18.031,-10.629
298,1436471347159,-40.893,-18.717,-10.629
299,1436471347182,-40.893,-18.717,-11.518
300,1436471347200,-40.893,-19.195,-12.054
301,1436471347222,-40.893,-19.195,-12.382
302,1436471347243,-40.893,-19.195,-12.924
303,1436471347261,-40.893,-19.653,-13.668
304,1436471347280,-39.759,-19.653,-13.668
305,1436471347300,-39.161,-19.175,-14.842
306,1436471347323,-38.488,-19.175,-15.321
307,1436471347341,-37.466,-18.528,-16.777
308,1436471347420,-36.268,-17.822,-19.744
309,1436471347421,-34.483,-17.269,-22.7
310,1436471347422,-33.522,-16.923,-25.025
311,1436471347423,-33.522,-16.616,-26.22
312,1436471347440,-33.155,-16.009,-25.157
313,1436471347462,-33.476,-15.072,-25.479
314,1436471347480,-33.476,-13.591,-25.901
315,1436471347506,-33.476,-11.967,-25.901
316,1436471347522,-33.166,-11.1,-26.449
317,1436471347541,-32.524,-10.023,-27.297
318,1436471347561,-32.524,-9.112,-27.897
319,1436471347581,-32.524,-8.14,-27.897
320,1436471347606,-31.742,-7.339,-29.039
321,1436471347620,-30.918,-7.02,-29.797
322,1436471347642,-30.552,-6.282,-30.207
323,1436471347663,-29.887,-6.282,-31.028
324,1436471347683,-28.942,-5.816,-31.852
325,1436471347704,-28.215,-5.459,-33.029
326,1436471347721,-27.362,-5.459,-33.518
327,1436471347743,-26.234,-5.158,-34.002
328,1436471347763,-25.32,-5.158,-34.82
329,1436471347788,-23.852,-5.853,-36.146
330,1436471347803,-22.54,-6.242,-36.657
331,1436471347827,-21.713,-6.242,-37.2
332,1436471347843,-20.185,-6.242,-38.049
333,1436471347860,-18.655,-6.242,-38.986
334,1436471347886,-17.425,-6.242,-40.097
335,1436471347903,-15.626,-6.242,-41.053
336,1436471347922,-14.3,-6.242,-41.78
337,1436471347941,-12.969,-6.242,-41.78
338,1436471347963,-10.972,-6.242,-41.78
339,1436471347980,-9.262,-5.899,-42.24
340,1436471348000,-7.452,-5.899,-42.573
341,1436471348020,-6.056,-5.899,-43.447
342,1436471348040,-4.626,-5.899,-43.447
343,1436471348064,-2.822,-5.899,-43.447
344,1436471348142,-1.406,-5.899,-43.955
345,1436471348143,0.21,-5.899,-43.955
346,1436471348144,1.506,-5.899,-44.868
347,1436471348145,2.645,-5.899,-44.868
348,1436471348161,4.064,-5.899,-44.868
349,1436471348182,5.293,-5.899,-44.868
350,1436471348202,6.221,-5.899,-44.508
351,1436471348220,7.53,-5.899,-44.508
352,1436471348254,8.36,-4.954,-44.508
353,1436471348262,9.178,-3.968,-44.508
354,1436471348282,9.82,-2.636,-44.508
355,1436471348302,10.623,-1.829,-44.508
356,1436471348325,10.96,-1.017,-44.508
357,1436471348340,11.477,-0.334,-44.508
358,1436471348363,11.793,0.378,-44.508
359,1436471348384,12.162,0.378,-44.854
360,1436471348404,12.162,0.378,-44.854
361,1436471348424,12.162,0.779,-44.854
362,1436471348443,12.162,0.779,-44.854
363,1436471348464,12.162,0.779,-44.854
364,1436471348484,12.162,0.779,-44.854
365,1436471348504,12.614,-0.007,-44.854
366,1436471348522,13.014,-0.007,-44.854
367,1436471348543,13.525,-0.311,-44.854
368,1436471348563,13.525,-0.311,-44.854
369,1436471348583,13.525,-0.311,-44.854
370,1436471348603,14.137,-0.311,-44.854
371,1436471348622,14.137,0.022,-44.854
372,1436471348642,14.137,0.022,-44.854
373,1436471348664,14.137,0.022,-44.854
374,1436471348684,14.137,0.022,-44.522
375,1436471348704,14.137,0.022,-44.522
376,1436471348723,14.662,0.022,-44.522
377,1436471348745,14.662,0.022,-44.522
378,1436471348764,15.025,-0.283,-44.522
379,1436471348784,15.025,-0.283,-44.522
380,1436471348809,15.464,-0.283,-44.194
381,1436471348914,15.464,-0.283,-44.194
382,1436471348915,15.464,-0.659,-44.194
383,1436471348916,15.464,-0.659,-44.194
384,1436471348917,15.464,-0.659,-44.194
385,1436471348918,15.464,-0.659,-44.194
386,1436471348939,15.87,-0.659,-44.194
387,1436471348942,15.87,-0.659,-43.844
388,1436471349159,15.87,-0.959,-43.844
389,1436471349160,15.87,-0.959,-43.844
390,1436471349161,15.87,-0.959,-43.844
391,1436471349162,15.87,-0.959,-43.844
392,1436471349163,15.87,-0.959,-43.844
393,1436471349164,15.87,-0.959,-43.844
394,1436471349165,15.87,-0.959,-43.844
395,1436471349166,15.87,-0.959,-43.844
396,1436471349167,15.87,-0.959,-43.844
397,1436471349168,15.87,-0.959,-43.844
398,1436471349169,15.87,-0.959,-43.844
399,1436471349181,15.87,-0.959,-43.844
400,1436471349201,15.87,-0.959,-43.844
401,1436471349223,15.87,-0.959,-43.844
402,1436471349244,15.87,-1.335,-43.844
403,1436471349264,15.563,-1.335,-43.844
404,1436471349283,15.563,-1.335,-43.844
405,1436471349302,15.563,-1.335,-43.844
406,1436471349322,15.563,-1.641,-43.844
407,1436471349342,15.563,-1.641,-43.844
408,1436471349363,15.563,-1.641,-43.844
409,1436471349381,15.563,-1.641,-43.844
410,1436471349401,15.563,-1.641,-43.844
411,1436471349422,15.563,-1.641,-43.844
412,1436471349448,15.563,-1.641,-43.844
413,1436471349468,15.563,-1.641,-43.844
414,1436471349483,15.563,-1.641,-43.844
415,1436471349506,15.563,-1.641,-43.844
416,1436471349524,15.563,-1.641,-43.844
417,1436471349544,15.563,-1.641,-43.844
418,1436471349566,15.563,-1.641,-43.844
419,1436471349584,15.563,-1.641,-43.844
420,1436471349602,15.563,-1.641,-43.844
421,1436471349671,15.563,-1.641,-43.844
422,1436471349672,15.563,-1.641,-43.844
423,1436471349673,15.563,-1.641,-43.844
424,1436471349682,15.208,-1.641,-43.844
425,1436471349703,15.208,-1.641,-43.844
426,1436471349723,15.208,-1.641,-43.844
427,1436471349742,15.208,-1.641,-43.844
428,1436471349767,15.208,-1.641,-43.844
429,1436471349783,14.859,-1.641,-43.844
430,1436471349804,14.859,-1.641,-44.148
431,1436471349823,14.859,-1.31,-44.148
432,1436471349844,14.859,-1.31,-44.148
433,1436471349862,14.859,-1.31,-44.148
434,1436471349885,14.859,-1.31,-44.148
435,1436471349904,14.526,-1.31,-44.148
436,1436471349923,14.526,-1.31,-44.148
437,1436471349945,14.526,-1.31,-44.148
438,1436471349965,14.526,-1.31,-44.148
439,1436471349985,14.526,-1.31,-44.148
440,1436471350002,14.526,-1.31,-44.148
441,1436471350025,14.526,-1.31,-44.148
442,1436471350045,14.526,-1.31,-44.148
443,1436471350063,14.526,-1.31,-44.148
444,1436471350085,14.526,-1.31,-44.148
445,1436471350105,14.526,-1.31,-44.148
446,1436471350124,14.526,-1.31,-44.148
447,1436471350146,14.526,-1.31,-44.148
448,1436471350165,14.526,-1.31,-44.148
449,1436471350185,14.526,-1.31,-44.148
450,1436471350207,14.526,-1.31,-44.148
451,1436471350284,14.526,-1.31,-44.148
452,1436471350285,14.526,-1.31,-44.148
453,1436471350286,14.526,-1.31,-44.148
454,1436471350287,14.526,-1.31,-44.148
455,1436471350309,14.526,-1.31,-44.148
456,1436471350326,14.526,-1.31,-44.148
457,1436471350345,14.526,-1.31,-44.148
458,1436471350396,14.526,-1.31,-44.148
459,1436471350397,14.526,-1.31,-44.148
460,1436471350425,14.526,-1.31,-44.453
461,1436471350426,14.526,-1.31,-44.453
462,1436471350443,14.526,-1.31,-44.453
463,1436471350469,14.526,-1.31,-44.453
464,1436471350487,14.526,-1.31,-44.453
465,1436471350510,14.526,-1.31,-44.453
466,1436471350523,14.526,-1.31,-44.453
467,1436471350548,14.526,-1.31,-44.453
468,1436471350590,14.526,-1.31,-44.453
469,1436471350591,14.221,-1.31,-44.453
470,1436471350631,14.221,-1.31,-44.453
471,1436471350632,14.221,-1.31,-44.453
472,1436471350642,14.221,-1.31,-44.453
473,1436471350677,14.221,-1.31,-44.453
474,1436471350682,14.221,-1.31,-44.453
475,1436471350702,14.221,-1.31,-44.453
476,1436471350722,14.221,-1.31,-44.453
477,1436471350744,14.221,-1.31,-44.453
478,1436471350762,14.221,-1.31,-44.453
479,1436471350782,14.221,-1.31,-44.453
480,1436471350802,14.221,-1.31,-44.453
481,1436471350822,14.221,-1.31,-44.453
482,1436471350842,14.221,-1.31,-44.453
483,1436471350862,14.221,-1.008,-44.453
484,1436471350882,14.221,-1.008,-44.453
485,1436471350902,14.221,-1.008,-44.453
486,1436471350922,14.221,-1.008,-44.453
487,1436471350942,14.221,-1.008,-44.453
488,1436471350962,14.221,-1.008,-44.453
489,1436471350982,14.221,-1.008,-44.453
490,1436471351002,14.221,-1.008,-44.453
491,1436471351022,13.908,-1.008,-44.453
492,1436471351043,13.908,-1.008,-44.453
493,1436471351062,13.908,-1.008,-44.453
494,1436471351082,13.908,-1.008,-44.453
495,1436471351102,13.908,-1.008,-44.453
496,1436471351126,13.908,-1.008,-44.453
497,1436471351142,13.908,-1.008,-44.453
498,1436471351162,13.908,-1.008,-44.453
499,1436471351182,13.908,-1.008,-44.453
500,1436471351202,13.908,-1.008,-44.453
501,1436471351222,13.908,-1.008,-44.453
502,1436471351242,13.908,-1.008,-44.453
503,1436471351262,13.908,-1.008,-44.453
504,1436471351282,13.908,-1.008,-44.453
505,1436471351302,13.908,-1.008,-44.453
506,1436471351322,13.908,-1.008,-44.453
