id,attr_time,attr_db
1,1436890975448,47.4430703222482
2,1436890975926,46.7012521105163
3,1436890976426,42.4173386523922
4,1436890976917,38.5987153878259
5,1436890977406,37.6235654459066
6,1436890977875,35.8041835643572
7,1436890978305,36.976746975772
8,1436890980117,37.9665419028253
9,1436890980474,35.0110992096981
10,1436890980907,35.2026871502884
11,1436890981355,41.5497486636748
12,1436890981834,33.5557715933402
13,1436890982306,34.771804949204
14,1436890982752,34.4955737471856
15,1436890983097,38.2705113967326
16,1436890983560,34.5253963730974
17,1436890984052,50.1230029146977
18,1436890984560,44.6815457046086
19,1436890985054,60.8180298368708
20,1436890985561,58.1019625869787
21,1436890986051,38.9481724508591
22,1436890986534,52.0039413654364
23,1436890987049,44.6802734342185
24,1436890987543,50.5094551093079
25,1436890988036,64.21113953959
26,1436890988597,42.2798569554164
27,1436890988955,34.2192610055958
28,1436890989381,35.7575781788629
29,1436890989825,37.9545595793966
30,1436890990304,36.6534170948988
31,1436890990807,39.0496830950912
32,1436890991282,36.5651371722321
33,1436890991738,35.8653297096152
34,1436890992188,36.4543093024029
35,1436890992673,37.1150034110652
36,1436890993159,41.8273252955425
37,1436890993692,37.2411215560777
38,1436890994182,37.378551278373
39,1436890994692,36.9641060327775
40,1436890995182,35.3158153519199
41,1436890995691,36.1550416975183
42,1436890996175,35.9664333372118
43,1436890996674,35.1574789891745
44,1436890997166,36.3211165231132
45,1436890997691,37.3070479280606
46,1436890998223,35.7160922890576
47,1436890998692,38.4964956691962
48,1436890999063,36.1564488100827
49,1436890999425,38.0130124143349
50,1436890999867,34.7648822431684
51,1436891000365,32.4464903359188
52,1436891000835,32.8516133346867
53,1436891001328,34.3897152069218
54,1436891001859,47.9436059544908
55,1436891003775,43.1479094135264
56,1436891004204,35.7477541307194
57,1436891004654,38.0029234997232
58,1436891005159,39.5956587339112
59,1436891005659,37.2875558710663
60,1436891006163,39.6520569720659
61,1436891006664,37.4841593935272
62,1436891007161,36.5244805425164
63,1436891007690,43.5884882949559
64,1436891008182,35.760464844992
65,1436891008683,42.4958356255954
66,1436891009168,35.7937925236413
67,1436891009524,36.0749604723966
68,1436891009939,34.3339948945593
69,1436891010393,36.9656203641981
70,1436891010886,34.704414953307
71,1436891011360,33.8724142674043
72,1436891011810,35.6950943841276
73,1436891012267,35.9776076035389
74,1436891012777,33.8073407188063
75,1436891013283,34.8080656258122
76,1436891013774,37.49024362601
77,1436891014270,47.240699166266
78,1436891014732,34.6262641546857
79,1436891016270,36.58786853876
80,1436891016730,38.0595265028535
81,1436891017214,35.6631546278549
82,1436891017704,35.3578199019335
83,1436891018279,39.4043140771572
84,1436891018765,40.3941087676866
85,1436891019165,36.0550369686661
86,1436891019555,39.1773073168765
87,1436891020015,43.3280178027706
88,1436891020526,36.9414047249938
89,1436891021027,40.3514614433054
90,1436891021539,68.7251165301039
91,1436891021921,45.7366171778808
92,1436891022350,58.7577546706197
93,1436891022830,42.898476769345
94,1436891023336,38.2967930623962
95,1436891023972,41.0627876558594
96,1436891024461,40.3267030499542
97,1436891024956,48.2725229434983
98,1436891025433,39.4341099898972
99,1436891025933,41.684494348969
100,1436891026428,43.8404706229528
101,1436891026912,45.0805307304885
102,1436891027387,41.6027955703917
103,1436891027839,37.9433118842376
104,1436891028274,59.7522969622151
105,1436891028764,54.3447367367976
106,1436891029252,44.6246502967623
107,1436891029681,44.1229940541659
108,1436891030081,42.4980145803123
109,1436891030519,66.6920195124928
110,1436891031003,68.5975551883551
111,1436891031516,45.4190208446165
112,1436891032019,44.9098102452815
113,1436891032555,43.3810325315564
114,1436891032948,50.4448929778605
115,1436891033386,42.0687504229397
116,1436891033880,47.2805678550506
117,1436891034387,75.73291655077
118,1436891034886,64.7576241183321
119,1436891035374,40.7028231735293
120,1436891035863,67.862982360914
121,1436891036352,51.3131113254309
122,1436891036840,56.058402633314
123,1436891037333,41.3107586995434
124,1436891037822,76.6265458577189
125,1436891038347,72.0686920361314
126,1436891038853,65.2486976830776
127,1436891039386,51.9794166316575
128,1436891039839,38.7311982147988
129,1436891040274,37.6072024185832
130,1436891040763,37.959818892122
131,1436891041204,53.3541627058599
132,1436891041580,43.0657272510299
133,1436891041962,46.3971261218674
134,1436891042393,46.5678081112443
135,1436891042854,48.1720517965926
136,1436891043418,48.4577659805564
137,1436891043917,49.1522501247303
138,1436891044458,58.2497807233866
139,1436891044957,72.4562985765686
140,1436891045459,54.47277001164
141,1436891045953,56.1241874480848
142,1436891046471,52.1939511494858
143,1436891046953,54.7261025966354
144,1436891047434,54.6043556273127
145,1436891047919,49.718442553734
146,1436891048415,59.1925941482823
147,1436891048946,41.9188940500675
148,1436891049533,38.8631056104463
149,1436891049912,38.2137298601747
150,1436891050262,52.9005744481765
151,1436891050727,43.3240588138907
152,1436891051230,38.8657076967453
153,1436891051747,43.1639881672588
154,1436891052216,44.243892398794
155,1436891052667,46.5841131995075
156,1436891053065,45.3540602369185
157,1436891053571,45.2632245117645
158,1436891054062,49.3832431755711
159,1436891054561,55.1000796905915
160,1436891055060,57.6997597610117
161,1436891055535,40.0387004813033
162,1436891055959,36.4896883565947
163,1436891056402,40.9746664297103
164,1436891056853,37.1026152246039
165,1436891057345,38.9448588392064
166,1436891057834,39.6900218355166
167,1436891058322,45.4432540571689
168,1436891058806,56.5842463674302
169,1436891059310,46.4223071989102
170,1436891059770,43.1165310179982
171,1436891060218,50.9874294623717
172,1436891060619,63.8964095753344
173,1436891061114,50.7611740268862
174,1436891061616,40.0083551987251
175,1436891062090,52.2412783060153
176,1436891062601,41.8737167310494
177,1436891062989,42.067658311254
178,1436891063426,38.7520950475967
179,1436891063905,54.1110382512725
180,1436891064396,34.5197967446715
181,1436891064905,51.6054704915636
182,1436891065387,34.7052997691068
183,1436891065891,54.5000245414283
184,1436891066399,37.106301891034
185,1436891066911,46.2081978867781
186,1436891067426,33.4839335000493
187,1436891067896,40.5475306695012
188,1436891068411,38.2463566338175
189,1436891068894,27.1039890790763
190,1436891069407,38.0971595659346
191,1436891069893,40.0998845707782
192,1436891070312,27.9916235739576
193,1436891070637,41.0371738123004
194,1436891071082,38.9338614002239
195,1436891071538,27.9665297073863
196,1436891072042,36.9236884814882
197,1436891072600,29.4079762187429
198,1436891073091,41.9101041999978
199,1436891073654,34.7383639167319
200,1436891074071,30.7778581948567
201,1436891074532,38.270441513053
202,1436891075030,32.6671562772529
203,1436891075527,36.4371699606337
204,1436891076030,32.0438008240571
205,1436891076516,32.7769830440722
206,1436891077004,35.2507910528564
207,1436891077511,39.1786276458955
208,1436891078008,34.3228099325807
209,1436891078489,32.9384164104285
210,1436891078990,35.00490695925
211,1436891079572,56.1633144369952
212,1436891080074,27.6615683076911
213,1436891080559,37.2779416338653
214,1436891080997,39.4999051089107
215,1436891081431,32.0494855757807
216,1436891081900,36.3287869454781
217,1436891082387,33.2383156374785
218,1436891082871,43.7364573235818
219,1436891083326,33.7782991338094
220,1436891083736,29.9715111439241
221,1436891084160,43.772145686784
222,1436891084599,33.2654242598565
223,1436891085069,40.3009589638759
224,1436891085570,34.9136499048265
225,1436891086068,29.6889603037111
226,1436891086553,31.0708346394957
227,1436891087060,42.2563467042545
228,1436891087555,38.8587569394583
229,1436891088050,38.8332011116045
230,1436891088565,37.6044960334243
231,1436891089051,32.7457143824466
232,1436891089537,38.6652403229677
233,1436891090014,31.3334415413182
234,1436891090469,36.2689250595881
235,1436891090838,37.0473876747472
236,1436891091273,32.2924206769038
237,1436891091768,36.4652893090949
238,1436891092253,32.7519125014854
239,1436891092737,39.8186937166283
240,1436891093212,35.2594365967439
241,1436891093791,39.6273039144708
242,1436891094196,35.143499137718
243,1436891094606,45.2317767582967
244,1436891095092,41.0004734531165
245,1436891095583,36.9771010463387
246,1436891096071,38.3138700361907
247,1436891096570,31.6333485266636
248,1436891097085,39.9419847430076
249,1436891097611,36.4154544249703
250,1436891098103,40.5368147347831
251,1436891098608,30.5223823432411
252,1436891099079,36.3412954642561
253,1436891099575,33.0477610541702
254,1436891100044,38.743850456642
255,1436891100527,32.0941767440718
256,1436891101006,39.9407599459221
257,1436891101435,39.0751918084197
258,1436891101882,32.9746088631912
259,1436891102370,38.6788726375912
260,1436891102856,29.7135911003191
261,1436891103280,44.2799227117205
262,1436891103719,39.7788650756667
263,1436891104146,32.3557961162662
264,1436891104607,38.9088076989439
265,1436891105077,32.7673664705734
266,1436891105537,43.5324394504485
267,1436891106032,32.3462300139533
268,1436891106530,36.65923555732
269,1436891107048,33.3230037958272
270,1436891107540,41.2514427785916
271,1436891108032,35.5230977314655
272,1436891108551,31.9650338156623
273,1436891109036,44.9321479600348
274,1436891109560,35.2422140558372
275,1436891110036,43.6606130387689
276,1436891110442,40.4947084125418
277,1436891110880,36.0583224020439
278,1436891111335,38.5946441996679
279,1436891111777,39.0586965868868
280,1436891112214,43.6468120760626
281,1436891112697,37.3175659080192
282,1436891113166,36.4644919118503
283,1436891113648,36.9980955084491
284,1436891114124,32.4048588847325
285,1436891114610,41.4367198503698
286,1436891114981,33.6292201497823
287,1436891115386,38.7499840251568
288,1436891115846,49.0731395174223
289,1436891116346,35.4037911097233
290,1436891116838,41.3167593650544
291,1436891117320,33.8587293325594
292,1436891117822,36.8688701195638
293,1436891118324,32.7964706022077
294,1436891118890,39.9038316910482
295,1436891119368,39.9378861807097
296,1436891119875,38.5765970995201
297,1436891120364,38.4688660772453
298,1436891120857,40.8372563256903
299,1436891121358,37.1703360257416
300,1436891121855,38.9145661175673
301,1436891122298,35.5083496879189
302,1436891122667,36.7972065059892
303,1436891123179,40.1763721986419
304,1436891123675,36.4765692400457
305,1436891124142,39.203868359884
306,1436891124677,38.0895036537972
307,1436891125058,37.1954454635852
308,1436891125484,38.2913321078162
309,1436891125931,36.1749706578582
310,1436891126413,38.1740033845596
311,1436891126891,35.309222527272
312,1436891127392,41.0660128217487
313,1436891127939,36.929361516272
314,1436891128426,39.3386724919808
315,1436891128942,36.5410269192649
316,1436891129433,43.93155189878
317,1436891129935,35.6816585046663
318,1436891130441,39.9282972814481
319,1436891130892,39.2762905477661
320,1436891131291,37.9416846092322
321,1436891131717,41.6007024607176
322,1436891132161,39.1589339761919
323,1436891132574,38.6467084498295
324,1436891133163,39.0217639515205
325,1436891133657,38.6708267599634
326,1436891134099,41.1643616995308
327,1436891134575,36.9958636453256
328,1436891135064,38.5432124791235
329,1436891135573,39.3900611638897
330,1436891136061,35.9909329029615
331,1436891136519,42.2426890222991
332,1436891137016,38.7469358143293
333,1436891137500,41.5457712068125
334,1436891138013,39.4259768069753
335,1436891138497,44.6489482613937
336,1436891138989,40.3211747493277
337,1436891139485,39.6411712590727
338,1436891139994,39.5571604598721
339,1436891140493,41.309978647287
340,1436891140991,38.4688164604062
341,1436891141486,36.305494855159
342,1436891141984,39.0974699505705
343,1436891142404,39.0277341709882
344,1436891142829,45.3486467183056
345,1436891143271,37.5471244761198
346,1436891143798,37.6666964909594
347,1436891144301,42.7769093534779
348,1436891144733,39.9221904426501
349,1436891145170,40.8197010052562
350,1436891145675,43.5715396983851
351,1436891146162,39.0207595248941
352,1436891146648,39.8484129291217
353,1436891147168,39.2945987686918
354,1436891147671,40.8361188289417
355,1436891148128,36.7450483645047
356,1436891148578,42.7557070437065
357,1436891149053,38.7793232556592
358,1436891149547,42.4984999824955
359,1436891150052,39.503635622432
360,1436891150548,41.84726701582
361,1436891150984,40.9098450070754
362,1436891151396,37.9404633035119
363,1436891151843,43.9317824590294
364,1436891152326,38.2530317148512
365,1436891152787,41.8909997575163
366,1436891153209,39.2280438070747
367,1436891153612,42.1439007758812
368,1436891154067,42.682515888923
369,1436891154530,39.2864644538409
370,1436891154970,40.6757518859521
371,1436891155436,37.6279911401863
372,1436891155926,42.0430338947691
373,1436891156422,37.8235087052088
374,1436891156927,42.8779178103302
375,1436891157425,39.0777322596143
376,1436891157911,40.4158532511478
377,1436891158403,36.6512370744829
378,1436891158909,41.5920882811921
379,1436891159410,38.124314854364
380,1436891159909,32.9524133233821
381,1436891160412,39.7473533421554
382,1436891160901,43.3743505827972
383,1436891161383,42.1504658276746
384,1436891161868,35.6037993972339
385,1436891162371,44.9530597648757
386,1436891162804,35.9780267317692
387,1436891163191,40.8401691649912
388,1436891163599,41.6140412689869
389,1436891164069,37.1094611284788
390,1436891164580,39.994085618635
391,1436891165074,37.3760163158039
392,1436891165590,44.0604241102305
393,1436891166047,50.5351447250493
394,1436891166437,41.6712741530325
395,1436891166914,40.3629762588855
396,1436891167410,43.938374513952
397,1436891167942,40.6966578483928
398,1436891168432,41.825904273173
399,1436891168891,40.4175162845339
400,1436891170364,42.5050350505321
401,1436891170776,41.3503771776297
402,1436891171139,39.6581565089494
403,1436891171635,45.4076116592381
404,1436891172127,39.3222089464331
405,1436891172601,41.0932684579841
406,1436891173053,41.0469272158295
407,1436891173447,40.9124078240554
408,1436891173872,43.6799494644625
409,1436891174351,40.0372709136757
410,1436891174840,37.5097611695909
411,1436891175311,40.6919513724252
412,1436891175755,40.3446632102719
413,1436891176153,39.2025297303234
414,1436891176647,44.9415768838546
415,1436891177150,39.542802391774
416,1436891177646,41.8985973500694
417,1436891178142,39.8651160417327
418,1436891178641,46.9475139953213
419,1436891179147,41.8042868560301
420,1436891179632,42.542977641359
421,1436891180132,41.1939509247644
422,1436891180624,40.9122658442848
423,1436891181113,42.9243710501317
424,1436891181601,41.1228406072252
425,1436891182084,41.3512843291712
426,1436891182597,40.5231653167224
427,1436891183107,44.4402167671939
428,1436891183508,41.1125202278507
429,1436891183942,41.3798165740969
430,1436891184438,42.025049567111
431,1436891184949,44.2366413473958
432,1436891185461,41.4101039981273
433,1436891185850,39.7445283621445
434,1436891186236,38.7141485228068
435,1436891186695,39.3956438423025
436,1436891188295,45.4729395193577
437,1436891188700,40.5853112393231
438,1436891189381,41.9863115735088
439,1436891189786,39.9910412791168
440,1436891190146,41.8666074701397
441,1436891190655,43.1169028827866
442,1436891191088,41.6681817636044
443,1436891191470,43.1544833896648
444,1436891191906,40.540217959462
445,1436891192397,43.1562817503773
446,1436891192955,43.631819563757
447,1436891193483,43.5391267279591
448,1436891193919,43.436194761239
449,1436891194358,42.1262981506831
450,1436891194842,44.1516935136294
451,1436891195317,41.3224992526248
452,1436891195776,41.9176892473729
453,1436891196212,40.6279708343923
454,1436891196707,41.3464728980451
455,1436891197206,41.7698287268414
456,1436891197701,40.3698384392914
457,1436891198215,40.6643126002554
458,1436891198695,40.85950206614
459,1436891199210,44.5711121673715
460,1436891199703,42.0344636656721
461,1436891200204,39.0787697650898
462,1436891200673,40.0184181847061
463,1436891201188,41.6877306411107
464,1436891201663,40.3018269740172
465,1436891202170,45.0610241150213
466,1436891202674,41.2801984987195
467,1436891203162,41.8712097524754
468,1436891203644,43.4779597290747
469,1436891204037,42.8952734885866
470,1436891204464,43.8788545165279
471,1436891204913,40.7392824631287
472,1436891205390,42.3812662510931
473,1436891205871,40.5280413948001
474,1436891206357,43.0804963733306
475,1436891206787,40.9464570019461
476,1436891207190,39.8828919371209
477,1436891207698,40.859471364917
478,1436891208232,39.9067112697855
479,1436891208736,46.7331422087709
480,1436891209264,42.0129649849667
481,1436891209757,43.3987521262789
482,1436891210251,73.8882628980254
483,1436891210733,62.9818695676504
484,1436891211203,53.1420351514161
485,1436891211656,45.3718955522066
486,1436891212155,41.9567030101183
487,1436891212672,71.1626381308384
488,1436891213137,76.567157685001
489,1436891213642,74.5580911822619
490,1436891214040,50.9793424535366
491,1436891214458,46.4939337032391
492,1436891214927,61.164893393891
493,1436891215446,68.8851626470297
494,1436891215933,65.3219297386513
495,1436891216431,72.7644123812848
496,1436891216930,55.4983086057371
497,1436891217389,51.2187305923047
498,1436891217867,43.8785321734852
499,1436891219458,43.0515707764353
500,1436891219890,40.9077515746272
501,1436891220361,40.7384857572595
502,1436891220863,42.274339220088
503,1436891221382,42.5847797801453
504,1436891221889,42.6953140335209
505,1436891222350,42.4466374025798
506,1436891222843,39.9536306908775
507,1436891223371,43.3179432325305
508,1436891223840,60.2180780334558
509,1436891224266,50.9861368991753
510,1436891224664,53.9492658910282
511,1436891225104,65.3326724906069
512,1436891225635,60.0301191182094
513,1436891226107,71.4598257532978
514,1436891226482,43.5379461219338
515,1436891226840,50.3927000731549
516,1436891227299,40.1818803776882
517,1436891227768,44.7110094931023
518,1436891228276,49.1076041221236
519,1436891228818,49.6574795149752
520,1436891229319,42.7870545544289
521,1436891229827,44.1306853743133
522,1436891230314,41.2829881648713
523,1436891230802,43.816975956474
524,1436891231291,44.4276433817199
525,1436891231785,43.193654016397
526,1436891232234,41.9823020675531
527,1436891232589,38.8150700597034
528,1436891233020,40.8921658541146
529,1436891233520,40.5325040662837
530,1436891234033,41.583467168584
531,1436891234485,42.573573327559
532,1436891234913,38.7627111727652
533,1436891235314,40.874235590791
534,1436891236740,38.3642573725162
535,1436891237220,42.7097644817013
536,1436891237705,39.7009358718121
537,1436891238194,42.9442600681822
538,1436891238709,41.5566532216995
539,1436891239197,39.687376570823
540,1436891239677,39.1421701401022
541,1436891240157,42.4050663108268
542,1436891240640,49.6025861290365
543,1436891241139,39.2626531210764
544,1436891241642,40.9195321771242
545,1436891242144,39.9975133874525
546,1436891242660,41.0408008361622
547,1436891243153,40.1954879770073
548,1436891243621,45.0731957718349
549,1436891244047,39.4025350356928
550,1436891244525,40.9415920580269
551,1436891244925,37.4667418920613
552,1436891245337,44.5955294449543
553,1436891245792,41.3121579223615
554,1436891246274,38.3014408442685
555,1436891246747,36.7965328371694
556,1436891247252,41.8156988118444
557,1436891247743,37.5466949656673
558,1436891248200,44.1520183032561
559,1436891248666,38.3330998509592
560,1436891249145,40.0471141563802
561,1436891249636,38.8147235264129
562,1436891250128,44.0216721494414
563,1436891250619,43.9819949601329
564,1436891251099,40.6368369863994
565,1436891251568,39.2094104061991
566,1436891252015,45.0295606529011
567,1436891252459,43.7439228620185
568,1436891252926,40.8263852334154
569,1436891253412,42.6703748963463
570,1436891253901,39.2458109716829
571,1436891254400,45.0899391504446
572,1436891254895,40.356370776468
573,1436891255322,42.3135233821916
574,1436891255789,37.7875523178398
575,1436891256274,40.733043265847
