id,attr_time,attr_db
1,1436890975594,34.0589671810116
2,1436890976304,42.2084571765581
3,1436890977063,44.4372368802756
4,1436890977795,36.0942742663269
5,1436890978518,34.8899655825979
6,1436890979245,32.9770458905894
7,1436890979971,38.7702207428867
8,1436890980688,42.4689355148011
9,1436890981423,46.4374457232844
10,1436890982170,36.2585956504347
11,1436890982927,43.2021343106361
12,1436890983640,32.8939267306831
13,1436890984350,41.7493058896514
14,1436890985088,56.827180060555
15,1436890985804,51.1276758521023
16,1436890986503,42.9250545071887
17,1436890987261,38.890680368123
18,1436890987986,53.743672206139
19,1436890988707,46.7149778820694
20,1436890989425,47.9265206607947
21,1436890990139,47.2396113461971
22,1436890990948,56.5610369531091
23,1436890991569,48.2906225640228
24,1436890992278,57.3966540588336
25,1436890993062,53.7342281219479
26,1436890993671,36.2914621375756
27,1436890994372,47.4107895641092
28,1436890995111,41.6993291673678
29,1436890995822,45.9638711505215
30,1436890996552,43.9292883733187
31,1436890997267,46.5139698381992
32,1436890998023,55.0308655494069
33,1436890998690,39.0585345709141
34,1436890999415,45.4955364491651
35,1436891000143,45.8686666791721
36,1436891000874,38.1332956486637
37,1436891001618,46.9807457973583
38,1436891002369,35.7732399286966
39,1436891003088,49.4442418719954
40,1436891003817,42.1988094469449
41,1436891004535,57.0788042769007
42,1436891005278,39.6703501133638
43,1436891006017,45.10556047931
44,1436891006712,37.2021781289405
45,1436891007446,42.6164241154433
46,1436891008150,39.1509641539171
47,1436891008930,44.4102003230434
48,1436891009644,54.9874365565587
49,1436891010365,35.0806518858888
50,1436891011083,29.4456542548524
51,1436891011882,40.2003923473949
52,1436891012581,30.8350084767159
53,1436891013301,42.0979728973207
54,1436891014000,35.804695785587
55,1436891014723,37.7802858888956
56,1436891015436,50.2960807933663
57,1436891016153,42.3740183035269
58,1436891018009,56.0859148203834
59,1436891018672,43.2963175448986
60,1436891019387,43.5222498334141
61,1436891020130,38.5142401938163
62,1436891020908,45.3577438958233
63,1436891021629,34.8904842373025
64,1436891022321,49.4831372025466
65,1436891023034,42.5177742477261
66,1436891023775,44.8292487131857
67,1436891024492,46.015680811721
68,1436891025238,37.6657099433407
69,1436891025971,38.0773025877618
70,1436891026693,36.1085909893415
71,1436891027414,45.7957695860798
72,1436891028166,42.282813386556
73,1436891028877,65.4880338009508
74,1436891029572,61.3616183812885
75,1436891030300,44.5860545399683
76,1436891031022,44.2470786336536
77,1436891031707,59.2526236929285
78,1436891032361,52.5673875322837
79,1436891033105,46.6522028389887
80,1436891033825,39.2986148587448
81,1436891034516,51.7165373541807
82,1436891036209,63.1730068209218
83,1436891036873,51.2189278737835
84,1436891037596,52.0843129286081
85,1436891038335,53.1320473895704
86,1436891039039,64.5260216048344
87,1436891039720,61.0164865586799
88,1436891040453,43.6485109268914
89,1436891041143,47.531655525678
90,1436891041909,42.4957565992134
91,1436891042558,46.1231349586393
92,1436891043231,54.3234241338756
93,1436891043929,46.8004423614874
94,1436891044671,42.7262198265822
95,1436891045394,48.4724760108988
96,1436891046113,67.3292839020502
97,1436891046888,46.3588093431008
98,1436891047586,47.781409955895
99,1436891048265,55.0234194035526
100,1436891048980,57.139184476904
101,1436891049656,51.86902256383
102,1436891050349,47.3692393575821
103,1436891051083,44.9269410489179
104,1436891051799,42.7808464436822
105,1436891052489,44.3263319866971
106,1436891053247,51.4267671898582
107,1436891054022,43.3545102507615
108,1436891054699,48.2858218104027
109,1436891055421,48.9728490953874
110,1436891056138,52.2059684738341
111,1436891056866,57.8973490253586
112,1436891057577,50.7447010371921
113,1436891058318,42.3867415164296
114,1436891059039,47.1407825153604
115,1436891059720,43.5900737856541
116,1436891060432,57.8652936045301
117,1436891061187,57.645388780561
118,1436891061941,55.6327228802677
119,1436891062653,59.3840310488516
120,1436891063393,50.6265463034861
121,1436891064074,36.5196271015122
122,1436891064839,49.3024857817288
123,1436891065531,40.8477805598268
124,1436891067418,57.4892617278925
125,1436891068098,52.8685247546181
126,1436891068828,45.2082013818403
127,1436891069542,41.9793777631801
128,1436891070201,42.0208466344025
129,1436891070885,52.2063913944569
130,1436891071615,30.7231529726549
131,1436891072324,49.8624137259949
132,1436891072957,40.4265757474464
133,1436891073615,51.9451439154602
134,1436891074300,50.3234560114552
135,1436891075024,37.9350275729936
136,1436891075615,58.7195299463028
137,1436891076292,44.3893056269552
138,1436891077002,54.9238988481861
139,1436891077745,52.2958621975687
140,1436891078496,35.9322019876997
141,1436891079220,40.9769083569476
142,1436891079938,28.4354985200404
143,1436891080624,34.1101994229648
144,1436891081256,35.8758454978392
145,1436891081983,40.7127285951589
146,1436891083680,28.3510726605657
147,1436891084404,34.2856680867744
148,1436891085125,41.9178626113346
149,1436891085855,28.0507623574413
150,1436891086648,37.2264912915392
151,1436891087374,39.1510065043245
152,1436891088091,43.1777999428182
153,1436891088822,59.3296309784799
154,1436891089552,43.6662752567507
155,1436891090305,38.1461607699649
156,1436891091030,34.4278998808891
157,1436891091744,37.8435452500078
158,1436891092434,34.0060338850889
159,1436891093153,50.7635647491206
160,1436891093901,44.4022634687451
161,1436891094645,40.1662577106698
162,1436891095351,45.0370802473888
163,1436891096046,37.2740661377258
164,1436891096743,49.7994334195827
165,1436891097379,51.6893952653576
166,1436891098064,53.757242654997
167,1436891098791,40.0068160145364
168,1436891099520,36.1182149533843
169,1436891100242,56.9435232277037
170,1436891100934,42.3753248492374
171,1436891101613,38.7988188160524
172,1436891102333,43.6783643400156
173,1436891103057,46.6719768490332
174,1436891103793,33.4554062357592
175,1436891104506,43.3735714625991
176,1436891105191,32.0928098308127
177,1436891105896,42.8036641595773
178,1436891106669,45.6861332784466
179,1436891107356,45.8990343292687
180,1436891108010,39.751953323842
181,1436891108718,42.3365781043939
182,1436891109446,40.2819810938064
183,1436891110184,44.1643213359154
184,1436891110854,53.8603458026417
185,1436891111523,47.0532786748749
186,1436891112242,52.8219243176673
187,1436891112873,40.4072701427285
188,1436891113548,47.3447703709787
189,1436891114246,58.2135787988162
190,1436891114967,42.0701772778859
191,1436891115685,42.1641508111311
192,1436891116416,39.9040579046578
193,1436891117140,49.3746773580467
194,1436891117935,48.3125554979655
195,1436891118661,40.9901645855519
196,1436891119399,42.8205569093134
197,1436891120141,38.314548148077
198,1436891120865,34.3118116020453
199,1436891121571,38.4408642477719
200,1436891122278,39.5842858749298
201,1436891123016,41.7917905051153
202,1436891123755,36.1503146009496
203,1436891124474,39.5034697850812
204,1436891125204,44.9524181548002
205,1436891125935,52.9126954940202
206,1436891126663,42.4483678826259
207,1436891127451,39.8090635169689
208,1436891128070,38.930889228057
209,1436891128770,44.2138107517
210,1436891129488,38.7467737111178
211,1436891130216,40.8275204992015
212,1436891130926,53.7188127825615
213,1436891131577,41.9353558598871
214,1436891132226,40.6464649670949
215,1436891132946,36.4742408596251
216,1436891133639,41.2029032331359
217,1436891134380,38.0354624878943
218,1436891135123,36.4896685476356
219,1436891135840,35.149758361043
220,1436891136555,50.7107970212112
221,1436891137281,47.5325097360342
222,1436891138039,48.7802848945983
223,1436891138777,46.786136301904
224,1436891139485,40.4316084928627
225,1436891140194,48.8740434741124
226,1436891140925,41.2778275829392
227,1436891141622,40.0882610346093
228,1436891142260,37.6687143540297
229,1436891142980,35.4439423789603
230,1436891143713,36.1254964544695
231,1436891144422,46.1877846440626
232,1436891145142,38.6250961853098
233,1436891145890,47.7234398900941
234,1436891146619,50.2427642353737
235,1436891147341,34.3791987244371
236,1436891148090,54.6411449547085
237,1436891148841,53.6966341592441
238,1436891149562,38.7548183628165
239,1436891150311,36.1027077703012
240,1436891151053,40.3705068647315
241,1436891151684,37.4991815686662
242,1436891152430,39.4900937139676
243,1436891153108,40.9504684261507
244,1436891153766,36.6390499415157
245,1436891154487,39.5926980095468
246,1436891155228,37.9750098861768
247,1436891155991,38.2315155467067
248,1436891156650,35.125044240406
249,1436891157349,43.207749647957
250,1436891158112,41.1769395503063
251,1436891158839,37.5964765826773
252,1436891159565,41.3336765277687
253,1436891160274,45.5581076121929
254,1436891161014,40.2396062944825
255,1436891161735,57.2132819600253
256,1436891162419,35.4155000759354
257,1436891163115,36.5043685439239
258,1436891163874,34.8564298420054
259,1436891164578,43.565969979894
260,1436891165310,49.5000657075533
261,1436891166053,54.2484326281482
262,1436891166755,49.4182508330731
263,1436891167470,44.962500106764
264,1436891168220,41.2788371465533
265,1436891168975,47.4993054199343
266,1436891169719,45.3953354536921
267,1436891170450,54.0908297697887
268,1436891171208,65.3586800958902
269,1436891171903,38.6255521595597
270,1436891172554,42.3150491392805
271,1436891173334,44.6566713466775
272,1436891174093,55.2667220379556
273,1436891174727,52.3252849111538
274,1436891175424,40.4804177452421
275,1436891176137,40.9891845627748
276,1436891176915,37.4783833279204
277,1436891177642,41.9498926846212
278,1436891178360,39.0775665920261
279,1436891179081,51.9376458343681
280,1436891179838,58.2712769935295
281,1436891180535,37.2511591623521
282,1436891181238,38.3368758293252
283,1436891181959,47.150687715192
284,1436891182637,37.9692369847225
285,1436891183365,38.8023524061237
286,1436891184134,39.0527627913402
287,1436891184879,42.3143892332311
288,1436891185626,39.4562070015008
289,1436891186354,39.836731309514
290,1436891187108,42.5938167913061
291,1436891187727,37.2889924171425
292,1436891188349,46.5458217848473
293,1436891189078,41.4221879324258
294,1436891189794,36.4294150711139
295,1436891190534,39.0639033359715
296,1436891191244,41.8602407076934
297,1436891191951,40.0598352471393
298,1436891192621,37.6583967243758
299,1436891193292,41.5966759088347
300,1436891194005,43.2229715501543
301,1436891194703,37.2570689479624
302,1436891195353,40.2712858010399
303,1436891196048,43.8094801122926
304,1436891196751,39.2134767909554
305,1436891197417,35.1806735024494
306,1436891198140,43.38363375666
307,1436891198875,38.4074338787035
308,1436891199613,53.1180722136514
309,1436891200338,38.9048150295815
310,1436891201072,64.8763359697758
311,1436891201819,38.1672993280522
312,1436891202527,55.8774126659324
313,1436891203284,52.0400044697085
314,1436891203899,39.059968831915
315,1436891204588,40.026452967232
316,1436891205318,43.1321631096399
317,1436891206042,38.335110772608
318,1436891206761,44.9565457287287
319,1436891207510,39.0596912667861
320,1436891208194,38.1967577201362
321,1436891208923,43.5481072309973
322,1436891209658,38.4424886493072
323,1436891210368,44.9122641281958
324,1436891211058,51.1346188285
325,1436891211728,43.5995203237711
326,1436891212464,43.7513068808323
327,1436891213194,44.1032247165524
328,1436891213929,58.6852658120946
329,1436891214617,65.9088573040843
330,1436891215250,57.7745857430566
331,1436891215906,44.4905645720919
332,1436891216646,55.1559734671994
333,1436891217297,70.736983257134
334,1436891218000,69.3464025055904
335,1436891218751,44.5159642104322
336,1436891219489,48.1088687826409
337,1436891220220,44.8157218713334
338,1436891220944,39.8854939959236
339,1436891222457,44.264162609904
340,1436891223172,44.2628924743357
341,1436891223861,38.4923991977622
342,1436891224566,42.5980373027373
343,1436891225294,49.2905718617344
344,1436891226023,48.9486706262342
345,1436891226739,53.5271344043578
346,1436891227430,55.6181380478105
347,1436891228121,51.9052493921679
348,1436891228805,47.2193354346608
349,1436891229548,47.2807490144756
350,1436891230292,43.3928578880025
351,1436891231009,39.6129752738551
352,1436891231743,53.4175003074115
353,1436891232472,44.1150138652273
354,1436891233184,54.0887978093822
355,1436891233886,36.9411875701708
356,1436891234587,45.0467662282224
357,1436891235347,38.9817531816771
358,1436891236090,53.6362051350139
359,1436891236865,40.5807886076197
360,1436891237589,45.7217822798524
361,1436891238401,46.4124473348377
362,1436891239119,43.113118380609
363,1436891239850,41.3707688168837
364,1436891240583,40.7147230126892
365,1436891241312,41.0523541983462
366,1436891242052,41.6914440113129
367,1436891242737,42.3328450854791
368,1436891244295,37.0773739489397
369,1436891244990,40.8056089648625
370,1436891245713,37.9303249233482
371,1436891246429,39.9453486283413
372,1436891247164,39.234876416093
373,1436891247948,44.7829936882792
374,1436891248643,39.6479357641604
375,1436891249441,48.3532880534836
376,1436891250167,40.3034880181536
377,1436891250889,44.4076983213274
378,1436891251641,34.8718192207204
379,1436891252395,42.8632223452196
380,1436891253122,35.8897506331855
381,1436891253843,44.1893106939131
382,1436891254514,47.5297064707414
383,1436891255185,53.7085087977583
384,1436891255882,36.4443425687768
385,1436891256568,47.5922888291544
386,1436891257250,37.6382743685781
387,1436891258005,45.464424039212
388,1436891258655,40.7014126354478
389,1436891259296,49.9029026824938
390,1436891260040,38.8115132644376
391,1436891260767,35.6368422764919
392,1436891261496,45.1436590668824
393,1436891262224,45.2537216181084
394,1436891262940,45.8180068695945
395,1436891263684,46.6151122797908
396,1436891264368,42.6440992973754
397,1436891265039,32.8365830486894
398,1436891265756,35.1526592758651
399,1436891266477,49.3166451980397
400,1436891267234,45.748417179148
401,1436891267997,32.6824481469497
402,1436891268718,43.1156982042404
403,1436891269397,41.3040470283407
404,1436891270019,46.1973780761013
405,1436891270661,37.3451383561419
406,1436891271388,52.6144430097963
407,1436891272122,43.278925019435
408,1436891272863,39.6414172046905
409,1436891273584,36.7837934013007
410,1436891274290,46.9726053239206
411,1436891274951,31.1080433271092
412,1436891275586,38.2504944940753
413,1436891276317,50.8652801507561
414,1436891277057,59.2891954861793
415,1436891277785,39.6150933767101
416,1436891278491,57.4595655367929
417,1436891279198,51.9891585519782
418,1436891279974,59.1888675806068
419,1436891280640,35.4188906355064
420,1436891281396,43.0519093118044
421,1436891282053,41.220995732444
422,1436891283440,42.0233424527146
423,1436891284174,56.3666044318901
424,1436891284855,28.5918046630519
425,1436891285507,39.5082124272385
426,1436891286237,37.1424927920108
427,1436891287055,40.7993970655564
428,1436891287779,52.690606277411
429,1436891288509,41.0612577699559
430,1436891289244,47.0286055474883
431,1436891290021,47.7155028813485
432,1436891290672,43.6351842455273
433,1436891291447,42.2251696369504
434,1436891292194,38.3290924077135
435,1436891292910,58.2841396932611
436,1436891293644,36.4161880721669
437,1436891294384,34.9713180378043
438,1436891295106,37.3371248015
439,1436891295774,36.1934359469599
440,1436891296381,31.8086578979661
441,1436891297117,44.4690797955773
442,1436891297888,37.4712614157979
443,1436891298577,55.0474340926314
444,1436891299320,38.8864764083891
445,1436891300060,35.4498250225468
446,1436891300771,56.4296589551344
447,1436891301548,42.6741472139112
448,1436891302268,42.4872211526169
449,1436891304384,36.1852083705511
450,1436891305058,40.7765935303043
451,1436891305720,56.2243478310336
452,1436891306434,53.3280952681287
453,1436891307198,58.9385038639789
454,1436891307882,41.1327798275438
455,1436891308597,47.3465656001026
456,1436891309322,52.6555163511254
457,1436891310110,50.6094890482149
458,1436891310761,43.2130812440979
459,1436891311471,43.9204773990281
460,1436891312251,36.4109397504985
461,1436891312994,56.3880427933203
462,1436891313725,41.4991648980369
463,1436891314460,55.7774024443919
464,1436891315191,45.7477216254065
465,1436891315894,49.7407079846292
466,1436891316562,57.417728664885
467,1436891317322,44.3405841090024
468,1436891318033,47.8578865509188
469,1436891318765,58.3420957202161
470,1436891319485,43.0140240290511
471,1436891320230,30.4396007865084
472,1436891321009,41.6941652910744
473,1436891321745,44.7576123043452
474,1436891322462,49.0988691573453
475,1436891323176,42.6613745917675
476,1436891323900,36.4607181724284
477,1436891324636,43.3234416927614
478,1436891325364,41.7883139176748
479,1436891326106,45.6048279052388
480,1436891326818,51.3040261079563
481,1436891327539,44.1975731972601
482,1436891328264,43.9342354989816
483,1436891328995,36.044595517286
484,1436891329731,40.3712929212413
485,1436891330471,50.0601370059271
486,1436891331204,51.8150832105
487,1436891331951,45.9413889252425
488,1436891332662,43.9679071747399
489,1436891333369,51.7636032561103
490,1436891334115,42.2547906640054
491,1436891334800,42.5166025801216
492,1436891335564,44.2755559629331
493,1436891336305,58.8736606050899
494,1436891336973,60.8971416475197
495,1436891337685,56.3580053996392
496,1436891338383,48.5955310556701
497,1436891339079,58.8739360526347
498,1436891339820,56.8691427906682
499,1436891340501,61.2299729961227
500,1436891341234,39.6049883078146
501,1436891341975,54.8457498749659
502,1436891342718,35.6589210472491
503,1436891343435,42.3365568122466
504,1436891344157,50.3452288180477
505,1436891344872,40.6160423641939
506,1436891345602,45.7648677620457
507,1436891346333,36.0847724625083
508,1436891347058,37.2887683088874
509,1436891347765,37.1962727027591
510,1436891348499,33.6630009295061
511,1436891349228,45.9981583037354
512,1436891349973,29.0874410352622
513,1436891350709,40.6068749457111
514,1436891351398,50.9101431884276
515,1436891352068,55.5203555262052
516,1436891352745,55.0513490063667
517,1436891353386,49.7049017407876
518,1436891354108,36.9940586381264
519,1436891354834,37.5890733099342
520,1436891355575,30.0637779484754
521,1436891356309,36.4872936824512
522,1436891356909,34.3816423289868
523,1436891357642,43.3953447390199
524,1436891358288,39.082349945843
525,1436891358930,32.0417752572783
526,1436891359615,43.9957930309641
527,1436891360313,55.4559217230443
528,1436891361034,30.2550245086396
529,1436891361771,40.8436533788906
530,1436891362505,50.6924611150561
531,1436891363245,45.8578396658688
532,1436891363968,51.2003292624509
533,1436891364692,33.9441183597786
534,1436891365438,32.2185945148372
535,1436891366155,37.8294267985874
536,1436891366876,46.568107367873
537,1436891367556,30.8853104183526
538,1436891368270,49.038357348071
539,1436891369021,28.6467238379706
540,1436891369697,40.8120250335851
541,1436891370367,29.8938162799217
542,1436891371079,32.8963295402744
543,1436891371806,29.7799703425689
544,1436891372515,48.2318506680675
545,1436891373129,27.490808859476
546,1436891373816,38.0924517049438
547,1436891374536,50.1534523512955
548,1436891375254,32.0654884310058
549,1436891375988,39.6385491212299
550,1436891376696,47.2100103091585
551,1436891377347,40.0553370304293
552,1436891378045,37.1673438188871
553,1436891378767,45.8624810418099
554,1436891379488,37.0067759524817
555,1436891380216,40.2512467484009
556,1436891380981,36.0755618344955
557,1436891381599,43.4848131451158
558,1436891382285,54.0974822472697
559,1436891383016,39.1733956697229
560,1436891383740,38.2452558004769
561,1436891384478,38.9377562110726
562,1436891385209,53.8811803864658
563,1436891385955,34.9735635619049
564,1436891386695,38.4571286031268
565,1436891387405,41.8053959232907
566,1436891388078,51.5324747848651
567,1436891388802,39.535511383608
568,1436891389526,49.3285999895111
569,1436891390261,41.6160789622938
570,1436891391022,41.3083162473317
571,1436891391782,32.1964119186567
572,1436891392461,57.8434083530818
573,1436891393182,41.8789785829972
574,1436891393909,36.1103156367166
575,1436891394650,47.7335112146959
