id,attr_time,attr_db
1,1436890975665,42.7642469998214
2,1436890976401,39.1532995820774
3,1436890977117,38.0465511378582
4,1436890977898,48.6305057760088
5,1436890978635,38.6136916994891
6,1436890979440,38.6278586523221
7,1436890980189,37.3968318938033
8,1436890980943,34.9252249238463
9,1436890981659,34.9160428171475
10,1436890982393,53.9733935338257
11,1436890983118,57.6108135832783
12,1436890983844,46.6169022570154
13,1436890984476,44.3109071850574
14,1436890985150,36.2703499872248
15,1436890985735,51.3155173703998
16,1436890986400,53.6677361545432
17,1436890987059,61.5567738837295
18,1436890987691,45.1899779048604
19,1436890988368,50.6410225253086
20,1436890989060,39.883858699134
21,1436890989824,33.3499557792404
22,1436890990553,38.3136708839074
23,1436890991275,42.9173850771972
24,1436890992008,35.6532125071026
25,1436890992746,36.0726749464148
26,1436890993493,56.0766763978898
27,1436890994207,40.0269670991219
28,1436890994886,41.9637574962648
29,1436890995636,41.5339678001439
30,1436890996362,39.8102489345635
31,1436890997052,32.4047825111014
32,1436890997652,33.9178803414398
33,1436890998350,35.4131346646764
34,1436890999164,43.9080117108582
35,1436890999985,34.0948057420476
36,1436891000671,34.6314429061357
37,1436891001337,39.7750712784393
38,1436891002044,34.1151088143531
39,1436891002775,37.4399610653338
40,1436891003497,39.4941073831566
41,1436891004234,46.9820314230087
42,1436891004955,47.8510377273523
43,1436891005687,37.9600342158402
44,1436891006419,36.7553529913941
45,1436891007150,43.211603052121
46,1436891007890,38.238959172213
47,1436891008582,36.9043461190312
48,1436891009335,36.3888433483982
49,1436891010076,38.5321278737409
50,1436891010817,43.5001262447709
51,1436891011568,38.3822851989402
52,1436891012285,37.552584057175
53,1436891013077,36.3482720251219
54,1436891013806,35.3581621458225
55,1436891014573,39.4492596780695
56,1436891015297,34.8071640940113
57,1436891016019,58.8595897093236
58,1436891016744,39.5703583873176
59,1436891017490,35.8031902752413
60,1436891018204,41.2313372822909
61,1436891018970,37.8845351896291
62,1436891019728,33.8756396663407
63,1436891020461,53.7687069185861
64,1436891021119,45.3640818308912
65,1436891021864,41.476904680544
66,1436891022603,38.2520246044278
67,1436891023336,45.3109344910539
68,1436891024116,49.4926722428233
69,1436891024879,46.3538541643144
70,1436891025597,45.6387922708128
71,1436891026337,39.5125737951416
72,1436891027074,42.0045800252884
73,1436891027831,46.7028819514032
74,1436891028551,41.5327625981388
75,1436891029289,44.9700320736135
76,1436891030019,64.8793715813766
77,1436891030690,47.6145942981256
78,1436891031412,41.0464078413002
79,1436891032190,53.6766384505733
80,1436891032947,40.815245820905
81,1436891033694,62.8696607702677
82,1436891034420,44.4922533044779
83,1436891035105,61.384771954983
84,1436891035799,39.3549980891403
85,1436891036519,46.741077945774
86,1436891037241,53.7961347813882
87,1436891037972,64.3553060978426
88,1436891038725,37.609012149184
89,1436891039431,34.3295371672288
90,1436891040109,38.9835563048008
91,1436891040792,41.7199305955331
92,1436891041450,43.8025143619562
93,1436891042270,45.0554346511457
94,1436891043001,46.7330215744972
95,1436891043762,51.7074252000566
96,1436891044545,51.3949018974301
97,1436891045245,44.0680560019164
98,1436891045922,47.0360275313289
99,1436891046676,47.3120502991089
100,1436891047417,44.328128766327
101,1436891048148,49.8807432805741
102,1436891048923,39.7269117792012
103,1436891049714,39.5888770868331
104,1436891050417,39.8158617043567
105,1436891051082,41.0897836227562
106,1436891051770,44.9247117949204
107,1436891052497,49.9815591710186
108,1436891053223,46.9201720477609
109,1436891053960,61.1281930104009
110,1436891054691,36.3892389205141
111,1436891055419,49.1692358371868
112,1436891056181,39.6310865866201
113,1436891056946,46.0476146895997
114,1436891057686,41.0247301644329
115,1436891058407,37.4826206814063
116,1436891059172,51.0145589570161
117,1436891059986,51.5240287014474
118,1436891060702,33.2084708790144
119,1436891061421,47.7919348772088
120,1436891062151,38.1447933785828
121,1436891062896,35.5530691149189
122,1436891063655,49.59250062325
123,1436891064382,35.8482340116411
124,1436891065162,55.9801878374016
125,1436891065935,36.9247000781337
126,1436891066684,35.0101836744699
127,1436891067406,43.1275773585657
128,1436891068144,36.3979191553596
129,1436891068904,50.1200519376678
130,1436891069642,25.8288564229855
131,1436891070352,44.6889191208046
132,1436891070987,37.7025434806161
133,1436891071654,40.5340607922056
134,1436891072333,36.8733275403246
135,1436891073014,34.6198939745581
136,1436891073728,34.045849172895
137,1436891074470,30.5347920606009
138,1436891075195,32.0153728416921
139,1436891075919,35.613524257542
140,1436891076652,27.3762799066729
141,1436891077393,41.5864732235103
142,1436891078113,36.1070090234186
143,1436891078860,39.6273886966591
144,1436891079599,36.6636605005599
145,1436891080355,33.9939589096146
146,1436891081045,32.0516441255118
147,1436891081630,27.0373140173243
148,1436891082309,32.3163329855648
149,1436891083039,33.2036346944178
150,1436891083803,29.8802146291046
151,1436891084595,31.3503378573707
152,1436891085306,35.5405633134807
153,1436891086003,44.0907595484779
154,1436891086768,40.6804336878919
155,1436891087496,40.325906445962
156,1436891088225,34.0034464045591
157,1436891088959,33.5546188930257
158,1436891089721,33.2707208563593
159,1436891090430,30.3467227063736
160,1436891091180,43.1974690671882
161,1436891091860,39.0174301892835
162,1436891093295,38.0804215052792
163,1436891093970,44.9836042555445
164,1436891094691,38.1633594082171
165,1436891095409,33.8373591991066
166,1436891096169,38.2815351021006
167,1436891096932,31.1812150655182
168,1436891097563,31.94926826131
169,1436891098297,34.6769768467927
170,1436891099050,33.5327405303464
171,1436891099818,54.2210215792747
172,1436891100526,41.4782552758095
173,1436891101217,49.8788076554541
174,1436891101944,36.8209066968267
175,1436891102683,42.2685044700982
176,1436891103408,39.4567266446043
177,1436891104145,36.6581850430661
178,1436891104882,35.4033245453139
179,1436891105624,33.1988482576279
180,1436891106233,33.2075437551375
181,1436891106952,35.667860799221
182,1436891107664,34.3124603865947
183,1436891108324,36.9721071944175
184,1436891108975,35.4378601540026
185,1436891109632,36.0039554071606
186,1436891111164,38.2718928544529
187,1436891111969,42.4850442261017
188,1436891112707,47.6905205906383
189,1436891113431,35.2170549944321
190,1436891114167,31.7388139784606
191,1436891114907,34.7005518095319
192,1436891115653,48.5425008378782
193,1436891116415,53.2581117069396
194,1436891117126,43.8477035873297
195,1436891117860,38.3280464579525
196,1436891118564,37.3128273855646
197,1436891119279,39.0534581319627
198,1436891120025,40.4756304849987
199,1436891120733,34.266561666511
200,1436891121425,29.3649194978858
201,1436891122155,35.8510990807802
202,1436891122986,36.1926219279939
203,1436891123720,45.9693689807743
204,1436891124451,54.3539033072089
205,1436891125183,39.2497417972741
206,1436891125913,44.9289669517847
207,1436891126643,37.1664467932136
208,1436891127372,36.614442774248
209,1436891128089,34.3651338793308
210,1436891128765,46.7139733751881
211,1436891129423,35.7530145804849
212,1436891130203,46.3433661098084
213,1436891130929,36.7262401631346
214,1436891131665,35.5012676535084
215,1436891132395,36.059016709441
216,1436891133161,40.8701343251522
217,1436891133981,35.4154743988844
218,1436891134659,44.0353720791079
219,1436891135395,35.0779146797372
220,1436891136119,41.2425182511279
221,1436891136852,56.3855618387886
222,1436891137585,42.2939838887295
223,1436891138303,38.6667937827416
224,1436891139019,42.5019863742345
225,1436891139716,42.878556816262
226,1436891140511,43.1438900210939
227,1436891142220,35.7100045625707
228,1436891142842,34.3994283712772
229,1436891143525,41.2835169500553
230,1436891144249,37.2804484267842
231,1436891144990,39.1659768444885
232,1436891145727,37.3116354965947
233,1436891146417,38.1202176625982
234,1436891147146,38.1192614096199
235,1436891147869,40.4541758320048
236,1436891148587,40.5999493409647
237,1436891149257,38.5314292940989
238,1436891150043,42.752772164453
239,1436891150795,38.6036413925705
240,1436891151513,39.5282720003509
241,1436891152246,39.4294191455739
242,1436891152955,39.8871650906355
243,1436891153699,36.3680941970077
244,1436891154418,36.5343926425329
245,1436891155214,37.6381070791724
246,1436891155940,40.7028127868796
247,1436891156609,32.8636045103883
248,1436891157340,37.5181898223488
249,1436891159314,40.5358145281987
250,1436891160019,41.343311786482
251,1436891160770,38.3727276958004
252,1436891161499,47.4381423592941
253,1436891162245,49.7569209515526
254,1436891162995,50.7094889104415
255,1436891163698,36.0083549108296
256,1436891164364,36.5301432860463
257,1436891165090,34.2449825435334
258,1436891165833,33.9308217846822
259,1436891166433,37.623982874803
260,1436891167176,36.8238628613241
261,1436891167907,38.2230374834508
262,1436891168633,40.8776386325178
263,1436891169365,37.5338400874209
264,1436891170167,47.5180513063315
265,1436891170859,40.0977543613545
266,1436891171477,38.8754516755101
267,1436891172227,39.3942642921786
268,1436891172978,40.5167649735859
269,1436891173723,36.9185576317024
270,1436891174447,39.2597342017065
271,1436891175280,36.7367354368214
272,1436891175987,35.4868488179993
273,1436891176700,38.8198629175402
274,1436891177430,36.0206757467571
275,1436891178127,37.2251895524221
276,1436891178854,39.2458461724586
277,1436891179589,39.8934607527676
278,1436891180337,39.529869473834
279,1436891181058,41.7455651535404
280,1436891181755,35.2951529574753
281,1436891182491,37.6974373500288
282,1436891183217,38.2812808010837
283,1436891183965,37.0627046015439
284,1436891184700,37.3552018438581
285,1436891185443,36.9493307483266
286,1436891186137,35.7671907939372
287,1436891186830,46.826926893091
288,1436891187566,39.7401069354378
289,1436891188302,39.645566951347
290,1436891189017,36.6645501517345
291,1436891189751,39.8479053589772
292,1436891190462,35.0103532456649
293,1436891191207,36.3162343187941
294,1436891191884,37.116130553366
295,1436891192602,37.1869887332174
296,1436891193321,37.8529141474164
297,1436891194059,39.2638347471714
298,1436891194811,36.5791518974534
299,1436891195547,38.9617560802942
300,1436891196228,38.985411673672
301,1436891196937,35.6991883628188
302,1436891197585,39.1229540876352
303,1436891198276,43.1786750005718
304,1436891199010,36.9049848230202
305,1436891199758,38.0264023705666
306,1436891200512,39.3315891009297
307,1436891201210,38.584709439307
308,1436891201867,36.3007475393364
309,1436891202602,36.0800102150566
310,1436891203330,35.2715826179432
311,1436891204051,34.9250222466208
312,1436891204803,37.5569822596889
313,1436891205545,37.8647938384556
314,1436891206321,34.5058920516071
315,1436891206948,34.1715142446509
316,1436891207640,43.6108195555374
317,1436891208361,37.5470192497427
318,1436891209101,39.9713529312559
319,1436891209819,45.8111191988981
320,1436891210567,46.8725447051191
321,1436891211292,39.277743903943
322,1436891211999,65.8619718596277
323,1436891212704,66.9073546076428
324,1436891213445,43.7780633397963
325,1436891214182,44.9503690798772
326,1436891214954,62.0449308958014
327,1436891215691,76.3935523206777
328,1436891216408,49.151504177073
329,1436891217116,39.5489442272069
330,1436891217862,40.4210734759942
331,1436891218599,42.4693859416135
332,1436891219332,38.2618077965142
333,1436891220073,41.4645870208419
334,1436891220811,47.284519115564
335,1436891221542,36.6484769113248
336,1436891222261,40.076320456639
337,1436891222997,55.0008685263437
338,1436891223721,48.9765561669649
339,1436891224452,54.2752170094189
340,1436891225194,66.0776183435752
341,1436891225943,41.5849001304474
342,1436891226668,42.9435887978072
343,1436891227280,49.2856014171467
344,1436891227965,50.1605440600262
345,1436891228698,38.3143815178462
346,1436891229444,39.7967538000218
347,1436891230186,41.8107704871885
348,1436891230923,38.5045964894059
349,1436891231595,36.4983178936102
350,1436891232301,35.9335250930023
351,1436891232974,34.6648852614427
352,1436891233721,38.0625245950336
353,1436891234468,37.3708622764637
354,1436891235203,35.8773148923054
355,1436891235954,36.6654454508474
356,1436891236662,35.9884006508563
357,1436891237346,37.2270145206573
358,1436891238067,36.1709712584604
359,1436891238811,36.8079221150756
360,1436891239557,39.7886577957011
361,1436891240368,54.9822859355383
362,1436891241113,38.9105117173179
363,1436891241864,35.2625368309631
364,1436891242590,39.9181235866785
365,1436891243239,36.1415807791444
366,1436891243989,36.0779466016955
367,1436891244713,36.9905161217822
368,1436891245491,39.5144629998626
369,1436891246264,37.8256040990024
370,1436891247005,41.3884067165501
371,1436891247591,37.398883263628
372,1436891248259,38.1924674612498
373,1436891248997,36.6691896065481
374,1436891249724,36.4557230124909
375,1436891250471,50.7139473068884
376,1436891251304,41.8651432584409
377,1436891251991,41.0659200401067
378,1436891252643,38.4891773694788
379,1436891253363,42.4659167555351
380,1436891254119,40.5706019837754
381,1436891254887,39.5482922550049
382,1436891255614,36.7218179380669
383,1436891256388,34.4467287736477
384,1436891257085,34.6146421137803
385,1436891257811,37.3622727596451
386,1436891258476,33.5790636406881
387,1436891259207,30.1883982754331
388,1436891259945,37.164225068049
389,1436891260715,33.829770509146
390,1436891261409,30.9700566622144
391,1436891262090,35.3259130811307
392,1436891262809,34.3259935185274
393,1436891263457,36.008951949586
394,1436891264185,47.1998046585219
395,1436891264952,36.9447402140323
396,1436891265677,36.348943138151
397,1436891266480,35.9023430544895
398,1436891267205,44.3587260663644
399,1436891267944,46.4888160600638
400,1436891268714,45.0354613425004
401,1436891269445,34.6906068265749
402,1436891270182,34.5534251851045
403,1436891270923,33.3770397745047
404,1436891271671,35.0867779840151
405,1436891272406,36.9664277543646
406,1436891273166,31.114074893724
407,1436891273925,31.7431213699031
408,1436891274646,35.6962949722242
409,1436891275262,32.8334698008525
410,1436891275955,36.3771668896094
411,1436891276681,35.4626025703494
412,1436891277417,30.1773397449659
413,1436891278167,37.6603323757497
414,1436891278909,35.0730543744761
415,1436891279628,33.6779157323294
416,1436891280363,32.8123070331626
417,1436891281058,33.5268636631608
418,1436891281730,31.3255363283984
419,1436891282452,34.8217367555648
420,1436891283180,35.216605731471
421,1436891283908,38.8365364281497
422,1436891284592,37.0493704101937
423,1436891285339,36.3805975685758
424,1436891286069,38.9301288522774
425,1436891286730,38.931880903561
426,1436891287461,36.5929536055826
427,1436891288196,36.183030424219
428,1436891288981,35.8176526148102
429,1436891289620,31.766256480761
430,1436891290289,34.0707054547639
431,1436891291007,40.1418113052474
432,1436891291746,37.6753862809225
433,1436891292473,32.9817102194627
434,1436891293201,34.5041463647339
435,1436891293959,34.5538703024239
436,1436891294681,36.355281888698
437,1436891295355,32.7314050180382
438,1436891296028,32.512691864606
439,1436891297522,32.4629223328278
440,1436891298215,38.2854993284948
441,1436891298969,37.3289876828095
442,1436891299714,32.7587282909641
443,1436891300448,30.6514171395167
444,1436891301248,35.6338472547308
445,1436891302020,36.1695638941642
446,1436891302775,36.8783806777477
447,1436891303449,33.5781149384295
448,1436891304181,35.0291534453358
449,1436891304915,37.1905155738805
450,1436891305622,30.5562364180232
451,1436891306425,32.4188069500737
452,1436891307176,30.6927765864388
453,1436891307931,55.0148408978671
454,1436891308644,48.3976785202002
455,1436891309346,52.8696530482395
456,1436891310074,50.578168189312
457,1436891310793,55.3615221549374
458,1436891311534,42.2050604239276
459,1436891312263,41.2506612850915
460,1436891312988,42.335406919273
461,1436891313734,40.1966366346799
462,1436891314427,36.2758711919043
463,1436891315183,40.448942466113
464,1436891315932,42.3783627391667
465,1436891316661,71.8022110376487
466,1436891317373,54.5931674706738
467,1436891319314,30.6628177817238
468,1436891320014,36.8131020427701
469,1436891320810,32.4609992404281
470,1436891321536,28.9447896532254
471,1436891322274,32.4585767752534
472,1436891323015,34.3396455210087
473,1436891323804,29.9910141411778
474,1436891324537,32.0394288347087
475,1436891325257,37.9827572267833
476,1436891325984,34.6396953084646
477,1436891326717,33.0552781343308
478,1436891327442,34.8295207485765
479,1436891328192,30.3595855364074
480,1436891328944,32.4049802887323
481,1436891329609,35.3180681594828
482,1436891330176,33.6678159437052
483,1436891330866,35.0568802348712
484,1436891331586,37.530349002484
485,1436891332359,35.3865538011692
486,1436891333088,36.2487946543637
487,1436891333843,37.4022306399454
488,1436891334566,33.4206325022296
489,1436891335300,45.6931187874444
490,1436891336028,34.2895287204831
491,1436891336783,45.742400099812
492,1436891337530,33.2570519873422
493,1436891338267,26.8094043278466
494,1436891338990,34.6037129076075
495,1436891339738,40.1083549742757
496,1436891340465,31.0196699467737
497,1436891341192,44.8851499226907
498,1436891341851,43.4980116255518
499,1436891342582,37.3304304193873
500,1436891343301,42.8321934229498
501,1436891344047,40.7759610409847
502,1436891344772,29.3478664847058
503,1436891345433,44.5984162018001
504,1436891346152,40.0525068513877
505,1436891346922,34.8447489105634
506,1436891347574,37.9790524309903
507,1436891348299,37.9895593054526
508,1436891349031,32.4623804273503
509,1436891349684,43.214423189676
510,1436891350317,40.833753025383
511,1436891351010,50.4358501731391
512,1436891351735,40.9155148802658
513,1436891352432,45.4658374997755
514,1436891353105,38.286279098202
515,1436891353835,40.1752846834198
516,1436891354597,36.475191296352
517,1436891355327,37.205048881583
518,1436891356040,32.0946236548203
519,1436891356744,37.3835064810949
520,1436891358718,28.9733625265129
521,1436891359501,30.7596064472518
522,1436891360221,30.2991830117796
523,1436891360999,22.8063668135025
524,1436891361762,29.1919080156206
525,1436891362497,30.9194599383839
526,1436891363225,21.8334976814128
527,1436891363955,27.7583498744376
528,1436891364706,28.3316164025116
529,1436891365430,21.4810875673623
530,1436891366171,27.0008449569175
531,1436891366901,22.9959914670572
532,1436891367605,28.4577850752626
533,1436891368341,28.5524300022105
534,1436891369109,26.7179080704795
535,1436891369887,36.4191415259004
536,1436891370593,31.8420754061272
537,1436891371213,24.6036341858036
538,1436891371846,19.8773537080402
539,1436891372537,25.1393780390904
540,1436891373343,23.8543805101935
541,1436891374073,25.7257165403434
542,1436891374786,28.2169642279235
543,1436891375514,28.0648121901654
544,1436891376238,36.432666615863
545,1436891376928,28.1140040883819
546,1436891377699,23.7013036507368
547,1436891379493,31.2227504073839
548,1436891380236,31.849816235564
549,1436891381002,29.9344564325552
550,1436891381740,28.7895545386767
551,1436891382480,33.3775194938589
552,1436891383214,28.9958871645922
553,1436891383873,57.2710137713228
554,1436891384564,38.4463824011631
555,1436891385291,46.2666967545354
556,1436891386034,37.6151531649327
557,1436891386769,41.9771071263012
558,1436891387505,35.9352838137748
559,1436891388274,35.6458509665493
560,1436891388896,30.8901012389833
561,1436891389609,34.8688569758948
562,1436891390350,44.880627564383
563,1436891391012,54.5859002723982
564,1436891391773,38.7640523201135
565,1436891392514,32.9086966926836
566,1436891393219,36.1650711093996
567,1436891393873,39.2246289339951
568,1436891394575,30.0849804397558
569,1436891395317,44.2407003457247
570,1436891396069,32.4120031002509
571,1436891396810,41.8343906323588
572,1436891397549,41.4132573340449
573,1436891398317,53.4361481613436
574,1436891399010,39.9311362328279
575,1436891399758,38.4253642248799
