id,attr_time,attr_db
1,1436546582134,39.115310451246
2,1436546582892,38.869460618726
3,1436546583628,46.2511625796538
4,1436546584366,40.4356136043998
5,1436546585087,45.6903228984656
6,1436546585743,62.0868416323997
7,1436546586386,74.3246176659595
8,1436546587888,59.9963479612398
9,1436546588569,47.5035014375757
10,1436546589224,53.7491453071453
11,1436546589971,39.6868645240746
12,1436546590692,41.2238190320697
13,1436546591354,38.9007112066925
14,1436546592086,43.6917735770792
15,1436546594072,54.5204250868371
16,1436546594742,43.5808390701176
17,1436546595462,46.6077440412596
18,1436546596216,42.9664338997079
19,1436546596974,44.2338579662764
20,1436546597698,40.2289642678474
21,1436546598394,56.4732331522345
22,1436546599057,40.8108607717426
23,1436546600819,54.8384787526616
24,1436546601560,37.9293141730742
25,1436546602241,39.9979350601412
26,1436546602923,37.5208722563047
27,1436546603656,52.7756121014766
28,1436546604347,34.0060998684963
29,1436546605809,40.6773370703372
30,1436546606494,34.9223899190646
31,1436546607223,40.6668229019045
32,1436546607955,41.7002144674429
33,1436546608679,54.8932923498168
34,1436546609320,51.6448895718895
35,1436546610067,34.9779651441979
36,1436546610786,52.4525496070593
37,1436546611517,42.1234513471998
38,1436546612211,36.0003015038555
39,1436546612940,43.6072320045197
40,1436546613680,38.612320644166
41,1436546614412,37.1873212178908
42,1436546615120,39.0624607016051
43,1436546615807,40.6521731732464
44,1436546616573,36.8531395207843
45,1436546617272,55.0571096369904
46,1436546618002,45.2283491928198
47,1436546618735,45.1174912238874
48,1436546619456,46.1941377437037
49,1436546620199,41.4587734498962
50,1436546620941,38.4930596063388
51,1436546621608,44.5533661968127
52,1436546622299,48.0448721930449
53,1436546623021,54.471364093024
54,1436546623747,42.4699223042714
55,1436546624456,40.7536946846073
56,1436546625185,32.293882324196
57,1436546626023,42.125465757979
58,1436546626679,65.1085142344573
59,1436546627402,61.6071478114035
60,1436546628147,41.5924110312168
61,1436546628865,56.8091987563026
62,1436546629585,51.01203248937
63,1436546630248,46.6213291491555
64,1436546630980,60.8789312199496
65,1436546631649,43.1444149357546
66,1436546632336,44.4016583869864
67,1436546633096,41.9072161692114
68,1436546633834,39.1849097449084
69,1436546634554,62.1474079573399
70,1436546635293,36.8684252393774
71,1436546636043,52.406713206891
72,1436546636789,43.8199316911044
73,1436546637534,33.6622981567242
74,1436546638293,31.7217400704213
75,1436546639007,41.1596427822447
76,1436546639681,45.233718463206
77,1436546640371,73.7225675940586
78,1436546641083,68.2470253106409
79,1436546641741,42.5824903374942
80,1436546642462,43.7972242069549
81,1436546643187,57.896545162079
82,1436546643870,35.9070635393379
83,1436546644619,34.333277781045
84,1436546645406,71.9332974689069
85,1436546646125,41.8333579382929
86,1436546646742,47.3026773678359
87,1436546647453,74.4105905409752
88,1436546648186,50.1204701583221
89,1436546648899,41.4871654075042
90,1436546649611,44.9383677679903
91,1436546650277,46.2580537486863
92,1436546651002,37.9429097078429
93,1436546651702,49.155392848538
94,1436546652395,37.8594394066877
95,1436546653128,38.1894000995448
96,1436546653796,37.5893069065793
97,1436546654488,42.5372026274292
98,1436546655217,67.0814869637938
99,1436546655971,58.2771684026211
100,1436546656714,52.3516647145435
101,1436546657457,62.0819928630951
102,1436546658188,33.0577510324166
103,1436546658906,39.8753711332711
104,1436546659626,67.4068469757106
105,1436546660283,37.3596007545078
106,1436546661007,33.3879445452721
107,1436546661734,51.042307503609
108,1436546662465,64.5905672159029
109,1436546663186,71.5754504516372
110,1436546663919,48.9045189983076
111,1436546664667,62.607846978487
112,1436546665399,36.616120372137
113,1436546666116,44.2822009360788
114,1436546666823,66.4216188170258
115,1436546667566,42.4814414587647
116,1436546668306,59.2031840376343
117,1436546669038,40.0040967918855
118,1436546669759,50.8838179604979
119,1436546670451,43.3772471895146
120,1436546671147,62.5361974434783
121,1436546671898,43.2401879279555
122,1436546672635,49.6134917005341
123,1436546673371,35.9202467104662
124,1436546674253,30.6991694081839
125,1436546674954,37.4672393792236
126,1436546675674,44.0454766045079
127,1436546676417,50.614958539371
128,1436546677162,37.2022987587897
129,1436546678025,35.2707038941484
130,1436546678775,62.3016150144928
131,1436546679512,37.2384511389976
132,1436546680237,36.876906158036
133,1436546680921,43.2514514438072
134,1436546681583,43.3111005443163
135,1436546682323,44.3003827000227
136,1436546683139,42.4852055034796
137,1436546683847,42.2770943134144
138,1436546684518,44.7219024459989
139,1436546685244,48.7928479415174
140,1436546686076,57.5362343147288
141,1436546686805,44.6997100457667
142,1436546687532,38.8359111505603
143,1436546688264,38.9657633033256
144,1436546689002,60.7926812493362
145,1436546689745,44.2282173249286
146,1436546690504,35.8525726480844
147,1436546691208,33.9198023182947
148,1436546691965,32.6297918826901
149,1436546692699,34.68294862957
150,1436546693422,36.1669681052994
151,1436546694190,32.7223003881823
152,1436546694913,30.677596528713
153,1436546695644,38.2472702485352
154,1436546696382,32.9510789736755
155,1436546697117,32.5244332687421
156,1436546697795,34.2923923232898
157,1436546698541,35.2590191287635
158,1436546699247,34.4442627585988
159,1436546699982,38.4685038031675
160,1436546700706,38.2693487897562
161,1436546701388,37.8281686686879
162,1436546702141,33.4582995777659
163,1436546703012,56.011987469473
164,1436546703732,40.438247352444
165,1436546704396,38.6142314353829
166,1436546705137,32.5646388990397
167,1436546705883,36.7837179424015
168,1436546706570,38.8486380002143
169,1436546707201,36.9435789406691
170,1436546707932,34.6538748628082
171,1436546708671,39.2691900403237
172,1436546709413,43.5775008068257
173,1436546710135,40.5187636228869
174,1436546710858,36.5073663023112
175,1436546711546,70.6346579817657
176,1436546712210,53.8793939527692
177,1436546713036,53.6516314648053
178,1436546713728,45.4685689924134
179,1436546714378,65.7708299690006
180,1436546715076,62.238510469527
181,1436546715823,61.7102364587664
182,1436546716562,35.8785016190351
183,1436546717369,65.9180228640512
184,1436546718096,33.8971945017377
185,1436546718837,63.460780053474
186,1436546719561,48.378777339631
187,1436546720288,57.1346116209659
188,1436546721008,34.8466127715867
189,1436546721680,29.6471038614095
190,1436546722411,59.7973619070979
191,1436546723145,60.2723770214666
192,1436546723876,51.5011377249171
193,1436546724634,45.3611008140135
194,1436546725365,44.3498429795916
195,1436546726098,38.2155533850763
196,1436546726823,47.6231213823007
197,1436546727552,42.3268563307604
198,1436546728276,38.6904624484779
199,1436546729025,37.5607355736535
200,1436546729753,35.1892365279236
201,1436546730513,40.3789830657977
202,1436546731238,36.0404885848827
203,1436546731933,36.1128368875004
204,1436546732738,67.0615747200997
205,1436546733500,46.0185717006215
206,1436546734234,44.7627733759054
207,1436546735064,49.9716093012419
208,1436546735814,31.8680288525719
209,1436546736549,47.2233062087803
210,1436546737282,42.5657827257026
211,1436546738094,30.0314636364017
212,1436546738841,40.623997446325
213,1436546739566,45.0719954961864
214,1436546740291,32.5470212118843
215,1436546741034,65.1914653270146
216,1436546741756,61.2205438720422
217,1436546742398,37.351832798649
218,1436546743126,38.087982425087
219,1436546743863,61.7882512673493
220,1436546744604,65.1695484426489
221,1436546745304,46.1210526926128
222,1436546745979,39.8617675951681
223,1436546746707,68.5306421538674
224,1436546747402,58.6374554209783
225,1436546748111,63.9904716539017
226,1436546748848,37.443677807428
227,1436546749587,36.2699471634171
228,1436546750320,37.0806276534262
229,1436546751062,39.6626771299024
230,1436546751784,66.0948837780665
231,1436546752487,60.3125044657813
232,1436546753138,49.3419920120839
233,1436546753882,62.7143494523288
234,1436546754634,41.5294519919063
235,1436546755381,63.4975642482209
236,1436546756150,57.5771755823286
237,1436546756871,55.2374954987204
238,1436546757648,48.5989458747857
239,1436546758379,52.1115334231052
240,1436546759115,67.060800505923
241,1436546759851,56.4225570784304
242,1436546760581,30.4742120743028
243,1436546761314,28.3885533044034
244,1436546762044,31.3982919107935
245,1436546762784,52.5091979199093
246,1436546763518,30.1468367101789
247,1436546764260,31.8404204511305
248,1436546765009,31.5832470651261
249,1436546765777,28.3685730458043
250,1436546766442,39.3354719011575
251,1436546767161,51.6163126339558
252,1436546767793,51.5401084819146
253,1436546768526,28.7863329833413
254,1436546769254,42.806913217213
255,1436546769988,41.5673357896145
256,1436546770731,29.8387975942652
257,1436546771463,26.6937899784042
258,1436546772207,54.271732740629
259,1436546772896,33.8662895749007
260,1436546773594,42.3678737635711
261,1436546774339,56.5623091762254
262,1436546775088,39.6411368996877
263,1436546775839,37.5756439146815
264,1436546776699,35.4638550087279
265,1436546777539,44.9358144555207
266,1436546778342,41.8189226095426
267,1436546779062,49.6951881315522
268,1436546779794,49.2183727875364
269,1436546780535,40.3700153605326
270,1436546781253,38.1290778807568
271,1436546781967,37.7338873820409
272,1436546782591,35.3599153799168
273,1436546783277,57.711730936133
274,1436546784017,32.7513990343218
275,1436546784741,35.0225010244384
276,1436546785471,44.6067652434791
277,1436546786223,33.3886968576679
278,1436546786956,35.7847441855433
279,1436546787710,47.9118602162919
280,1436546788509,43.9013258670282
281,1436546789252,46.7398415326979
282,1436546789985,45.6119788737785
283,1436546792057,39.0151353205971
284,1436546792715,49.0012530910333
285,1436546793510,47.1765579274086
286,1436546794268,34.7587333139057
287,1436546795032,34.618533356909
288,1436546795767,45.5223714052573
289,1436546796505,39.6472740322605
290,1436546797242,38.0160379123661
291,1436546797966,32.7991476551205
292,1436546798727,35.3285717741978
293,1436546799453,50.3844517955747
294,1436546800171,60.8690177245402
295,1436546802137,47.3390482843272
296,1436546802892,39.4183460536517
297,1436546803642,46.0582561528067
298,1436546804335,31.1654876872551
299,1436546805062,29.7308409429152
300,1436546805775,43.841584185386
301,1436546806455,40.6647628390933
302,1436546807203,30.9572327569303
303,1436546807974,48.3027071929201
304,1436546808748,32.6045398502127
305,1436546809486,30.2079317343344
306,1436546810231,28.4472529425934
307,1436546810924,52.2735510418206
308,1436546811592,29.0119960595476
309,1436546812328,40.4790407113788
310,1436546813070,35.7564545944279
311,1436546813799,38.4871973401641
312,1436546814479,42.8620181584458
313,1436546815196,43.2740691662297
314,1436546817442,43.3996314996326
315,1436546818173,39.4364240878861
316,1436546818915,38.4148215486392
317,1436546819660,35.6614866141288
318,1436546820418,34.3356427328325
319,1436546821152,46.4277888312471
320,1436546821890,35.2170938487286
321,1436546822632,60.0745261020892
322,1436546823333,33.167423059699
323,1436546824023,37.4672208842032
324,1436546824625,55.2936406757806
325,1436546825953,45.8414808673601
326,1436546826655,53.8055188829945
327,1436546827325,33.9533562342569
328,1436546828029,34.7266137518199
329,1436546828767,46.2136661465616
330,1436546829504,37.590981833326
331,1436546830241,34.6108071027856
332,1436546830959,32.4801625038188
333,1436546831684,43.0999107994134
334,1436546832467,58.2859801659926
335,1436546833198,37.6363420293222
336,1436546833915,33.4733448190693
337,1436546834600,51.8299588829488
338,1436546835370,38.7761379557289
339,1436546836108,47.3118549248834
340,1436546836857,31.5812830448544
341,1436546837570,45.233020868037
342,1436546838301,56.8681639423733
343,1436546838954,43.314212559683
344,1436546839678,31.6757118483197
345,1436546840363,38.4266275334901
346,1436546841020,30.4587000714678
347,1436546841731,38.5144833667505
348,1436546842436,42.2823253142697
349,1436546843166,36.5147010886572
350,1436546843931,31.7825473158229
351,1436546844602,58.1362873570513
352,1436546845287,39.4102900897993
353,1436546846028,33.2732162648145
354,1436546846742,31.7982161354068
355,1436546847450,44.0320967662669
356,1436546848072,51.7841808290671
357,1436546848713,33.7399445831607
358,1436546849367,50.8820401742597
359,1436546850053,49.2112045481834
360,1436546850769,61.3863886994777
361,1436546851511,45.8771708993214
362,1436546852244,40.4763591902035
363,1436546852967,46.3635648164419
364,1436546853778,34.6317044951999
365,1436546854501,51.9687790788173
366,1436546855128,52.2944976929674
367,1436546855842,34.1042988189951
368,1436546856683,36.5715496267369
369,1436546857379,34.3325694494719
370,1436546858195,47.6029053141708
371,1436546858919,42.8374576892258
372,1436546859655,46.5325319624937
373,1436546860386,64.6044130698346
374,1436546861134,49.7099643289906
375,1436546861866,44.3075425702573
376,1436546862602,49.1179180498243
377,1436546863379,36.392278673158
378,1436546864070,39.6460926595619
379,1436546864707,35.567343891233
380,1436546865436,35.2708742155167
381,1436546866154,42.8818253950726
382,1436546866868,36.4093527383609
383,1436546867529,55.7876603226504
384,1436546868245,65.0164039624161
385,1436546868904,50.6289500864168
386,1436546869578,61.8858755209001
387,1436546870317,60.7223513025984
388,1436546871051,51.0111993982164
389,1436546871779,54.7900640899685
390,1436546872567,51.2401256970491
391,1436546873305,46.8525464680397
392,1436546874053,49.8228091361694
393,1436546874763,42.8428145556147
394,1436546875428,38.8958667254349
395,1436546876148,42.904180007866
396,1436546876907,38.585280887502
397,1436546877632,51.3648443385915
398,1436546878371,36.7609800820392
399,1436546879098,37.8537823658547
400,1436546879827,41.741962652319
401,1436546880593,37.4022817464388
402,1436546881329,35.8963438599192
403,1436546882059,53.7554724594884
404,1436546882789,58.1545195913852
405,1436546883532,57.4928240973041
406,1436546884252,36.80973239497
407,1436546884996,44.432568703694
408,1436546885670,38.4149722168017
409,1436546886360,58.5169585478686
410,1436546887081,37.1657242757945
411,1436546887902,36.7429978301092
412,1436546888691,43.0815302818912
413,1436546889406,37.6897042444311
414,1436546890089,47.3375754266111
415,1436546890823,37.7444438578658
416,1436546891528,45.5072152238
417,1436546892255,40.9464158024936
418,1436546893045,33.9351909955557
419,1436546893785,37.0216087242491
420,1436546894534,49.7609145708784
421,1436546895275,46.16431311891
422,1436546895953,39.2959638160491
423,1436546896672,65.9395886775932
424,1436546897396,53.9575593006125
425,1436546898218,59.5234443212987
426,1436546899051,64.1104490137942
427,1436546899731,42.033301711045
428,1436546900471,41.867139859363
429,1436546901204,42.7937050705084
430,1436546901938,58.4253120156018
431,1436546902708,62.7028200688321
432,1436546903441,66.5042608903956
433,1436546904174,49.1066534089782
434,1436546904914,48.4481364274251
435,1436546905618,44.9720650615226
436,1436546906295,47.7659889270383
437,1436546907013,45.4835428862589
438,1436546907744,45.7528000927608
439,1436546908465,46.5353309947414
440,1436546909232,49.3397242723338
441,1436546909971,46.1773912852929
442,1436546910656,49.7879250067213
443,1436546911369,48.5531916996932
444,1436546912117,56.1651694313617
445,1436546912885,56.8561125887283
446,1436546913633,55.6173849193552
447,1436546914371,48.5345502754818
448,1436546915116,49.0190755335283
449,1436546915833,52.8557748403992
450,1436546916496,46.6390226838594
451,1436546917227,46.5693325532995
452,1436546917998,48.3844208198776
453,1436546918752,45.8815722870196
454,1436546919485,53.5698787967568
455,1436546920191,47.5045306582058
456,1436546920934,45.4340875315357
457,1436546921606,45.0547754930345
458,1436546922348,44.9174997326601
459,1436546923074,56.0734819977749
460,1436546923824,52.6855375321266
461,1436546924560,45.378918956058
462,1436546925301,54.847192367353
463,1436546926025,42.0150159539039
464,1436546926754,48.5429209776418
465,1436546927480,43.7700042729228
466,1436546928204,64.3922311557565
467,1436546929007,62.229703528348
468,1436546929723,49.4439535764788
469,1436546930447,62.7484102500082
470,1436546931192,45.187976294943
471,1436546931929,46.9044740898815
472,1436546932667,46.908654616621
473,1436546933462,46.724973612252
474,1436546934194,52.565046027596
475,1436546934950,48.4403448161695
476,1436546935690,59.3618133063863
477,1436546936414,47.2996947689458
478,1436546937045,49.1137191003179
479,1436546937736,50.8650330333241
480,1436546938546,53.748754177397
481,1436546939303,50.6391456911292
482,1436546940060,47.5027532238016
483,1436546940767,56.5790549508468
484,1436546941387,48.2648822235427
485,1436546942085,48.9952224925325
486,1436546942826,53.9696363566842
487,1436546943579,56.8151941919656
488,1436546944312,52.5525297623024
489,1436546945035,58.4280340560986
490,1436546945761,63.5295458575822
491,1436546946482,56.6975451297978
492,1436546947176,71.0981741712364
493,1436546947906,68.5675756280633
494,1436546948622,71.0498647653016
495,1436546949316,56.1613960549344
496,1436546949932,47.840146978949
497,1436546950623,63.3625273609881
498,1436546951307,50.7150366087795
499,1436546952048,48.2821913043427
500,1436546952794,47.1032615088187
501,1436546953527,60.6184578136749
502,1436546954253,46.4168431773691
503,1436546954982,47.1405174508803
504,1436546955712,55.1707486711162
505,1436546956392,45.5704208256813
506,1436546957022,49.1787381635932
507,1436546957718,46.2780003695962
508,1436546958516,47.0423810628936
509,1436546959266,43.9294871006203
510,1436546960018,53.9520070737705
511,1436546960739,43.7681898353619
512,1436546961458,40.3314775420448
513,1436546962180,63.5823677450017
514,1436546962853,64.4320596997885
515,1436546963578,69.9718906714528
516,1436546964310,54.9537608576617
517,1436546965017,54.1460176588995
518,1436546965757,61.8453169717268
519,1436546966489,60.0872792319612
520,1436546967234,55.3210043096463
521,1436546967952,42.4870376344163
522,1436546968695,44.0731968443763
523,1436546969437,39.3017759031213
524,1436546970169,47.4184100739428
525,1436546970949,42.1285876804674
526,1436546971677,42.7456443164567
527,1436546972443,44.8453908445281
528,1436546973184,53.1406448308117
529,1436546973869,59.2889925075429
530,1436546974613,47.2555418764663
531,1436546975359,46.4638905048732
532,1436546976088,40.601309674981
533,1436546976826,45.731677181557
534,1436546977565,39.2667565520137
535,1436546978315,36.9223756313191
536,1436546979104,60.4399715324364
537,1436546979846,57.2975029387236
538,1436546980579,46.8161386721731
539,1436546981329,37.8764982035575
540,1436546982059,37.7927228442845
541,1436546982785,36.5275407056003
542,1436546983513,53.1628452177025
543,1436546984234,48.2079223579811
544,1436546984972,55.9187541268527
545,1436546985622,42.4335667734441
546,1436546986357,35.5140407599761
547,1436546987118,48.7324257330348
548,1436546987870,42.3446589402516
549,1436546988536,50.7059717958189
550,1436546989280,44.3326796909373
551,1436546990068,33.0436534099734
552,1436546990772,56.7457342097839
553,1436546991456,41.743159350735
554,1436546992182,50.7450885357219
555,1436546992955,49.0711205974763
556,1436546993733,46.1971554115473
557,1436546994449,39.2096876432329
558,1436546996393,45.1399572588362
559,1436546997040,29.5966171821165
560,1436546997716,40.6185289260408
561,1436546998444,45.6134203575571
562,1436546999145,49.4477295532524
563,1436546999883,36.7702226531652
564,1436547000628,58.7167387300083
565,1436547001391,51.8750554115981
566,1436547002131,47.5459616942547
567,1436547002868,36.7530470955191
568,1436547003616,40.3505129866284
569,1436547004368,39.3361625346781
570,1436547005151,52.55700974098
571,1436547005898,49.7725012497357
572,1436547006622,36.7420868757942
573,1436547007371,35.2372884964571
574,1436547008175,51.7131209768332
575,1436547008865,33.0200231045488
