id,attr_time,attr_db
1,1436546581879,40.5960019786875
2,1436546582645,40.6588992725061
3,1436546583337,48.0346479917404
4,1436546583967,38.5328628100155
5,1436546584693,43.1151694666804
6,1436546585423,43.324578219223
7,1436546586170,43.4437120631534
8,1436546586917,59.843795631985
9,1436546587632,46.8861910799273
10,1436546588335,48.5121671977758
11,1436546589018,41.3006540555172
12,1436546589755,39.4242738754385
13,1436546590458,48.3409149009612
14,1436546591183,38.3444997186384
15,1436546591948,39.7283100517788
16,1436546592691,39.6447221377341
17,1436546593382,41.7682406620679
18,1436546594045,57.1554517553717
19,1436546594784,42.6793192585848
20,1436546595499,40.6454925674766
21,1436546596239,41.2339156157444
22,1436546596979,43.9664285767946
23,1436546597713,43.9022478746847
24,1436546598459,46.0330636705491
25,1436546599176,38.2556536084033
26,1436546599912,40.2336306723348
27,1436546600590,36.072673687259
28,1436546601258,41.577650736592
29,1436546602009,43.9784991702642
30,1436546602743,37.7034157861888
31,1436546603534,42.5109125125221
32,1436546604265,35.5356714830625
33,1436546604973,50.4953502448352
34,1436546605698,37.2965496747755
35,1436546606418,36.3527264310309
36,1436546607169,38.0040020346721
37,1436546607899,42.2101477998715
38,1436546608643,36.0802754348484
39,1436546609380,59.4710336402381
40,1436546610134,37.5660062734218
41,1436546610834,38.7663718274037
42,1436546611492,40.2745237478844
43,1436546612207,41.0037323599632
44,1436546612949,65.6154680238878
45,1436546613728,47.7797577541504
46,1436546614451,39.2190405255688
47,1436546615178,40.3097918078706
48,1436546615892,39.5377762563984
49,1436546616618,38.7560439771669
50,1436546617282,57.4415314329926
51,1436546618042,42.4784101426552
52,1436546618754,47.705620676352
53,1436546619495,44.4552347225669
54,1436546620226,44.1845484719051
55,1436546621039,40.8897667916707
56,1436546621768,59.5858942568481
57,1436546622497,49.5536023170244
58,1436546623237,57.2155608100891
59,1436546623956,58.2815631831229
60,1436546624708,36.2740090190131
61,1436546625433,36.0258331582547
62,1436546626153,68.4861292299264
63,1436546626884,67.8689945748073
64,1436546627627,70.73696454218
65,1436546628349,66.4907920599877
66,1436546629079,43.9800538377444
67,1436546629812,44.2191126238278
68,1436546630532,56.9343957186201
69,1436546631264,46.1097312870978
70,1436546632119,53.8645778401827
71,1436546632721,41.4294850919911
72,1436546633373,53.5425436041426
73,1436546634098,63.9440799327567
74,1436546634825,52.3070590659966
75,1436546635568,49.4101034008837
76,1436546636290,52.2859296379229
77,1436546637033,33.6277970363677
78,1436546637757,34.9032555781761
79,1436546638485,44.8011497159264
80,1436546639220,43.8371105783364
81,1436546639963,73.5260538899956
82,1436546640709,69.3242544676947
83,1436546641466,42.0299293350757
84,1436546642178,37.330826006524
85,1436546642922,73.1617839641938
86,1436546643688,37.527063449947
87,1436546644426,36.6686872944784
88,1436546645154,53.5598785777648
89,1436546645866,40.5349617103039
90,1436546646692,70.3510323501648
91,1436546647427,57.3479109591048
92,1436546648203,51.6308683636627
93,1436546649003,42.5674784435766
94,1436546649697,40.20842786793
95,1436546650445,39.6235358925397
96,1436546651255,57.1607209314715
97,1436546651982,39.0074903493298
98,1436546652737,40.6595528345242
99,1436546653454,37.4186272174133
100,1436546654194,67.4577110742552
101,1436546654930,63.7337945399694
102,1436546655684,66.8492406644719
103,1436546656344,51.0103349130059
104,1436546657067,60.8573746910526
105,1436546657794,34.9792650389726
106,1436546658553,52.4993520572171
107,1436546659287,70.8824980021048
108,1436546660005,39.518529956956
109,1436546660711,38.4684994503469
110,1436546661467,48.8662693517761
111,1436546662194,68.8527166653539
112,1436546662934,66.444999974511
113,1436546663647,61.3779306998642
114,1436546664377,65.0746306720887
115,1436546665092,38.3093082837333
116,1436546665823,39.3959647159555
117,1436546666536,62.56563549649
118,1436546667216,40.1004671042179
119,1436546667951,50.681541894245
120,1436546668687,43.2671726893168
121,1436546669415,55.6291823560902
122,1436546670035,44.7729980983732
123,1436546670693,66.3097195189894
124,1436546671472,38.6665076865407
125,1436546672199,55.9895875717849
126,1436546672951,36.147190849717
127,1436546673667,32.1293588877617
128,1436546674418,34.4734835196404
129,1436546675124,56.915689562364
130,1436546675866,44.3093107576561
131,1436546676592,36.7353794685542
132,1436546677267,46.69519123491
133,1436546677995,35.6729086645832
134,1436546678727,48.0601086713347
135,1436546679487,36.062122458029
136,1436546680218,36.2929128357141
137,1436546680948,37.1470929678506
138,1436546681698,41.5347822527045
139,1436546682439,43.7119892586995
140,1436546683154,42.9899344430566
141,1436546683898,45.3583188140697
142,1436546684640,48.8781667095866
143,1436546685372,46.7411077754474
144,1436546686092,46.1583112664941
145,1436546686850,45.3115694581782
146,1436546687508,45.7538131153071
147,1436546688234,39.241393111041
148,1436546688978,61.2175025026914
149,1436546689710,35.4633810555458
150,1436546690369,37.8792229157619
151,1436546691078,35.0551637837049
152,1436546691792,32.4024724045427
153,1436546692486,39.7506588154644
154,1436546693196,35.160817077561
155,1436546693965,34.158615035492
156,1436546694700,32.4756124789489
157,1436546695451,33.364706725807
158,1436546696171,34.8255379200634
159,1436546696962,35.3045087618784
160,1436546697664,35.8994968757427
161,1436546698309,38.6951984676556
162,1436546699033,36.9474975792708
163,1436546699769,38.4175880097586
164,1436546700483,36.068787802207
165,1436546701133,34.3117713126153
166,1436546701818,35.5271758781278
167,1436546702564,47.248505806081
168,1436546703300,41.8737906506835
169,1436546704044,39.428616280509
170,1436546704765,36.1113109173227
171,1436546705493,39.708541097082
172,1436546706231,45.5441441020987
173,1436546706991,52.4079679445314
174,1436546707641,41.6620819646726
175,1436546708369,39.8987031514278
176,1436546709151,40.9253743935812
177,1436546709883,36.5042510188016
178,1436546710680,40.2970761407661
179,1436546711319,67.5899677643273
180,1436546712025,65.3258974188931
181,1436546712660,58.2777005254153
182,1436546713365,37.9939895717813
183,1436546714030,59.3676359669101
184,1436546714667,65.1462282308404
185,1436546715327,66.8119203188934
186,1436546716033,40.6266784906584
187,1436546716769,67.1448896310139
188,1436546717496,37.5551576736578
189,1436546718200,36.8780536279633
190,1436546718884,37.2363136048683
191,1436546719649,69.1225652465991
192,1436546720387,47.8644303575587
193,1436546721154,35.6851417301349
194,1436546721831,64.6234511830146
195,1436546722510,59.3033636992533
196,1436546723235,69.9220416470281
197,1436546723965,60.9757374282193
198,1436546724742,56.3434406749891
199,1436546725466,54.0268659839383
200,1436546726195,47.0399376600335
201,1436546726933,37.3833157276663
202,1436546727635,39.3529310464942
203,1436546728335,36.2639057045676
204,1436546728987,35.6540916396061
205,1436546729759,50.5158862800332
206,1436546730494,45.2975817830638
207,1436546731202,36.3866136405624
208,1436546731877,41.3651663632028
209,1436546732457,63.0622318173372
210,1436546733134,57.1575558498016
211,1436546733889,40.4155457146487
212,1436546734634,51.8209759818455
213,1436546735364,34.3858231885444
214,1436546736106,42.2558175960497
215,1436546736825,57.1645763475683
216,1436546737554,41.8320946299973
217,1436546738261,32.6814196983167
218,1436546738932,53.539502989476
219,1436546739618,38.5467564876223
220,1436546740405,55.8002762958536
221,1436546741164,63.2883029084652
222,1436546741879,44.084158210765
223,1436546742586,53.6640739424795
224,1436546743300,64.9812939307799
225,1436546744047,70.5721101765185
226,1436546744766,35.810347178429
227,1436546745505,46.8920199884817
228,1436546746234,57.811167134441
229,1436546746999,68.9771393650141
230,1436546747704,68.1082873035048
231,1436546748410,38.1442814560792
232,1436546749079,37.3452027955498
233,1436546749772,38.0836036389888
234,1436546750515,42.4126729349437
235,1436546751245,67.0130122828344
236,1436546753216,67.0590022528695
237,1436546753944,69.3980977833287
238,1436546754684,51.3832512411024
239,1436546755429,42.103594816914
240,1436546756158,66.2249952972199
241,1436546756910,65.2712182758712
242,1436546757651,63.6265050486767
243,1436546758372,70.9952306858397
244,1436546759065,62.6752586373488
245,1436546759733,36.5929509241439
246,1436546760495,33.4167798361573
247,1436546761208,31.4043627702842
248,1436546761898,34.5965362861944
249,1436546762646,33.9906710627325
250,1436546763302,32.7029792438876
251,1436546764772,36.9409204215584
252,1436546765438,36.8971969167565
253,1436546766184,42.162133935846
254,1436546766926,37.1099935334863
255,1436546767660,37.045761844682
256,1436546768382,34.5631037739797
257,1436546769084,54.5032399843528
258,1436546769730,40.3687304419224
259,1436546770476,31.5765241276941
260,1436546771219,30.8055877233427
261,1436546771793,44.8226202408794
262,1436546772478,35.4407808711212
263,1436546773230,45.0854250668349
264,1436546773964,53.2626361187855
265,1436546774697,41.2874570190649
266,1436546775440,38.7954607288059
267,1436546776178,36.3582491716539
268,1436546776900,61.0250173021612
269,1436546777614,43.2999147660038
270,1436546779606,48.1884227772204
271,1436546780332,45.0476566066878
272,1436546781041,40.379270320642
273,1436546781758,36.4351030060867
274,1436546782570,34.7948780575155
275,1436546783235,53.2515956487026
276,1436546783969,38.5407925877914
277,1436546784707,57.045071193039
278,1436546785479,35.6256648388931
279,1436546786221,37.7825816176358
280,1436546786980,44.6099892547864
281,1436546788794,47.006301597686
282,1436546789425,55.0377293082223
283,1436546790179,57.367567083963
284,1436546790918,58.0839572293033
285,1436546791631,44.0799957236292
286,1436546792289,53.6725141560808
287,1436546792985,59.6480471831953
288,1436546793715,45.8876873856223
289,1436546794472,34.7528368843133
290,1436546795228,36.3076993125189
291,1436546795957,57.430341200123
292,1436546796685,44.5086462362815
293,1436546797373,33.127027380916
294,1436546798058,33.8869126219707
295,1436546798799,63.4396241845847
296,1436546799522,46.969817931507
297,1436546800205,32.6395364626057
298,1436546801009,65.6918343549363
299,1436546801806,57.3827400322772
300,1436546802610,52.7740125896155
301,1436546803348,49.449613153215
302,1436546804073,34.4566248861356
303,1436546804786,34.8737362832774
304,1436546805518,54.1820597810389
305,1436546806279,38.0998848764873
306,1436546807023,33.0347894264412
307,1436546807745,36.1784964064253
308,1436546808480,34.3645132492536
309,1436546809212,31.7181790247885
310,1436546809925,31.4057905359851
311,1436546810579,52.3636243341819
312,1436546811330,35.1462941787933
313,1436546811983,34.7884378687916
314,1436546812610,37.3572805233505
315,1436546813317,43.512116759062
316,1436546814002,40.162925808813
317,1436546814682,43.9687891323408
318,1436546815457,39.1172014560976
319,1436546816198,60.2606144525775
320,1436546816938,52.5968356207146
321,1436546817677,43.071331975536
322,1436546818406,39.2113231633096
323,1436546819149,37.648304433187
324,1436546819864,33.3228746713931
325,1436546820523,37.9636616506354
326,1436546821248,38.8483930665363
327,1436546821993,41.0174883957069
328,1436546822730,36.4305927799042
329,1436546823464,44.1263684923531
330,1436546824196,58.6758649830643
331,1436546824939,31.3255095264493
332,1436546825674,56.9204301573996
333,1436546826390,45.9865278385902
334,1436546827132,34.5278699210995
335,1436546827878,40.7255868526876
336,1436546828622,47.1865341377143
337,1436546829359,35.6442645300192
338,1436546830074,41.9481654586735
339,1436546830738,35.6474687288598
340,1436546831484,52.3989659978146
341,1436546832200,58.9101840265282
342,1436546832845,36.4663170276671
343,1436546833560,36.4131463934575
344,1436546834303,45.7884827130451
345,1436546834980,50.5377559818733
346,1436546835665,40.6084585550406
347,1436546836404,38.8138332012847
348,1436546837133,46.7986393892343
349,1436546837869,61.7444590554253
350,1436546838607,41.3526945324428
351,1436546839330,30.4821473356699
352,1436546840057,45.8380552366809
353,1436546840784,54.0165304174924
354,1436546841415,38.7482315099285
355,1436546842114,54.8216601011296
356,1436546842872,53.1055779855897
357,1436546843623,31.9001197994393
358,1436546844252,52.6616294770567
359,1436546844877,36.2464831510554
360,1436546845557,38.5508179026589
361,1436546846297,33.4253934336484
362,1436546846942,56.2617423319442
363,1436546847665,55.3555876449931
364,1436546848405,44.8736513802119
365,1436546849150,48.5754912051063
366,1436546849883,41.4527285177023
367,1436546850608,46.467897460952
368,1436546851298,44.9790771993606
369,1436546851973,35.8387273928498
370,1436546852674,42.0974079343934
371,1436546853342,36.3370750207026
372,1436546854038,64.025967186513
373,1436546854775,53.5112152980268
374,1436546855516,35.8805955414584
375,1436546856302,38.4367050501131
376,1436546857038,37.238533986162
377,1436546857785,57.0986922638207
378,1436546858516,45.504066501686
379,1436546859254,49.6263273000083
380,1436546859980,66.0150515786858
381,1436546860707,52.9738191311937
382,1436546861397,46.4144190713954
383,1436546862047,54.4817887448938
384,1436546862789,36.1930290424381
385,1436546863536,50.0514307745712
386,1436546864265,37.4399550857522
387,1436546864980,40.1859261383918
388,1436546865686,50.4802699574632
389,1436546866422,41.8696537507466
390,1436546867159,62.1542486249418
391,1436546867891,60.320849802843
392,1436546868634,48.5502777169907
393,1436546869369,42.7296168738651
394,1436546870106,66.7120708992308
395,1436546870850,54.9565230808877
396,1436546871572,55.9478408617183
397,1436546872252,52.7138156312418
398,1436546872960,55.9959337312502
399,1436546873671,56.589460704759
400,1436546874389,39.484395301611
401,1436546875074,40.2774656936839
402,1436546875793,52.6636976432646
403,1436546876563,42.4306341182549
404,1436546877289,60.8698148823188
405,1436546878004,39.6627498969756
406,1436546878722,47.6257373475721
407,1436546879442,41.5643125556759
408,1436546880171,39.0966089390497
409,1436546880913,38.2301488321829
410,1436546881633,54.7616421117514
411,1436546882299,41.0634825540882
412,1436546883031,52.5221335153062
413,1436546883780,39.1657180851749
414,1436546884522,51.7160634042465
415,1436546885256,38.2387031501968
416,1436546885971,53.3910766099258
417,1436546886709,38.7471657141855
418,1436546887435,39.0712148962722
419,1436546888184,50.0654045397537
420,1436546888935,36.7415972703989
421,1436546889664,43.6016364478214
422,1436546890400,36.4669345326174
423,1436546891135,43.3757522713993
424,1436546891819,41.3802133564175
425,1436546892443,36.098600262423
426,1436546893083,35.5348603932038
427,1436546893741,46.2774502050007
428,1436546894512,41.3232610409515
429,1436546895242,41.9998771933046
430,1436546895954,72.8012983233808
431,1436546896726,70.550671063674
432,1436546897451,61.2480463800727
433,1436546898175,59.7664777809564
434,1436546898925,43.4052791624644
435,1436546899658,65.9719376827017
436,1436546900395,45.2021515233842
437,1436546901135,47.0041684030228
438,1436546901835,49.9266762989571
439,1436546902479,68.3328113571833
440,1436546903174,56.2945385927022
441,1436546903918,46.405455428645
442,1436546904658,57.1336220378673
443,1436546905394,50.1885138439712
444,1436546906131,56.7195093811585
445,1436546906854,48.1867121171166
446,1436546907586,49.417084591719
447,1436546908365,47.4987017851872
448,1436546909087,49.9059771042049
449,1436546909818,49.0120471253412
450,1436546910560,47.9437088311059
451,1436546911299,48.7720175817926
452,1436546912053,65.5729573031109
453,1436546912693,59.4842750254485
454,1436546913458,51.8102680006373
455,1436546914182,50.108455495163
456,1436546914936,48.9267799115139
457,1436546915644,54.913645624703
458,1436546916373,48.9258229658201
459,1436546917099,49.4261471302228
460,1436546917841,48.1181355446438
461,1436546918584,48.467524576728
462,1436546919337,55.4674080361795
463,1436546920069,49.6495011784739
464,1436546920817,47.9337849480458
465,1436546921559,46.3275982306406
466,1436546922225,48.4417115893178
467,1436546922833,52.0964081660134
468,1436546923537,47.538575700361
469,1436546924237,48.3989804979076
470,1436546924883,58.6325814931645
471,1436546925580,47.3537702944702
472,1436546926309,51.0359989705211
473,1436546927054,44.0758159205902
474,1436546927794,62.9878439966128
475,1436546928455,65.0892576362376
476,1436546929188,65.3837022810001
477,1436546929919,65.7345418785499
478,1436546930656,57.5369609879243
479,1436546931412,50.0239606529396
480,1436546932140,47.6537452112803
481,1436546932852,62.5351914022155
482,1436546933487,65.1908396896884
483,1436546934239,57.3039738455686
484,1436546934966,49.0051097113656
485,1436546935700,59.7861830296841
486,1436546936472,49.7487752152475
487,1436546937227,56.7189229321749
488,1436546937883,48.4994902190736
489,1436546938617,60.7376947112188
490,1436546939342,51.2472405968559
491,1436546940071,49.9706786746784
492,1436546940820,51.5160984712094
493,1436546941593,51.2154809820655
494,1436546942343,47.3036817036823
495,1436546943061,54.2244493477069
496,1436546943724,48.4985000020787
497,1436546944492,49.2154046520856
498,1436546945220,64.9613248803872
499,1436546946032,69.2444243500343
500,1436546946759,69.9917028232672
501,1436546947499,69.0372783612413
502,1436546948230,68.6220716803727
503,1436546948948,49.8015434948349
504,1436546949682,50.6236622545951
505,1436546950379,56.1274346976643
506,1436546951185,47.8053299942875
507,1436546951927,53.513724913101
508,1436546952660,50.9304825788548
509,1436546953361,51.7351454392357
510,1436546953958,48.8254634374069
511,1436546954637,48.8865249572634
512,1436546955337,46.5659005112077
513,1436546955927,46.3115482954147
514,1436546957245,55.8244169230234
515,1436546957836,50.8262174180055
516,1436546958528,44.2422237274745
517,1436546959258,57.7573344035593
518,1436546959994,54.5383271695934
519,1436546960727,57.6483613548484
520,1436546961482,69.0744174015904
521,1436546962212,67.4909888002381
522,1436546962960,57.2508966843942
523,1436546963670,62.222314003384
524,1436546964323,56.2227492008339
525,1436546965046,53.8602637016464
526,1436546965789,46.4844744668638
527,1436546966539,55.0423719512288
528,1436546967278,60.642730843938
529,1436546968010,43.5396005083217
530,1436546968770,54.894119479871
531,1436546969556,52.0721527048727
532,1436546970280,53.6413313106503
533,1436546971015,46.2658006605705
534,1436546973095,47.6346958315674
535,1436546973793,54.3747611409471
536,1436546974430,51.0178172010146
537,1436546975138,44.5930664405708
538,1436546975892,43.0785253664714
539,1436546976634,54.0454283896127
540,1436546977379,40.4979446657541
541,1436546978108,57.6001674792126
542,1436546978849,65.4507076582698
543,1436546979589,51.0410145829255
544,1436546980308,40.9265149741994
545,1436546981055,37.6470572366628
546,1436546981813,38.6085014788881
547,1436546982542,55.7658649563771
548,1436546983258,60.8143956754275
549,1436546983957,48.9637449223093
550,1436546984655,54.4900666969507
551,1436546985391,38.0035665280059
552,1436546986107,41.9966528195842
553,1436546986900,46.805228333838
554,1436546987649,38.9962101868644
555,1436546988396,40.7684019693715
556,1436546989168,35.1824996458249
557,1436546989917,47.4552255310781
558,1436546990650,38.6110601009115
559,1436546991475,32.5565119763653
560,1436546992206,35.0863106694484
561,1436546992924,61.5946838451681
562,1436546993643,34.9622464919199
563,1436546994343,41.9729465042064
564,1436546995844,39.6752800589478
565,1436546996578,36.3973591592912
566,1436546997310,36.7210265258475
567,1436546998047,52.8221812852272
568,1436546998781,41.1302249586985
569,1436546999522,36.0696614414577
570,1436547000240,62.1222424566929
571,1436547001030,55.9183022025537
572,1436547001761,37.4768950203688
573,1436547002520,44.9386663559665
574,1436547003242,46.1347464130015
575,1436547003999,43.2349268958993
