id,attr_time,attr_x,attr_y,attr_z
1,1436164600937,-25.965,-35.488,-5.062
2,1436164600957,-25.965,-35.488,-5.062
3,1436164600978,-25.965,-35.488,-5.062
4,1436164600994,-25.965,-35.488,-5.062
5,1436164601018,-25.965,-35.488,-5.062
6,1436164601034,-25.965,-35.488,-5.062
7,1436164601057,-25.965,-35.488,-5.062
8,1436164601074,-25.965,-35.488,-5.062
9,1436164601094,-25.965,-35.488,-5.062
10,1436164601117,-25.965,-35.488,-5.062
11,1436164601138,-25.965,-35.488,-5.062
12,1436164601158,-25.965,-35.488,-5.062
13,1436164601177,-25.965,-35.488,-5.062
14,1436164601194,-25.965,-35.488,-5.062
15,1436164601217,-25.965,-35.488,-5.062
16,1436164601237,-25.965,-35.488,-5.062
17,1436164601257,-25.965,-35.488,-5.062
18,1436164601274,-25.965,-35.488,-5.062
19,1436164601295,-25.965,-35.488,-5.062
20,1436164601313,-25.965,-35.488,-5.062
21,1436164601334,-25.965,-35.488,-5.062
22,1436164601419,-25.965,-35.488,-5.062
23,1436164601420,-25.965,-35.488,-5.062
24,1436164601421,-25.965,-35.488,-5.062
25,1436164601422,-25.965,-35.488,-5.062
26,1436164601434,-25.965,-35.488,-5.062
27,1436164601457,-25.965,-35.488,-5.062
28,1436164601475,-25.965,-35.488,-5.062
29,1436164601496,-25.965,-35.488,-5.062
30,1436164601516,-25.965,-35.488,-5.062
31,1436164601534,-25.965,-35.488,-5.062
32,1436164601579,-25.965,-35.488,-5.062
33,1436164601580,-25.965,-35.488,-5.062
34,1436164601597,-25.965,-35.488,-5.062
35,1436164601615,-25.965,-35.488,-5.062
36,1436164601636,-25.965,-35.488,-5.062
37,1436164601658,-25.965,-35.8,-5.062
38,1436164601678,-25.965,-35.8,-5.062
39,1436164601699,-25.965,-35.8,-5.062
40,1436164601718,-25.965,-35.8,-5.062
41,1436164601738,-25.965,-35.8,-5.062
42,1436164601758,-25.965,-35.8,-5.062
43,1436164601778,-25.965,-35.8,-5.062
44,1436164601800,-25.965,-35.8,-5.062
45,1436164601814,-25.965,-35.8,-5.062
46,1436164601838,-25.965,-35.8,-5.062
47,1436164601857,-25.965,-35.8,-5.062
48,1436164601877,-25.965,-35.8,-5.062
49,1436164601898,-25.665,-35.8,-4.721
50,1436164601918,-25.665,-35.8,-4.721
51,1436164601938,-25.665,-35.8,-4.721
52,1436164601958,-25.665,-35.8,-4.721
53,1436164601978,-25.665,-35.8,-4.721
54,1436164601997,-25.665,-35.8,-4.721
55,1436164602017,-25.665,-35.8,-4.721
56,1436164602036,-25.665,-35.8,-4.721
57,1436164602056,-25.665,-35.8,-4.721
58,1436164602081,-25.665,-35.8,-4.721
59,1436164602156,-25.665,-35.8,-4.721
60,1436164602157,-25.665,-35.8,-4.721
61,1436164602158,-25.665,-35.8,-4.721
62,1436164602159,-25.665,-35.8,-4.721
63,1436164602175,-25.665,-35.8,-4.721
64,1436164602196,-25.665,-35.8,-4.721
65,1436164602215,-25.665,-35.8,-4.721
66,1436164602239,-25.665,-35.8,-4.721
67,1436164602255,-25.665,-35.8,-4.721
68,1436164602275,-25.665,-35.8,-4.721
69,1436164602297,-25.665,-35.8,-4.721
70,1436164602329,-25.665,-35.8,-4.721
71,1436164602339,-25.665,-35.8,-4.721
72,1436164602355,-25.665,-35.8,-4.721
73,1436164602377,-25.665,-35.8,-4.721
74,1436164602398,-25.665,-35.8,-4.721
75,1436164602418,-25.665,-35.8,-4.721
76,1436164602438,-25.665,-35.8,-4.721
77,1436164602458,-25.665,-35.8,-4.721
78,1436164602478,-25.665,-35.8,-4.721
79,1436164602498,-25.665,-35.8,-4.721
80,1436164602519,-25.665,-35.8,-4.721
81,1436164602538,-25.665,-35.8,-4.721
82,1436164602556,-25.665,-35.8,-4.721
83,1436164602578,-25.665,-35.8,-4.721
84,1436164602598,-25.665,-35.8,-4.721
85,1436164602620,-25.665,-35.8,-4.721
86,1436164602637,-25.665,-35.8,-4.721
87,1436164602658,-25.665,-35.8,-4.721
88,1436164602678,-25.665,-35.8,-4.721
89,1436164602698,-25.665,-35.8,-4.721
90,1436164602719,-25.665,-35.8,-4.721
91,1436164602738,-25.665,-35.8,-4.721
92,1436164602758,-25.665,-35.8,-4.721
93,1436164602777,-25.665,-35.8,-4.721
94,1436164602797,-25.665,-35.8,-4.721
95,1436164602817,-25.665,-35.8,-4.721
96,1436164602879,-25.665,-35.8,-4.721
97,1436164602880,-25.665,-35.8,-4.721
98,1436164602881,-25.665,-35.8,-4.721
99,1436164602903,-25.665,-35.8,-4.721
100,1436164602916,-25.665,-35.8,-4.721
101,1436164602938,-25.665,-35.8,-4.721
102,1436164602956,-25.665,-35.8,-4.721
103,1436164602976,-25.665,-35.8,-4.721
104,1436164602998,-25.665,-35.8,-4.721
105,1436164603017,-25.665,-35.8,-4.721
106,1436164603038,-25.665,-35.8,-4.721
107,1436164603057,-25.665,-35.8,-4.721
108,1436164603079,-25.665,-35.8,-4.721
109,1436164603097,-25.665,-35.8,-4.721
110,1436164603119,-25.665,-35.8,-4.721
111,1436164603136,-25.665,-35.8,-4.721
112,1436164603159,-25.665,-35.8,-4.721
113,1436164603179,-25.665,-35.8,-4.721
114,1436164603198,-25.665,-35.8,-4.721
115,1436164603219,-25.665,-35.8,-4.721
116,1436164603237,-25.665,-35.8,-4.721
117,1436164603258,-25.665,-35.8,-4.721
118,1436164603277,-25.665,-35.8,-4.721
119,1436164603303,-25.665,-35.8,-4.721
120,1436164603318,-25.665,-35.8,-4.721
121,1436164603338,-25.665,-35.8,-4.721
122,1436164603359,-25.665,-35.8,-4.721
123,1436164603378,-25.665,-35.8,-4.721
124,1436164603399,-25.665,-35.8,-4.721
125,1436164603418,-25.665,-35.8,-4.721
126,1436164603441,-25.665,-35.8,-4.721
127,1436164603458,-25.665,-35.8,-4.721
128,1436164603478,-25.665,-35.8,-4.721
129,1436164603497,-25.665,-35.8,-4.412
130,1436164603518,-25.665,-35.8,-4.412
131,1436164603690,-25.665,-35.8,-4.412
132,1436164603691,-25.665,-35.8,-4.412
133,1436164603692,-25.665,-35.8,-4.412
134,1436164603693,-25.665,-35.8,-4.412
135,1436164603694,-25.665,-35.8,-4.412
136,1436164603695,-25.665,-35.8,-4.412
137,1436164603696,-25.665,-35.8,-4.412
138,1436164603697,-25.665,-35.8,-4.412
139,1436164603699,-25.665,-35.8,-4.412
140,1436164603730,-25.665,-35.8,-4.412
141,1436164603737,-25.665,-35.8,-4.412
142,1436164603756,-25.665,-35.8,-4.412
143,1436164603778,-25.665,-35.8,-4.412
144,1436164603798,-25.665,-35.8,-4.412
145,1436164603820,-25.665,-35.8,-4.412
146,1436164603837,-25.665,-35.8,-4.412
147,1436164603859,-25.665,-35.8,-4.412
148,1436164603878,-25.665,-35.8,-4.412
149,1436164603898,-25.665,-35.8,-4.412
150,1436164603919,-25.665,-35.8,-4.412
151,1436164603940,-25.665,-35.8,-4.412
152,1436164603960,-25.665,-35.8,-4.412
153,1436164603977,-25.665,-35.8,-4.412
154,1436164603998,-25.665,-35.8,-4.412
155,1436164604019,-25.665,-35.8,-4.412
156,1436164604037,-25.665,-35.8,-4.412
157,1436164604060,-25.665,-35.8,-4.412
158,1436164604077,-25.665,-35.8,-4.412
159,1436164604098,-25.665,-35.8,-4.412
160,1436164604118,-25.665,-35.8,-4.412
161,1436164604138,-25.665,-35.8,-4.412
162,1436164604158,-25.665,-35.8,-4.412
163,1436164604178,-25.665,-35.8,-4.412
164,1436164604198,-25.665,-35.8,-4.412
165,1436164604218,-25.665,-35.8,-4.412
166,1436164604238,-25.665,-35.8,-4.412
167,1436164604270,-25.665,-35.8,-4.412
168,1436164604281,-25.665,-35.8,-4.412
169,1436164604302,-25.665,-35.8,-4.412
170,1436164604322,-25.665,-35.8,-4.412
171,1436164604411,-25.665,-35.8,-4.412
172,1436164604412,-25.665,-35.8,-4.412
173,1436164604420,-25.665,-35.8,-4.412
174,1436164604421,-25.665,-35.8,-4.412
175,1436164604422,-25.665,-35.8,-4.412
176,1436164604440,-25.665,-35.8,-4.412
177,1436164604458,-25.965,-35.8,-4.412
178,1436164604477,-25.965,-35.8,-4.412
179,1436164604504,-25.965,-35.8,-4.412
180,1436164604529,-25.965,-35.8,-4.412
181,1436164604538,-25.965,-35.8,-4.412
182,1436164604558,-25.965,-35.8,-4.412
183,1436164604578,-25.965,-35.8,-4.412
184,1436164604598,-25.965,-35.8,-4.412
185,1436164604621,-25.965,-35.8,-4.412
186,1436164604641,-25.965,-35.8,-4.412
187,1436164604661,-25.965,-35.8,-4.412
188,1436164604680,-25.965,-35.8,-4.412
189,1436164604698,-25.965,-35.8,-4.412
190,1436164604721,-25.965,-35.8,-4.412
191,1436164604741,-25.965,-35.8,-4.412
192,1436164604761,-25.965,-35.8,-4.412
193,1436164604781,-25.965,-35.8,-4.412
194,1436164604802,-25.965,-35.8,-4.412
195,1436164604821,-25.965,-35.8,-4.412
196,1436164604840,-25.965,-35.8,-4.412
197,1436164604859,-25.965,-35.8,-4.412
198,1436164604881,-25.965,-35.8,-4.412
199,1436164604900,-25.965,-35.8,-4.412
200,1436164604918,-25.965,-35.8,-4.412
201,1436164604938,-25.965,-35.8,-4.412
202,1436164604959,-25.965,-35.8,-4.412
203,1436164604981,-25.965,-35.8,-4.412
204,1436164605000,-25.965,-35.8,-4.412
205,1436164605018,-25.965,-35.8,-4.412
206,1436164605039,-25.965,-35.8,-4.412
207,1436164605063,-25.965,-35.8,-4.412
208,1436164605135,-25.965,-35.8,-4.412
209,1436164605137,-25.965,-35.8,-4.412
210,1436164605138,-25.965,-35.8,-4.412
211,1436164605139,-25.965,-35.8,-4.412
212,1436164605158,-25.965,-35.8,-4.412
213,1436164605178,-25.965,-35.8,-4.412
214,1436164605199,-25.965,-35.8,-4.412
215,1436164605219,-25.965,-35.8,-4.412
216,1436164605245,-25.965,-35.8,-4.412
217,1436164605258,-25.965,-35.8,-4.412
218,1436164605279,-25.965,-35.8,-4.412
219,1436164605307,-25.965,-35.8,-4.412
220,1436164605319,-25.965,-35.8,-4.412
221,1436164605338,-25.965,-35.8,-4.412
222,1436164605359,-25.965,-35.8,-4.412
223,1436164605378,-25.965,-35.8,-4.412
224,1436164605401,-25.965,-35.8,-4.412
225,1436164605418,-25.965,-35.8,-4.412
226,1436164605438,-25.965,-35.8,-4.412
227,1436164605458,-25.965,-35.8,-4.412
228,1436164605479,-25.965,-35.8,-4.412
229,1436164605499,-25.965,-35.8,-4.412
230,1436164605519,-25.965,-35.8,-4.412
231,1436164605541,-25.965,-35.8,-4.412
232,1436164605562,-25.965,-35.8,-4.412
233,1436164605580,-25.965,-35.8,-4.412
234,1436164605600,-25.965,-35.8,-4.412
235,1436164605618,-25.965,-35.8,-4.412
236,1436164605640,-25.965,-35.8,-4.412
237,1436164605661,-25.965,-35.8,-4.412
238,1436164605682,-25.965,-35.8,-4.412
239,1436164605699,-25.965,-35.8,-4.412
240,1436164605719,-25.965,-35.8,-4.412
241,1436164605740,-25.965,-35.8,-4.412
242,1436164605760,-25.965,-35.8,-4.412
243,1436164605780,-25.965,-35.8,-4.412
244,1436164605835,-25.965,-35.8,-4.412
245,1436164605836,-25.965,-35.8,-4.412
246,1436164605837,-25.965,-35.8,-4.412
247,1436164605858,-25.965,-35.8,-4.412
248,1436164605878,-25.965,-35.8,-4.412
249,1436164605898,-25.965,-35.8,-4.412
250,1436164605918,-25.965,-35.8,-4.412
251,1436164605942,-25.965,-35.8,-4.412
252,1436164605958,-25.965,-35.8,-4.412
253,1436164605982,-25.965,-35.8,-4.412
254,1436164606002,-25.965,-35.8,-4.412
255,1436164606020,-25.965,-35.8,-4.412
256,1436164606041,-25.965,-35.8,-4.412
257,1436164606061,-25.965,-35.8,-4.412
258,1436164606083,-25.965,-35.8,-4.412
259,1436164606101,-25.965,-35.8,-4.412
260,1436164606120,-25.965,-35.8,-4.412
261,1436164606141,-25.965,-35.8,-4.412
262,1436164606161,-25.965,-35.8,-4.412
263,1436164606183,-25.965,-35.8,-4.412
264,1436164606204,-25.965,-35.8,-4.412
265,1436164606220,-25.965,-35.8,-4.412
266,1436164606241,-25.965,-35.8,-4.412
267,1436164606259,-25.965,-35.8,-4.412
268,1436164606281,-25.965,-35.8,-4.412
269,1436164606306,-25.965,-35.8,-4.412
270,1436164606326,-25.965,-35.8,-4.412
271,1436164606344,-25.965,-35.8,-4.412
272,1436164606362,-25.965,-35.8,-4.412
273,1436164606381,-25.965,-35.8,-4.412
274,1436164606402,-25.965,-35.8,-4.412
275,1436164606422,-25.965,-35.8,-4.412
276,1436164606441,-25.965,-35.8,-4.412
277,1436164606468,-25.965,-35.8,-4.412
278,1436164606540,-25.965,-35.8,-4.412
279,1436164606541,-25.965,-35.8,-4.412
280,1436164606542,-25.965,-35.8,-4.412
281,1436164606547,-25.965,-35.8,-4.412
282,1436164606559,-25.965,-35.8,-4.412
283,1436164606579,-25.965,-35.8,-4.412
284,1436164606599,-25.965,-35.8,-4.412
285,1436164606623,-25.965,-35.8,-4.412
286,1436164606639,-25.965,-35.8,-4.412
287,1436164606662,-25.965,-35.8,-4.412
288,1436164606681,-25.965,-35.8,-4.412
289,1436164606700,-25.965,-35.8,-4.412
290,1436164606722,-25.965,-35.8,-4.412
291,1436164606743,-25.965,-35.8,-4.412
292,1436164606762,-25.965,-35.8,-4.412
293,1436164606782,-25.965,-35.8,-4.412
294,1436164606802,-25.965,-35.8,-4.412
295,1436164606823,-25.965,-35.8,-4.412
296,1436164606843,-25.965,-35.8,-4.412
297,1436164606862,-25.965,-35.8,-4.412
298,1436164606880,-25.965,-35.8,-4.412
299,1436164606903,-25.965,-35.8,-4.412
300,1436164606924,-25.965,-35.8,-4.412
301,1436164606940,-25.965,-35.8,-4.412
302,1436164606962,-25.965,-35.8,-4.412
303,1436164606980,-25.965,-35.8,-4.412
304,1436164607000,-25.965,-35.8,-4.412
305,1436164607021,-25.965,-35.8,-4.412
306,1436164607042,-25.965,-35.8,-4.412
307,1436164607063,-25.965,-35.8,-4.412
308,1436164607082,-25.965,-35.8,-4.412
309,1436164607103,-25.965,-35.8,-4.412
310,1436164607121,-25.965,-35.8,-4.412
311,1436164607141,-25.965,-35.8,-4.412
312,1436164607160,-25.965,-35.8,-4.412
313,1436164607183,-25.965,-35.8,-4.412
314,1436164607202,-25.965,-35.8,-4.412
315,1436164607291,-25.965,-35.8,-4.412
316,1436164607292,-25.965,-35.8,-4.412
317,1436164607299,-25.665,-35.8,-4.412
318,1436164607300,-25.665,-35.8,-4.412
319,1436164607308,-25.665,-35.8,-4.412
320,1436164607323,-25.665,-35.8,-4.412
321,1436164607354,-25.665,-35.8,-4.412
322,1436164607361,-25.665,-35.8,-4.412
323,1436164607394,-25.665,-35.8,-4.412
324,1436164607401,-25.665,-35.8,-4.412
325,1436164607421,-25.665,-35.8,-4.412
326,1436164607444,-25.665,-35.8,-4.412
327,1436164607461,-25.665,-35.8,-4.412
328,1436164607481,-25.665,-35.8,-4.412
329,1436164607500,-25.665,-35.8,-4.412
330,1436164607524,-25.665,-35.8,-4.412
331,1436164607544,-25.665,-35.8,-4.412
332,1436164607563,-25.665,-35.8,-4.412
333,1436164607581,-25.665,-35.8,-4.412
334,1436164607603,-25.665,-35.8,-4.412
335,1436164607621,-25.665,-35.8,-4.412
336,1436164607644,-25.665,-35.8,-4.412
337,1436164607665,-25.665,-35.8,-4.412
338,1436164607681,-25.665,-35.8,-4.412
339,1436164607704,-25.665,-35.8,-4.412
340,1436164607721,-25.665,-35.8,-4.412
341,1436164607743,-25.665,-35.8,-4.412
342,1436164607761,-25.665,-35.8,-4.412
343,1436164607783,-25.665,-35.8,-4.412
344,1436164607803,-25.665,-35.8,-4.412
345,1436164607824,-25.665,-35.8,-4.412
346,1436164607844,-25.665,-35.8,-4.412
347,1436164607863,-25.665,-35.8,-4.412
348,1436164607880,-25.665,-35.8,-4.412
349,1436164607902,-25.665,-35.8,-4.412
350,1436164607922,-25.665,-35.8,-4.412
351,1436164607947,-25.665,-35.8,-4.412
352,1436164607993,-25.665,-35.8,-4.412
353,1436164607994,-25.665,-35.8,-4.412
354,1436164608014,-25.665,-35.8,-4.412
355,1436164608020,-25.665,-35.8,-4.412
356,1436164608043,-25.665,-35.8,-4.412
357,1436164608063,-25.665,-35.8,-4.412
358,1436164608081,-25.665,-35.8,-4.412
359,1436164608101,-25.665,-35.8,-4.412
360,1436164608121,-25.665,-35.8,-4.412
361,1436164608144,-25.665,-35.8,-4.412
362,1436164608168,-25.665,-35.8,-4.412
363,1436164608182,-25.665,-35.8,-4.412
364,1436164608207,-25.665,-35.8,-4.412
365,1436164608224,-25.665,-35.8,-4.412
366,1436164608244,-25.665,-35.8,-4.412
367,1436164608264,-25.665,-35.8,-4.412
368,1436164608283,-25.665,-35.8,-4.412
369,1436164608304,-25.665,-35.8,-4.412
370,1436164608323,-25.665,-35.8,-4.412
371,1436164608345,-25.665,-35.8,-4.412
372,1436164608363,-25.665,-35.8,-4.412
373,1436164608385,-25.665,-35.8,-4.412
374,1436164608402,-25.665,-35.8,-4.412
375,1436164608424,-25.665,-35.8,-4.412
376,1436164608441,-25.665,-35.8,-4.412
377,1436164608461,-25.665,-35.8,-4.412
378,1436164608481,-25.665,-35.8,-4.412
379,1436164608510,-25.665,-35.8,-4.412
380,1436164608521,-25.665,-35.8,-4.412
381,1436164608542,-25.665,-35.478,-4.412
382,1436164608561,-26.005,-35.478,-4.412
383,1436164608581,-26.005,-35.478,-4.412
384,1436164608602,-26.005,-35.478,-4.412
385,1436164608621,-26.005,-35.478,-4.412
386,1436164608645,-26.005,-35.478,-4.412
387,1436164608662,-26.005,-35.148,-4.098
388,1436164608732,-26.342,-35.148,-4.098
389,1436164608735,-26.342,-35.148,-4.098
390,1436164608736,-26.342,-35.148,-4.098
391,1436164608741,-26.342,-35.148,-4.098
392,1436164608763,-26.342,-35.148,-4.098
393,1436164608784,-26.342,-35.148,-6.022
394,1436164608801,-26.342,-35.148,-8.3
395,1436164608821,-26.342,-35.148,-11.015
396,1436164608843,-26.342,-35.148,-13.067
397,1436164608863,-25.373,-35.148,-14.624
398,1436164608883,-24.436,-35.148,-15.942
399,1436164608902,-23.873,-35.148,-17.573
400,1436164608922,-23.411,-35.148,-19.482
401,1436164608944,-23.411,-35.148,-20.262
402,1436164608965,-23.069,-34.7,-20.262
403,1436164608985,-23.069,-34.262,-22.438
404,1436164609004,-23.069,-32.095,-23.339
405,1436164609025,-23.574,-30.38,-23.339
406,1436164609044,-23.574,-28.89,-23.907
407,1436164609064,-24.153,-27.911,-24.658
408,1436164609085,-24.153,-26.951,-24.658
409,1436164609105,-24.153,-25.941,-25.288
410,1436164609123,-24.153,-25.941,-25.288
411,1436164609145,-24.153,-25.16,-25.288
412,1436164609164,-24.153,-25.16,-24.922
413,1436164609184,-24.153,-25.509,-24.922
414,1436164609203,-24.514,-26.469,-24.455
415,1436164609225,-24.514,-26.806,-24.455
416,1436164609246,-24.514,-27.574,-24.455
417,1436164609267,-24.514,-27.891,-23.684
418,1436164609288,-24.514,-28.846,-23.684
419,1436164609310,-24.514,-29.713,-23.359
420,1436164609324,-24.514,-30.386,-23.359
421,1436164609346,-24.514,-31.071,-22.784
422,1436164609364,-24.514,-31.419,-22.445
423,1436164609391,-24.514,-32.215,-21.658
424,1436164609447,-24.514,-32.896,-19.332
425,1436164609448,-24.514,-34.15,-18.605
426,1436164609449,-24.003,-34.957,-17.976
427,1436164609468,-23.48,-35.652,-16.427
428,1436164609483,-23.48,-36.149,-15.286
429,1436164609505,-23.48,-36.604,-14.939
430,1436164609524,-23.48,-36.604,-13.082
431,1436164609545,-23.48,-37.213,-12.304
432,1436164609564,-23.159,-37.715,-10.874
433,1436164609583,-23.159,-38.298,-9.44
434,1436164609605,-23.159,-38.728,-6.707
435,1436164609624,-22.851,-39.122,-5.046
436,1436164609644,-22.851,-39.515,-2.421
437,1436164609662,-22.438,-40.092,-1.353
438,1436164609685,-22.053,-41.175,-0.37
439,1436164609705,-20.024,-41.175,1.921
440,1436164609725,-19.248,-41.175,3.68
441,1436164609743,-18.696,-41.175,4.823
442,1436164609765,-18.696,-41.175,6.303
443,1436164609785,-18.696,-40.744,7.363
444,1436164609806,-19.114,-40.744,8.346
445,1436164609826,-19.114,-40.422,8.346
446,1436164609843,-19.482,-40.422,9.243
447,1436164609865,-19.482,-40.422,9.692
448,1436164609886,-19.86,-40.422,9.692
449,1436164609904,-19.86,-40.422,8.967
450,1436164609922,-20.364,-40.422,8.021
451,1436164609945,-20.364,-40.422,7.452
452,1436164609967,-20.364,-40.422,6.658
453,1436164609988,-20.364,-40.422,4.942
454,1436164610008,-20.364,-40.73,2.653
455,1436164610026,-20.364,-40.73,0.239
456,1436164610047,-20.364,-40.73,-3.55
457,1436164610065,-19.926,-40.73,-8.615
458,1436164610085,-19.926,-40.73,-10.617
459,1436164610105,-19.49,-40.73,-12.342
460,1436164610123,-19.49,-40.396,-13.81
461,1436164610194,-19.49,-40.396,-15.126
462,1436164610195,-19.49,-40.075,-17.594
463,1436164610196,-19.49,-40.075,-20.606
464,1436164610203,-19.49,-38.552,-22.172
465,1436164610224,-19.818,-36.231,-23.37
466,1436164610243,-19.818,-34.034,-25.552
467,1436164610263,-19.818,-31.689,-25.552
468,1436164610290,-20.259,-29.821,-26.832
469,1436164610306,-20.867,-28.077,-26.832
470,1436164610323,-21.624,-27.061,-26.832
471,1436164610343,-22.616,-27.061,-26.832
472,1436164610370,-23.432,-26.142,-26.832
473,1436164610384,-24.079,-26.574,-26.339
474,1436164610406,-24.079,-27.2,-25.172
475,1436164610426,-24.079,-28.314,-24.787
476,1436164610446,-24.079,-30.094,-23.367
477,1436164610466,-23.159,-31.753,-21.742
478,1436164610486,-22.746,-33.688,-19.874
479,1436164610506,-22.395,-35.142,-18.041
480,1436164610526,-22.395,-36.027,-16.273
481,1436164610546,-21.968,-36.601,-15.93
482,1436164610565,-21.968,-36.975,-14.492
483,1436164610587,-22.814,-36.407,-13.378
484,1436164610603,-23.834,-36.407,-11.842
485,1436164610626,-24.436,-36.407,-9.06
486,1436164610646,-24.436,-36.407,-7.687
487,1436164610665,-24.037,-37.217,-6.488
488,1436164610686,-24.037,-37.73,-4.876
489,1436164610706,-24.037,-38.14,-4.534
490,1436164610724,-24.037,-38.897,-2.195
491,1436164610746,-23.315,-39.804,-0.3
492,1436164610763,-21.963,-40.771,0.798
493,1436164610786,-20.939,-40.771,1.469
494,1436164610807,-20.939,-40.771,2.714
495,1436164610827,-20.329,-40.771,4.917
496,1436164610846,-20.329,-39.956,6.369
497,1436164610866,-20.658,-39.956,6.925
498,1436164610936,-21.289,-38.993,7.328
499,1436164610937,-21.289,-39.375,7.936
500,1436164610938,-21.289,-39.375,7.936
501,1436164610945,-21.289,-39.375,8.299
502,1436164610974,-22.082,-39.375,7.96
503,1436164610986,-22.45,-39.375,7.205
504,1436164611004,-22.45,-39.375,6.13
505,1436164611025,-22.45,-39.375,4.876
506,1436164611043,-22.45,-39.698,2.04
