id,attr_time,attr_x,attr_y,attr_z
1,1436899622619,-47.81,-18.206,-1.832
2,1436899622640,-47.81,-18.206,-1.832
3,1436899622660,-47.81,-18.206,-1.832
4,1436899622679,-47.81,-18.206,-1.832
5,1436899622700,-47.81,-18.206,-1.832
6,1436899622719,-47.81,-18.206,-1.832
7,1436899622742,-47.81,-18.206,-1.832
8,1436899622763,-47.81,-18.206,-1.832
9,1436899622782,-47.81,-18.206,-1.832
10,1436899622797,-47.81,-18.206,-1.832
11,1436899622824,-47.81,-18.206,-1.832
12,1436899622837,-47.81,-18.206,-1.832
13,1436899622858,-47.81,-18.206,-1.477
14,1436899622878,-47.81,-18.206,-1.477
15,1436899622958,-47.81,-18.206,-1.477
16,1436899622959,-47.81,-18.206,-1.477
17,1436899622960,-47.81,-18.206,-1.477
18,1436899622961,-47.81,-18.206,-1.132
19,1436899622979,-47.81,-18.206,-1.132
20,1436899622997,-47.81,-18.206,-1.132
21,1436899623020,-47.81,-18.206,-1.132
22,1436899623038,-47.81,-18.206,-1.132
23,1436899623057,-47.81,-18.206,-1.132
24,1436899623083,-47.81,-18.206,-0.808
25,1436899623100,-47.81,-18.206,-0.808
26,1436899623119,-47.81,-18.206,-0.808
27,1436899623138,-47.81,-18.206,-0.808
28,1436899623158,-47.81,-18.206,-0.808
29,1436899623180,-47.81,-18.206,-0.808
30,1436899623200,-47.81,-18.206,-0.808
31,1436899623220,-47.81,-18.206,-0.808
32,1436899623240,-47.81,-18.206,-0.808
33,1436899623260,-47.81,-18.206,-0.808
34,1436899623280,-47.81,-18.206,-0.808
35,1436899623300,-47.81,-18.206,-0.808
36,1436899623318,-47.81,-18.206,-0.808
37,1436899623346,-47.81,-18.206,-0.808
38,1436899623361,-47.81,-18.206,-0.808
39,1436899623378,-47.81,-18.206,-0.808
40,1436899623401,-47.81,-18.206,-0.509
41,1436899623418,-47.81,-18.206,-0.509
42,1436899623438,-47.81,-18.206,-0.509
43,1436899623458,-47.81,-18.206,-0.509
44,1436899623480,-47.81,-18.206,-0.509
45,1436899623501,-47.81,-18.206,-0.509
46,1436899623518,-47.81,-18.206,-0.509
47,1436899623537,-47.81,-18.206,-0.509
48,1436899623557,-47.81,-18.206,-0.509
49,1436899623578,-47.81,-18.206,-0.509
50,1436899623598,-47.81,-18.206,-0.509
51,1436899623626,-47.81,-18.206,-0.509
52,1436899623638,-47.81,-18.206,-0.509
53,1436899623675,-47.81,-18.206,-0.509
54,1436899623692,-47.81,-18.206,-0.509
55,1436899623698,-47.81,-18.206,-0.509
56,1436899623718,-47.81,-18.206,-0.509
57,1436899623741,-47.81,-18.206,-0.509
58,1436899623760,-47.81,-18.206,-0.509
59,1436899623778,-47.81,-18.206,-0.509
60,1436899623799,-47.81,-18.206,-0.509
61,1436899623819,-47.81,-18.206,-0.509
62,1436899623840,-47.81,-18.206,-0.509
63,1436899623858,-47.81,-18.206,-0.509
64,1436899623880,-47.81,-18.206,-0.509
65,1436899623898,-47.81,-18.206,-0.509
66,1436899623923,-47.81,-18.206,-0.509
67,1436899623938,-47.81,-18.206,-0.509
68,1436899623962,-47.81,-18.206,-0.509
69,1436899623981,-47.81,-18.206,-0.509
70,1436899624001,-47.81,-18.206,-0.509
71,1436899624021,-47.81,-18.206,-0.509
72,1436899624041,-47.81,-18.206,-0.509
73,1436899624062,-47.81,-18.206,-0.509
74,1436899624082,-47.81,-18.206,-0.509
75,1436899624102,-47.81,-18.206,-0.509
76,1436899624121,-47.81,-18.206,-0.509
77,1436899624140,-47.81,-18.206,-0.509
78,1436899624162,-47.81,-18.206,-0.831
79,1436899624178,-47.81,-18.206,-0.831
80,1436899624197,-47.81,-18.206,-0.831
81,1436899624218,-47.81,-18.206,-0.831
82,1436899624243,-47.81,-18.206,-0.831
83,1436899624263,-47.81,-18.206,-0.831
84,1436899624283,-47.81,-18.206,-0.831
85,1436899624302,-47.81,-18.206,-0.831
86,1436899624318,-47.81,-18.206,-0.831
87,1436899624337,-47.81,-18.206,-0.831
88,1436899624358,-47.81,-18.206,-0.831
89,1436899624380,-47.81,-18.206,-0.831
90,1436899624399,-47.81,-18.206,-0.831
91,1436899624462,-47.81,-18.206,-0.831
92,1436899624463,-47.81,-18.206,-0.831
93,1436899624473,-47.81,-18.206,-0.831
94,1436899624482,-47.81,-18.206,-0.831
95,1436899624499,-47.81,-18.206,-0.831
96,1436899624520,-47.81,-18.206,-0.831
97,1436899624538,-47.81,-18.206,-0.831
98,1436899624564,-47.81,-18.206,-0.831
99,1436899624579,-47.81,-18.206,-0.831
100,1436899624603,-47.81,-18.206,-0.831
101,1436899624623,-47.81,-18.206,-0.831
102,1436899624642,-47.81,-18.206,-0.831
103,1436899624662,-47.81,-18.206,-0.831
104,1436899624682,-47.81,-18.206,-0.831
105,1436899624702,-47.81,-18.206,-1.144
106,1436899624722,-47.81,-18.206,-1.144
107,1436899624739,-47.81,-18.206,-1.144
108,1436899624761,-47.81,-18.206,-1.144
109,1436899624779,-47.81,-18.206,-1.144
110,1436899624801,-47.81,-18.206,-1.144
111,1436899624820,-47.81,-18.206,-1.144
112,1436899624843,-47.81,-18.206,-1.144
113,1436899624859,-47.81,-18.206,-1.144
114,1436899624882,-47.81,-18.206,-1.144
115,1436899624902,-47.81,-18.206,-1.144
116,1436899624922,-47.81,-18.206,-1.144
117,1436899624942,-47.81,-18.206,-1.144
118,1436899624961,-47.81,-18.206,-1.144
119,1436899624982,-47.81,-18.206,-1.144
120,1436899625003,-47.81,-18.206,-1.144
121,1436899625022,-47.81,-18.206,-1.144
122,1436899625043,-47.81,-18.206,-1.144
123,1436899625062,-47.81,-18.206,-1.144
124,1436899625080,-47.81,-18.206,-1.144
125,1436899625099,-47.81,-18.206,-1.144
126,1436899625122,-47.81,-18.206,-1.144
127,1436899625192,-47.81,-18.206,-1.144
128,1436899625193,-47.81,-18.206,-1.144
129,1436899625194,-47.81,-18.206,-1.144
130,1436899625201,-47.81,-18.206,-1.144
131,1436899625220,-47.81,-18.206,-1.144
132,1436899625240,-47.81,-18.206,-1.144
133,1436899625259,-47.81,-18.206,-1.144
134,1436899625284,-47.81,-18.206,-1.144
135,1436899625301,-47.81,-18.206,-1.144
136,1436899625319,-47.81,-18.206,-1.144
137,1436899625340,-47.81,-18.206,-1.144
138,1436899625361,-47.81,-18.206,-1.144
139,1436899625381,-47.81,-18.206,-1.144
140,1436899625402,-47.81,-18.206,-1.144
141,1436899625422,-47.81,-18.206,-1.144
142,1436899625442,-47.81,-18.206,-1.144
143,1436899625463,-47.81,-18.206,-1.452
144,1436899625483,-47.81,-18.206,-1.452
145,1436899625503,-47.81,-18.206,-1.452
146,1436899625523,-47.81,-18.206,-1.452
147,1436899625543,-47.81,-18.206,-1.452
148,1436899625562,-47.81,-18.206,-1.452
149,1436899625580,-47.81,-18.206,-1.452
150,1436899625603,-47.81,-18.206,-1.452
151,1436899625625,-47.81,-18.206,-1.452
152,1436899625645,-47.81,-18.206,-1.452
153,1436899625665,-47.81,-18.206,-1.452
154,1436899625682,-47.81,-18.206,-1.452
155,1436899625700,-47.81,-18.206,-1.77
156,1436899625720,-47.81,-18.206,-1.77
157,1436899625743,-47.81,-18.206,-1.77
158,1436899625761,-47.81,-18.206,-1.77
159,1436899625780,-47.81,-18.206,-1.77
160,1436899625811,-47.81,-18.206,-1.77
161,1436899625820,-47.81,-18.206,-1.77
162,1436899625845,-47.81,-18.206,-1.77
163,1436899625914,-47.81,-18.206,-1.77
164,1436899625915,-47.81,-18.206,-1.77
165,1436899625916,-47.81,-18.206,-1.77
166,1436899625924,-47.81,-18.206,-1.77
167,1436899625940,-47.81,-18.206,-1.77
168,1436899625960,-47.81,-18.206,-1.77
169,1436899625980,-47.81,-18.206,-1.77
170,1436899626000,-47.81,-18.206,-1.77
171,1436899626020,-47.81,-18.206,-1.77
172,1436899626041,-47.81,-18.206,-1.77
173,1436899626060,-47.81,-18.206,-1.77
174,1436899626081,-47.81,-18.206,-1.77
175,1436899626103,-47.81,-18.206,-1.77
176,1436899626120,-47.81,-18.206,-1.77
177,1436899626143,-47.81,-18.206,-2.093
178,1436899626163,-47.81,-18.206,-2.093
179,1436899626184,-47.81,-18.206,-2.093
180,1436899626203,-47.81,-18.206,-2.093
181,1436899626223,-47.81,-18.206,-2.093
182,1436899626243,-47.81,-18.206,-2.093
183,1436899626263,-47.81,-18.206,-2.093
184,1436899626283,-47.81,-18.206,-2.093
185,1436899626300,-47.81,-18.206,-2.093
186,1436899626321,-47.81,-18.206,-2.093
187,1436899626343,-47.81,-18.206,-2.093
188,1436899626361,-47.81,-18.206,-2.093
189,1436899626381,-47.81,-18.206,-2.093
190,1436899626401,-47.81,-18.206,-2.093
191,1436899626424,-47.81,-18.206,-2.093
192,1436899626445,-47.81,-18.206,-2.093
193,1436899626465,-47.81,-18.206,-2.093
194,1436899626483,-47.81,-18.206,-2.093
195,1436899626501,-47.81,-18.206,-2.093
196,1436899626521,-47.81,-18.206,-2.093
197,1436899626540,-47.81,-18.206,-2.093
198,1436899626563,-47.81,-18.206,-2.093
199,1436899626584,-47.81,-18.206,-2.093
200,1436899626634,-47.81,-18.206,-2.093
201,1436899626635,-47.81,-18.206,-2.093
202,1436899626643,-47.81,-17.892,-2.093
203,1436899626661,-47.81,-17.892,-2.093
204,1436899626680,-47.81,-17.892,-2.093
205,1436899626701,-47.81,-17.892,-2.093
206,1436899626720,-47.81,-17.892,-2.093
207,1436899626753,-47.81,-17.892,-2.093
208,1436899626762,-47.81,-17.892,-2.093
209,1436899626781,-47.81,-17.892,-2.093
210,1436899626803,-47.81,-17.892,-2.093
211,1436899626821,-47.81,-17.892,-2.395
212,1436899626842,-47.81,-17.892,-2.395
213,1436899626862,-47.81,-17.892,-2.395
214,1436899626883,-47.81,-17.892,-2.395
215,1436899626905,-47.81,-17.892,-2.395
216,1436899626923,-47.81,-17.892,-2.395
217,1436899626942,-47.81,-17.892,-2.395
218,1436899626963,-47.81,-17.892,-2.395
219,1436899626983,-47.81,-17.892,-2.395
220,1436899627004,-47.81,-17.892,-2.708
221,1436899627023,-47.81,-17.892,-2.708
222,1436899627044,-47.81,-17.892,-2.708
223,1436899627062,-47.81,-17.892,-2.708
224,1436899627083,-47.81,-17.892,-2.708
225,1436899627104,-47.81,-17.892,-2.708
226,1436899627123,-47.81,-17.892,-2.708
227,1436899627144,-47.81,-17.892,-2.708
228,1436899627162,-47.81,-17.892,-2.708
229,1436899627182,-47.81,-17.892,-2.708
230,1436899627202,-47.81,-17.892,-2.708
231,1436899627222,-47.81,-17.892,-2.708
232,1436899627243,-47.81,-17.892,-2.708
233,1436899627263,-47.81,-17.892,-2.708
234,1436899627283,-47.81,-17.892,-2.708
235,1436899627303,-47.81,-17.892,-2.708
236,1436899627326,-47.81,-17.892,-2.708
237,1436899627395,-47.81,-17.892,-2.708
238,1436899627396,-47.81,-17.892,-2.708
239,1436899627397,-47.81,-17.892,-2.708
240,1436899627404,-47.81,-17.892,-2.708
241,1436899627421,-47.81,-17.892,-2.708
242,1436899627441,-47.81,-17.892,-2.708
243,1436899627461,-47.81,-17.892,-2.708
244,1436899627491,-47.81,-17.892,-2.708
245,1436899627501,-47.81,-17.892,-2.708
246,1436899627575,-47.81,-17.892,-2.708
247,1436899627576,-47.81,-17.892,-2.708
248,1436899627577,-47.81,-17.892,-2.708
249,1436899627605,-47.81,-17.892,-2.708
250,1436899627611,-47.81,-17.892,-2.708
251,1436899627638,-47.81,-17.892,-2.708
252,1436899627658,-47.81,-17.892,-2.708
253,1436899627665,-47.81,-17.892,-2.708
254,1436899627697,-47.81,-17.892,-2.708
255,1436899627704,-47.81,-17.892,-2.708
256,1436899627721,-47.81,-17.892,-2.708
257,1436899627741,-47.81,-17.892,-2.708
258,1436899627762,-47.81,-17.892,-2.708
259,1436899627785,-47.81,-17.892,-2.708
260,1436899627802,-47.81,-17.892,-2.708
261,1436899627824,-47.81,-17.892,-2.708
262,1436899627842,-47.81,-17.892,-2.708
263,1436899627865,-47.81,-17.892,-3.025
264,1436899627889,-47.81,-17.892,-3.025
265,1436899627907,-47.81,-17.892,-3.025
266,1436899627926,-47.81,-17.892,-3.025
267,1436899627946,-47.81,-17.892,-3.025
268,1436899627963,-47.81,-17.892,-3.025
269,1436899627981,-47.81,-17.892,-3.025
270,1436899628001,-47.81,-17.892,-3.025
271,1436899628021,-47.81,-17.892,-3.025
272,1436899628041,-47.81,-17.892,-3.025
273,1436899628061,-47.81,-17.892,-3.025
274,1436899628081,-47.81,-17.892,-3.025
275,1436899628102,-47.81,-17.892,-3.025
276,1436899628121,-47.81,-17.892,-3.025
277,1436899628141,-47.81,-17.892,-3.025
278,1436899628161,-47.81,-17.892,-3.025
279,1436899628181,-47.81,-17.892,-3.025
280,1436899628201,-47.81,-17.892,-3.025
281,1436899628221,-47.81,-17.892,-3.025
282,1436899628241,-47.81,-17.892,-3.025
283,1436899628261,-47.81,-17.892,-3.025
284,1436899628281,-47.81,-17.892,-3.025
285,1436899628301,-47.81,-17.892,-3.025
286,1436899628325,-47.81,-17.892,-3.025
287,1436899628343,-47.81,-17.892,-3.025
288,1436899628363,-47.81,-17.892,-3.025
289,1436899628382,-48.115,-17.892,-3.025
290,1436899628402,-48.115,-17.892,-3.025
291,1436899628422,-48.115,-17.892,-3.025
292,1436899628442,-48.115,-17.892,-3.025
293,1436899628461,-48.115,-17.892,-3.025
294,1436899628483,-48.115,-17.892,-3.025
295,1436899628503,-48.115,-17.892,-3.025
296,1436899628523,-48.115,-17.892,-3.025
297,1436899628544,-48.115,-17.892,-3.025
298,1436899628563,-48.115,-17.892,-3.025
299,1436899628583,-48.115,-17.892,-3.025
300,1436899628605,-48.115,-17.892,-3.025
301,1436899628622,-48.115,-17.892,-3.025
302,1436899628642,-48.115,-17.892,-3.025
303,1436899628681,-48.115,-17.892,-3.025
304,1436899628691,-48.115,-17.892,-3.025
305,1436899628711,-48.115,-17.892,-3.025
306,1436899628722,-48.115,-17.892,-3.025
307,1436899628742,-48.115,-17.892,-3.025
308,1436899628762,-48.115,-17.892,-3.025
309,1436899628784,-48.115,-17.892,-3.025
310,1436899628803,-48.115,-17.892,-3.025
311,1436899628822,-48.115,-17.892,-3.025
312,1436899628842,-48.115,-17.892,-3.025
313,1436899628862,-48.115,-17.892,-3.025
314,1436899628882,-48.115,-17.892,-3.025
315,1436899628904,-48.115,-17.892,-3.025
316,1436899628924,-48.115,-17.892,-3.025
317,1436899628946,-48.115,-17.892,-3.025
318,1436899628963,-48.115,-17.892,-3.025
319,1436899628983,-48.115,-17.892,-3.025
320,1436899629003,-48.115,-17.892,-3.025
321,1436899629025,-48.115,-17.892,-3.025
322,1436899629044,-48.115,-17.892,-3.025
323,1436899629063,-48.115,-17.892,-3.025
324,1436899629085,-48.115,-17.892,-3.025
325,1436899629105,-48.115,-17.892,-3.025
326,1436899629123,-48.115,-17.892,-3.025
327,1436899629145,-48.115,-17.892,-3.025
328,1436899629164,-48.115,-17.892,-3.025
329,1436899629183,-48.115,-17.892,-3.025
330,1436899629204,-48.115,-17.892,-3.025
331,1436899629226,-48.115,-17.892,-3.025
332,1436899629244,-48.115,-17.892,-3.025
333,1436899629264,-47.814,-17.892,-3.025
334,1436899629284,-47.814,-17.892,-3.025
335,1436899629306,-47.814,-17.892,-3.025
336,1436899629368,-47.814,-17.892,-3.025
337,1436899629369,-47.814,-17.892,-3.025
338,1436899629370,-47.814,-17.892,-3.025
339,1436899629391,-47.814,-17.892,-3.025
340,1436899629404,-47.814,-17.892,-3.436
341,1436899629426,-47.814,-17.892,-3.436
342,1436899629443,-47.814,-17.892,-3.436
343,1436899629463,-47.814,-17.892,-3.759
344,1436899629485,-47.814,-17.892,-3.759
345,1436899629504,-47.814,-17.892,-3.759
346,1436899629524,-47.814,-17.892,-3.759
347,1436899629544,-47.814,-17.892,-4.179
348,1436899629565,-47.814,-17.892,-4.179
349,1436899629585,-47.814,-17.892,-4.179
350,1436899629605,-47.814,-17.892,-4.179
351,1436899629626,-47.814,-17.892,-4.508
352,1436899629646,-47.814,-17.892,-4.508
353,1436899629663,-47.814,-17.892,-4.508
354,1436899629685,-47.814,-17.892,-4.508
355,1436899629706,-47.814,-17.892,-4.508
356,1436899629725,-47.814,-17.892,-4.508
357,1436899629747,-47.814,-17.892,-4.508
358,1436899629765,-47.814,-17.892,-4.843
359,1436899629785,-47.814,-17.892,-4.843
360,1436899629803,-47.814,-17.892,-4.843
361,1436899629824,-47.814,-17.892,-4.843
362,1436899629844,-47.814,-17.892,-4.843
363,1436899629864,-47.814,-17.57,-4.843
364,1436899629888,-47.814,-17.57,-4.843
365,1436899629909,-47.814,-17.57,-4.843
366,1436899629928,-47.814,-17.57,-4.843
367,1436899629946,-47.814,-17.57,-4.843
368,1436899629964,-47.814,-17.57,-4.843
369,1436899629984,-47.814,-17.57,-4.843
370,1436899630004,-47.814,-17.57,-4.843
371,1436899630027,-47.814,-17.57,-4.843
372,1436899630045,-47.814,-17.57,-4.843
373,1436899630108,-47.814,-17.57,-4.843
374,1436899630109,-47.814,-17.57,-4.843
375,1436899630124,-47.814,-17.57,-4.843
376,1436899630125,-47.814,-17.57,-4.843
377,1436899630182,-47.814,-17.57,-4.843
378,1436899630183,-47.814,-17.57,-4.843
379,1436899630198,-47.814,-17.57,-4.843
380,1436899630235,-47.814,-17.57,-4.843
381,1436899630236,-47.814,-17.263,-4.487
382,1436899630279,-47.814,-17.263,-4.487
383,1436899630280,-47.814,-17.263,-4.182
384,1436899630286,-48.126,-17.263,-3.143
385,1436899630304,-48.126,-17.263,-2.436
386,1436899630326,-48.126,-17.263,-1.657
387,1436899630345,-48.126,-16.915,-0.851
388,1436899630366,-48.126,-16.915,0.038
389,1436899630387,-48.126,-16.915,0.457
390,1436899630406,-48.126,-16.56,1.428
391,1436899630426,-48.126,-16.56,2.357
392,1436899630446,-48.452,-16.241,3.257
393,1436899630466,-48.452,-16.241,3.956
394,1436899630486,-48.452,-15.345,5.021
395,1436899630506,-48.452,-14.553,6.684
396,1436899630528,-48.452,-13.883,6.684
397,1436899630549,-48.452,-13.227,7.875
398,1436899630565,-48.452,-12.747,9.217
399,1436899630585,-48.452,-11.865,10.266
400,1436899630606,-48.452,-11.865,11.721
401,1436899630627,-48.452,-10.864,11.721
402,1436899630647,-48.452,-10.047,12.156
403,1436899630664,-48.452,-9.469,11.84
404,1436899630687,-48.452,-8.908,11.84
405,1436899630707,-48.452,-8.178,11.84
406,1436899630728,-48.452,-8.178,12.327
407,1436899630748,-48.452,-7.368,12.327
408,1436899630765,-48.452,-6.929,12.988
409,1436899630796,-48.452,-6.929,12.362
410,1436899630813,-48.452,-6.237,12.986
411,1436899630825,-48.452,-6.237,12.986
412,1436899630850,-48.452,-6.237,12.986
413,1436899630908,-48.452,-5.889,13.54
414,1436899630909,-48.452,-5.889,13.069
415,1436899630910,-48.452,-5.889,13.069
416,1436899630924,-48.452,-5.889,13.069
417,1436899630945,-48.452,-5.889,13.069
418,1436899630967,-48.452,-6.375,13.069
419,1436899630987,-48.452,-6.375,13.069
420,1436899631005,-48.452,-6.375,13.069
421,1436899631026,-48.452,-6.375,13.069
422,1436899631044,-48.452,-6.375,13.069
423,1436899631067,-48.452,-6.375,13.069
424,1436899631085,-48.452,-6.375,13.069
425,1436899631106,-48.452,-6.375,13.398
426,1436899631127,-48.452,-7.366,13.398
427,1436899631147,-48.452,-8.453,13.398
428,1436899631167,-48.452,-8.773,13.398
429,1436899631186,-48.452,-9.318,13.398
430,1436899631208,-48.452,-10.061,13.398
431,1436899631227,-48.138,-10.635,13.398
432,1436899631247,-48.138,-11.126,13.398
433,1436899631267,-48.138,-11.126,13.398
434,1436899631287,-48.138,-11.593,13.398
435,1436899631306,-48.138,-11.593,13.398
436,1436899631326,-48.138,-12.434,13.398
437,1436899631347,-48.138,-12.944,13.012
438,1436899631367,-47.784,-13.653,13.012
439,1436899631387,-47.784,-14.062,13.012
440,1436899631408,-47.784,-14.869,12.637
441,1436899631427,-47.784,-15.249,12.637
442,1436899631445,-47.784,-15.76,11.203
443,1436899631467,-47.482,-16.346,10.255
444,1436899631488,-47.482,-16.871,9.007
445,1436899631508,-47.482,-17.382,7.543
446,1436899631528,-47.482,-17.895,6.742
447,1436899631545,-47.482,-18.312,5.548
448,1436899631575,-47.482,-19.065,4.039
449,1436899631586,-47.175,-19.467,2.766
450,1436899631638,-47.175,-19.467,1.432
451,1436899631639,-47.175,-19.467,0.341
452,1436899631645,-47.175,-19.467,-0.637
453,1436899631665,-47.175,-19.467,-0.941
454,1436899631686,-47.175,-19.467,-1.765
455,1436899631706,-47.175,-19.157,-1.765
456,1436899631725,-47.175,-19.157,-2.175
457,1436899631745,-46.87,-19.157,-2.67
458,1436899631773,-46.87,-19.157,-2.67
459,1436899631789,-46.87,-19.157,-4.264
460,1436899631811,-46.87,-19.157,-4.264
461,1436899631826,-46.87,-19.157,-5.325
462,1436899631847,-46.87,-19.157,-5.325
463,1436899631881,-46.87,-19.157,-5.325
464,1436899631885,-46.87,-19.157,-5.671
465,1436899631905,-46.87,-19.157,-5.291
466,1436899631925,-46.87,-19.157,-4.975
467,1436899631945,-46.87,-19.157,-4.975
468,1436899631965,-46.87,-18.592,-5.287
469,1436899631985,-46.87,-18.214,-4.512
470,1436899632005,-46.87,-17.761,-4.512
471,1436899632025,-47.235,-17.298,-4.512
472,1436899632045,-47.235,-16.917,-4.153
473,1436899632065,-47.235,-16.546,-4.153
474,1436899632086,-47.235,-16.242,-4.153
475,1436899632106,-47.595,-16.242,-4.153
476,1436899632166,-47.595,-15.687,-3.652
477,1436899632167,-47.595,-15.687,-3.652
478,1436899632168,-47.898,-15.687,-2.14
479,1436899632186,-47.898,-15.187,-1.629
480,1436899632207,-47.898,-15.187,-0.811
481,1436899632226,-47.898,-15.187,-1.477
482,1436899632246,-48.239,-15.545,-1.477
483,1436899632268,-48.239,-15.545,-2.108
484,1436899632295,-48.239,-15.545,-1.51
485,1436899632352,-48.239,-15.545,-1.51
486,1436899632353,-48.239,-15.225,-0.939
487,1436899632354,-48.239,-15.225,-0.939
488,1436899632366,-48.239,-15.225,-0.939
489,1436899632386,-48.239,-15.225,-0.939
490,1436899632412,-48.239,-15.225,-0.939
491,1436899632428,-48.239,-15.225,-0.939
492,1436899632446,-48.239,-15.225,-0.939
493,1436899632465,-48.239,-15.225,-0.518
494,1436899632487,-48.239,-15.225,-0.518
495,1436899632507,-48.239,-15.225,-0.518
496,1436899632526,-48.239,-15.225,-0.16
497,1436899632547,-48.239,-15.225,-0.16
498,1436899632565,-48.239,-15.225,-0.16
499,1436899632590,-47.885,-15.225,-0.16
