id,attr_time,attr_x,attr_y,attr_z
1,1436983160040,-16.073,-42.35,7.853
2,1436983160057,-16.073,-42.35,7.853
3,1436983160080,-16.073,-42.35,7.853
4,1436983160101,-16.073,-42.35,7.853
5,1436983160121,-16.073,-42.35,7.853
6,1436983160140,-16.073,-42.35,7.853
7,1436983160161,-16.073,-42.35,8.163
8,1436983160181,-16.073,-42.35,8.163
9,1436983160200,-16.387,-42.35,8.163
10,1436983160220,-16.387,-42.35,8.163
11,1436983160238,-16.387,-42.35,8.163
12,1436983160259,-16.387,-42.35,8.163
13,1436983160281,-16.387,-42.35,8.163
14,1436983160298,-16.387,-42.35,8.163
15,1436983160318,-16.387,-42.35,8.163
16,1436983160337,-16.387,-42.35,8.163
17,1436983160363,-16.387,-42.35,8.163
18,1436983160384,-16.387,-42.35,8.163
19,1436983160401,-16.387,-42.35,8.163
20,1436983160421,-16.387,-42.35,8.163
21,1436983160438,-16.387,-42.35,8.163
22,1436983160459,-16.387,-42.35,8.163
23,1436983160478,-16.387,-42.35,8.163
24,1436983160562,-16.387,-42.35,8.163
25,1436983160564,-16.387,-42.35,8.163
26,1436983160565,-16.387,-42.35,8.163
27,1436983160566,-16.387,-42.35,8.163
28,1436983160591,-16.387,-42.35,8.163
29,1436983160619,-16.387,-42.35,8.163
30,1436983160620,-16.387,-42.35,8.163
31,1436983160640,-16.387,-42.35,8.163
32,1436983160658,-16.387,-42.35,8.163
33,1436983160677,-16.387,-42.35,8.163
34,1436983160698,-16.387,-42.35,8.163
35,1436983160718,-16.387,-42.35,8.163
36,1436983160738,-16.387,-42.35,8.163
37,1436983160758,-16.387,-42.35,8.163
38,1436983160778,-16.387,-42.35,8.163
39,1436983160801,-16.387,-42.35,8.163
40,1436983160821,-16.387,-42.35,8.163
41,1436983160841,-16.387,-42.35,8.163
42,1436983160861,-16.387,-42.35,8.163
43,1436983160881,-16.387,-42.35,8.163
44,1436983160901,-16.387,-42.35,8.163
45,1436983160921,-16.387,-42.35,8.163
46,1436983160941,-16.387,-42.35,8.163
47,1436983160962,-16.387,-42.35,8.163
48,1436983160978,-16.387,-42.35,8.163
49,1436983161001,-16.387,-42.35,8.163
50,1436983161021,-16.387,-42.35,8.163
51,1436983161041,-16.387,-42.35,8.163
52,1436983161060,-16.387,-42.35,8.163
53,1436983161081,-16.387,-42.35,8.163
54,1436983161101,-16.387,-42.35,8.163
55,1436983161121,-16.387,-42.35,8.163
56,1436983161138,-16.387,-42.35,8.163
57,1436983161161,-16.387,-42.35,8.163
58,1436983161182,-16.387,-42.35,8.163
59,1436983161202,-16.387,-42.35,8.163
60,1436983161221,-16.387,-42.35,8.163
61,1436983161259,-16.387,-42.35,8.163
62,1436983161260,-16.387,-42.35,8.163
63,1436983161392,-16.387,-42.35,8.163
64,1436983161393,-16.387,-42.35,8.163
65,1436983161394,-16.387,-42.35,7.85
66,1436983161395,-16.387,-42.35,7.85
67,1436983161396,-16.387,-42.35,7.85
68,1436983161397,-16.387,-42.35,7.85
69,1436983161405,-16.387,-42.35,7.85
70,1436983161433,-16.387,-42.35,7.85
71,1436983161438,-16.387,-42.35,7.85
72,1436983161458,-16.387,-42.35,7.522
73,1436983161482,-16.387,-42.35,7.522
74,1436983161499,-16.387,-42.35,7.522
75,1436983161520,-16.387,-42.35,7.522
76,1436983161538,-16.387,-42.35,7.522
77,1436983161559,-16.387,-42.35,7.522
78,1436983161579,-16.387,-42.35,7.522
79,1436983161599,-16.387,-42.35,7.522
80,1436983161619,-16.387,-42.35,7.522
81,1436983161638,-16.387,-42.35,7.522
82,1436983161658,-16.387,-42.35,7.522
83,1436983161678,-16.027,-42.35,7.522
84,1436983161698,-16.027,-42.35,7.186
85,1436983161718,-16.027,-42.35,7.186
86,1436983161738,-16.027,-42.35,7.186
87,1436983161760,-16.027,-42.35,7.186
88,1436983161782,-16.027,-42.35,7.186
89,1436983161803,-16.027,-42.35,7.186
90,1436983161823,-16.027,-42.35,7.186
91,1436983161841,-16.027,-42.35,7.186
92,1436983161862,-16.027,-42.35,7.186
93,1436983161881,-16.027,-42.35,7.186
94,1436983161899,-16.027,-42.35,7.186
95,1436983161922,-16.027,-42.35,7.186
96,1436983161943,-16.027,-42.35,7.186
97,1436983161962,-15.693,-42.35,7.186
98,1436983161980,-15.693,-42.35,7.186
99,1436983162001,-15.693,-42.35,7.186
100,1436983162021,-15.693,-42.35,7.186
101,1436983162047,-15.693,-42.35,7.186
102,1436983162080,-15.693,-42.35,7.186
103,1436983162081,-15.693,-42.35,7.186
104,1436983162099,-15.693,-42.35,7.186
105,1436983162121,-15.693,-42.35,7.186
106,1436983162139,-15.693,-42.35,7.186
107,1436983162159,-15.693,-42.35,7.186
108,1436983162183,-15.693,-42.35,7.186
109,1436983162201,-16.056,-42.35,7.186
110,1436983162220,-16.056,-42.35,7.582
111,1436983162243,-16.056,-42.35,7.582
112,1436983162263,-16.056,-42.35,7.582
113,1436983162283,-16.056,-42.35,7.582
114,1436983162303,-16.056,-42.35,7.582
115,1436983162323,-16.056,-42.35,7.582
116,1436983162343,-16.056,-42.35,7.582
117,1436983162363,-16.056,-42.35,7.582
118,1436983162383,-16.056,-42.35,7.582
119,1436983162403,-16.056,-42.35,7.582
120,1436983162423,-16.056,-42.35,7.582
121,1436983162440,-16.056,-42.35,7.582
122,1436983162462,-16.056,-42.35,7.582
123,1436983162483,-16.056,-42.35,7.582
124,1436983162499,-16.056,-42.35,7.582
125,1436983162519,-16.056,-42.35,7.582
126,1436983162541,-16.056,-42.35,7.582
127,1436983162564,-16.056,-42.35,7.582
128,1436983162584,-16.056,-42.35,7.582
129,1436983162605,-16.056,-42.35,7.582
130,1436983162624,-16.056,-42.35,7.582
131,1436983162639,-16.056,-42.35,7.582
132,1436983162659,-16.056,-42.35,7.582
133,1436983162680,-16.056,-42.35,7.582
134,1436983162701,-16.056,-42.35,7.582
135,1436983162720,-16.056,-42.35,7.582
136,1436983162789,-16.056,-42.35,7.582
137,1436983162790,-16.056,-42.35,7.582
138,1436983162791,-16.056,-42.35,7.582
139,1436983162800,-16.056,-42.35,7.582
140,1436983162832,-16.056,-42.35,7.582
141,1436983162872,-16.056,-42.35,7.582
142,1436983162873,-16.056,-42.35,7.582
143,1436983162880,-16.056,-42.35,7.926
144,1436983162900,-16.056,-42.35,7.926
145,1436983162931,-16.056,-42.35,7.926
146,1436983162950,-16.056,-42.35,7.926
147,1436983162960,-16.056,-42.35,7.926
148,1436983162980,-16.056,-42.35,8.238
149,1436983163000,-16.056,-42.35,8.238
150,1436983163020,-16.056,-42.35,8.238
151,1436983163040,-15.736,-42.35,8.238
152,1436983163060,-15.736,-42.35,8.238
153,1436983163080,-15.736,-42.35,8.238
154,1436983163100,-15.736,-42.35,8.566
155,1436983163120,-15.736,-42.35,8.566
156,1436983163140,-15.736,-42.35,8.566
157,1436983163161,-15.736,-42.35,8.566
158,1436983163179,-15.736,-42.35,8.566
159,1436983163200,-15.736,-42.35,8.566
160,1436983163222,-15.736,-42.35,8.566
161,1436983163244,-15.736,-42.35,8.566
162,1436983163261,-15.736,-42.35,8.566
163,1436983163281,-15.736,-42.35,8.566
164,1436983163304,-15.736,-42.35,8.566
165,1436983163324,-15.736,-42.35,8.566
166,1436983163344,-16.047,-42.35,8.566
167,1436983163364,-16.047,-42.35,8.566
168,1436983163381,-16.047,-42.35,8.566
169,1436983163401,-16.047,-42.35,8.566
170,1436983163421,-16.047,-42.35,8.566
171,1436983163441,-16.047,-42.35,8.566
172,1436983163462,-16.047,-42.35,8.566
173,1436983163484,-16.354,-42.35,8.209
174,1436983163499,-16.354,-42.35,8.209
175,1436983163520,-16.354,-42.35,8.209
176,1436983163540,-16.354,-42.35,8.209
177,1436983163562,-16.354,-42.35,8.209
178,1436983163581,-16.354,-42.35,8.209
179,1436983163601,-16.354,-42.35,8.209
180,1436983163625,-16.354,-42.35,8.209
181,1436983163645,-16.354,-42.35,8.209
182,1436983163665,-16.354,-42.35,8.209
183,1436983163685,-16.354,-42.35,8.209
184,1436983163701,-16.354,-42.35,8.209
185,1436983163724,-16.354,-42.35,8.209
186,1436983163744,-16.354,-42.35,8.209
187,1436983163764,-16.354,-42.35,8.209
188,1436983163784,-16.354,-42.35,8.209
189,1436983163804,-16.354,-42.35,8.209
190,1436983163822,-16.354,-42.35,8.209
191,1436983163843,-16.052,-42.35,8.209
192,1436983163866,-16.052,-42.35,8.209
193,1436983163884,-16.052,-42.35,8.526
194,1436983163908,-16.052,-42.35,8.526
195,1436983163925,-16.052,-42.35,8.526
196,1436983163944,-15.728,-42.35,8.526
197,1436983163965,-15.728,-42.35,8.526
198,1436983163984,-15.728,-42.35,8.85
199,1436983164005,-15.728,-42.35,8.85
200,1436983164025,-15.728,-42.35,8.85
201,1436983164044,-15.728,-42.35,8.85
202,1436983164064,-15.728,-42.35,8.85
203,1436983164087,-15.728,-42.35,9.216
204,1436983164154,-15.403,-42.669,9.216
205,1436983164155,-15.403,-42.669,9.216
206,1436983164156,-15.403,-42.669,9.216
207,1436983164166,-15.403,-42.669,9.571
208,1436983164182,-15.403,-42.669,9.571
209,1436983164203,-15.403,-42.669,9.571
210,1436983164222,-15.403,-42.669,9.571
211,1436983164241,-15.403,-42.669,9.571
212,1436983164262,-15.403,-42.669,9.571
213,1436983164282,-15.403,-42.669,9.571
214,1436983164308,-15.403,-42.669,9.571
215,1436983164331,-15.098,-42.669,9.571
216,1436983164343,-15.098,-42.669,9.571
217,1436983164362,-15.098,-42.669,9.571
218,1436983164408,-15.098,-42.669,9.571
219,1436983164409,-15.098,-42.669,9.571
220,1436983164423,-15.098,-42.669,9.571
221,1436983164442,-15.098,-42.669,9.571
222,1436983164463,-15.098,-42.669,9.237
223,1436983164483,-15.098,-42.669,9.237
224,1436983164505,-15.098,-42.669,9.237
225,1436983164524,-15.098,-42.669,8.924
226,1436983164546,-15.098,-42.669,8.924
227,1436983164564,-15.098,-42.669,8.924
228,1436983164584,-15.098,-42.669,8.575
229,1436983164601,-15.098,-42.669,8.575
230,1436983164622,-15.098,-42.669,8.575
231,1436983164641,-15.098,-42.669,8.575
232,1436983164661,-15.098,-42.669,8.271
233,1436983164683,-15.426,-42.669,8.271
234,1436983164703,-15.426,-42.669,8.271
235,1436983164725,-15.426,-42.669,8.271
236,1436983164741,-15.426,-42.669,8.271
237,1436983164762,-15.771,-42.669,8.271
238,1436983164782,-15.771,-42.669,7.96
239,1436983164806,-15.771,-42.669,7.96
240,1436983164904,-15.771,-42.669,7.96
241,1436983164915,-15.771,-42.367,7.96
242,1436983164916,-15.771,-42.367,7.96
243,1436983164917,-15.771,-42.367,7.96
244,1436983164918,-15.771,-42.367,7.96
245,1436983164935,-15.771,-42.367,7.96
246,1436983164942,-15.771,-42.367,7.96
247,1436983164963,-15.771,-42.367,7.96
248,1436983164995,-15.771,-42.367,7.96
249,1436983165002,-15.771,-42.367,7.96
250,1436983165022,-15.771,-42.367,7.96
251,1436983165044,-15.771,-42.367,7.96
252,1436983165063,-15.771,-42.367,7.96
253,1436983165085,-15.771,-42.367,7.96
254,1436983165106,-15.771,-42.367,7.96
255,1436983165124,-15.457,-42.367,7.96
256,1436983165145,-15.457,-42.367,7.96
257,1436983165165,-15.457,-42.367,7.96
258,1436983165185,-15.457,-42.367,7.96
259,1436983165205,-15.457,-42.367,7.96
260,1436983165226,-15.457,-42.367,7.96
261,1436983165245,-15.457,-42.367,7.96
262,1436983165265,-15.457,-42.367,7.96
263,1436983165283,-15.457,-42.367,7.96
264,1436983165305,-15.457,-42.367,7.96
265,1436983165325,-15.457,-42.367,7.96
266,1436983165345,-15.457,-42.367,7.96
267,1436983165365,-15.457,-42.367,7.96
268,1436983165384,-15.457,-42.367,7.96
269,1436983165406,-15.457,-42.367,7.96
270,1436983165426,-15.457,-42.367,7.96
271,1436983165446,-15.457,-42.367,7.96
272,1436983165465,-15.457,-42.367,7.96
273,1436983165485,-15.457,-42.367,7.96
274,1436983165503,-15.457,-42.367,7.96
275,1436983165524,-15.457,-42.367,7.96
276,1436983165543,-15.457,-42.367,7.96
277,1436983165563,-15.457,-42.367,7.96
278,1436983165633,-15.457,-42.367,7.96
279,1436983165634,-15.457,-42.367,7.96
280,1436983165635,-15.457,-42.367,7.96
281,1436983165643,-15.457,-42.367,7.96
282,1436983165662,-15.457,-42.367,7.96
283,1436983165682,-15.457,-42.678,7.96
284,1436983165702,-15.457,-42.678,7.96
285,1436983165726,-15.457,-42.678,7.96
286,1436983165742,-15.457,-42.678,7.96
287,1436983165763,-15.11,-42.678,7.96
288,1436983165783,-15.11,-42.678,7.96
289,1436983165805,-15.11,-42.678,7.96
290,1436983165827,-15.11,-42.678,7.96
291,1436983165847,-15.11,-42.678,7.621
292,1436983165864,-15.11,-42.678,7.621
293,1436983165884,-15.11,-42.678,7.621
294,1436983165903,-15.11,-42.678,7.621
295,1436983165926,-15.11,-42.678,7.621
296,1436983165946,-15.11,-42.678,7.621
297,1436983165966,-15.11,-42.678,7.621
298,1436983165986,-15.11,-42.678,7.621
299,1436983166006,-15.11,-42.678,7.286
300,1436983166024,-15.11,-42.678,7.286
301,1436983166046,-15.11,-42.678,7.286
302,1436983166066,-15.11,-42.678,7.286
303,1436983166086,-15.11,-42.678,6.958
304,1436983166106,-15.11,-42.678,6.958
305,1436983166125,-15.11,-42.678,6.958
306,1436983166146,-15.11,-42.678,6.958
307,1436983166166,-15.11,-42.678,6.958
308,1436983166185,-15.11,-42.678,6.958
309,1436983166203,-15.11,-42.678,6.958
310,1436983166223,-15.11,-42.678,6.958
311,1436983166243,-15.11,-42.678,6.958
312,1436983166263,-15.11,-42.678,6.958
313,1436983166290,-15.11,-42.678,6.958
314,1436983166379,-15.11,-42.678,6.958
315,1436983166380,-15.11,-42.678,6.958
316,1436983166381,-15.11,-42.678,6.958
317,1436983166383,-15.11,-42.678,6.958
318,1436983166384,-15.11,-42.678,6.958
319,1436983166406,-15.11,-42.678,6.958
320,1436983166431,-15.11,-42.678,6.958
321,1436983166443,-15.11,-42.678,6.958
322,1436983166472,-15.11,-42.678,6.958
323,1436983166495,-15.11,-42.678,6.958
324,1436983166503,-15.426,-42.678,7.27
325,1436983166523,-15.426,-42.678,7.27
326,1436983166543,-15.426,-42.678,7.27
327,1436983166565,-15.426,-42.678,7.27
328,1436983166586,-15.426,-42.678,7.27
329,1436983166606,-15.426,-42.678,7.27
330,1436983166627,-15.426,-42.678,7.27
331,1436983166647,-15.426,-42.678,7.27
332,1436983166667,-15.426,-42.678,7.606
333,1436983166687,-15.426,-42.678,7.606
334,1436983166706,-15.426,-42.678,7.606
335,1436983166726,-15.426,-42.678,7.606
336,1436983166753,-15.426,-42.678,7.606
337,1436983166764,-15.753,-42.678,7.606
338,1436983166786,-15.753,-42.678,7.606
339,1436983166806,-15.753,-42.678,7.606
340,1436983166828,-15.753,-42.678,7.606
341,1436983166847,-15.753,-42.678,7.606
342,1436983166865,-15.753,-42.678,7.606
343,1436983166885,-15.753,-42.678,7.606
344,1436983166906,-15.753,-42.678,7.606
345,1436983166926,-15.753,-42.678,7.606
346,1436983167222,-15.753,-42.678,7.606
347,1436983167223,-15.753,-42.678,7.606
348,1436983167224,-15.753,-42.678,7.606
349,1436983167225,-15.753,-42.678,7.606
350,1436983167226,-15.753,-42.678,7.606
351,1436983167227,-15.753,-42.678,7.606
352,1436983167228,-15.753,-42.678,7.606
353,1436983167229,-15.753,-42.678,7.606
354,1436983167230,-15.753,-42.678,7.606
355,1436983167231,-15.753,-42.678,7.606
356,1436983167232,-15.753,-42.678,7.606
357,1436983167233,-15.753,-42.678,7.606
358,1436983167234,-15.753,-42.379,7.606
359,1436983167235,-15.753,-42.379,7.606
360,1436983167236,-15.753,-42.379,7.606
361,1436983167254,-15.753,-42.379,7.606
362,1436983167264,-15.753,-42.379,7.606
363,1436983167285,-15.753,-42.379,7.606
364,1436983167305,-15.753,-42.379,7.606
365,1436983167324,-15.753,-42.379,7.606
366,1436983167345,-15.753,-42.379,7.606
367,1436983167364,-15.753,-42.379,7.263
368,1436983167386,-15.753,-42.379,7.263
369,1436983167406,-15.753,-42.379,7.263
370,1436983167426,-15.753,-42.379,7.263
371,1436983167445,-15.753,-42.379,7.263
372,1436983167466,-15.753,-42.379,7.263
373,1436983167485,-15.753,-42.379,7.263
374,1436983167506,-15.753,-42.379,7.263
375,1436983167526,-15.753,-42.379,7.263
376,1436983167546,-16.061,-42.379,7.263
377,1436983167565,-16.061,-42.379,7.577
378,1436983167584,-16.061,-42.379,7.577
379,1436983167604,-16.061,-42.379,7.577
380,1436983167624,-16.061,-42.379,7.577
381,1436983167646,-16.061,-42.379,7.577
382,1436983167670,-16.061,-42.379,7.577
383,1436983167685,-16.061,-42.379,7.577
384,1436983167705,-16.061,-42.379,7.577
385,1436983167730,-16.061,-42.379,7.577
386,1436983167797,-16.061,-42.379,7.577
387,1436983167798,-16.061,-42.379,7.577
388,1436983167799,-16.061,-42.379,7.577
389,1436983167808,-16.061,-42.379,7.577
390,1436983167836,-16.061,-42.379,7.577
391,1436983167846,-16.061,-42.379,7.577
392,1436983167864,-16.061,-42.379,7.577
393,1436983167885,-16.061,-42.379,7.577
394,1436983167906,-16.061,-42.379,7.577
395,1436983167926,-16.061,-42.379,7.577
396,1436983167946,-16.061,-42.379,7.577
397,1436983167968,-16.061,-42.379,7.577
398,1436983167986,-16.061,-42.379,7.577
399,1436983168006,-16.061,-42.379,7.577
400,1436983168028,-16.061,-42.379,7.577
401,1436983168048,-16.061,-42.379,7.577
402,1436983168068,-16.061,-42.379,7.577
403,1436983168088,-16.061,-42.379,7.577
404,1436983168108,-16.061,-42.379,7.577
405,1436983168128,-16.061,-42.379,7.577
406,1436983168145,-16.061,-42.379,7.577
407,1436983168166,-15.69,-42.379,7.577
408,1436983168188,-15.69,-42.379,7.235
409,1436983168211,-15.69,-42.379,7.235
410,1436983168227,-15.69,-42.379,7.235
411,1436983168248,-15.356,-42.379,7.235
412,1436983168268,-15.356,-42.379,7.235
413,1436983168285,-15.356,-42.379,7.235
414,1436983168305,-15.356,-42.379,7.235
415,1436983168326,-15.356,-42.379,7.235
416,1436983168352,-15.356,-42.379,7.235
417,1436983168366,-15.028,-42.686,7.235
418,1436983168386,-15.028,-42.686,7.235
419,1436983168406,-15.028,-42.686,7.235
420,1436983168431,-15.028,-42.686,7.235
421,1436983168489,-15.028,-42.686,7.235
422,1436983168490,-15.028,-42.686,7.235
423,1436983168491,-15.028,-42.686,7.235
424,1436983168508,-15.028,-42.686,7.235
425,1436983168526,-15.028,-42.686,7.235
426,1436983168547,-15.028,-42.686,7.235
427,1436983168565,-15.028,-42.686,7.235
428,1436983168585,-15.028,-42.686,7.235
429,1436983168613,-15.028,-42.686,7.618
430,1436983168626,-15.028,-42.686,7.618
431,1436983168647,-15.028,-42.686,7.618
432,1436983168666,-15.028,-42.686,7.618
433,1436983168687,-15.028,-42.686,7.618
434,1436983168709,-15.028,-42.686,7.618
435,1436983168726,-15.028,-42.686,7.618
436,1436983168749,-15.35,-42.686,7.618
437,1436983168769,-15.35,-42.686,7.618
438,1436983168786,-15.35,-42.686,7.618
439,1436983168809,-15.35,-42.686,7.618
440,1436983168829,-15.35,-42.686,7.618
441,1436983168846,-15.35,-42.686,7.618
442,1436983168867,-15.35,-42.686,7.618
443,1436983168885,-15.35,-42.686,7.618
444,1436983168908,-15.675,-42.686,7.618
445,1436983168929,-15.675,-42.686,7.618
446,1436983168948,-15.675,-42.686,7.618
447,1436983168968,-15.675,-42.686,7.618
448,1436983168988,-15.675,-42.686,7.618
449,1436983169008,-15.675,-42.686,7.618
450,1436983169029,-15.675,-42.686,7.299
451,1436983169049,-15.675,-42.686,7.299
452,1436983169066,-15.675,-42.686,7.299
453,1436983169088,-15.675,-42.686,7.299
454,1436983169106,-15.675,-42.686,7.299
455,1436983169129,-15.675,-42.686,7.299
456,1436983169148,-15.675,-42.686,7.299
457,1436983169166,-15.675,-42.686,7.299
458,1436983169216,-15.371,-42.686,7.299
459,1436983169217,-15.371,-42.686,7.299
460,1436983169228,-15.371,-42.686,7.299
461,1436983169246,-15.371,-42.686,7.299
462,1436983169266,-15.371,-42.686,7.299
463,1436983169286,-15.371,-42.686,7.299
464,1436983169306,-15.058,-42.686,7.299
465,1436983169331,-15.058,-42.686,7.299
466,1436983169346,-15.058,-42.686,7.299
467,1436983169367,-15.058,-42.686,7.299
468,1436983169388,-15.058,-42.686,7.299
469,1436983169407,-15.058,-42.686,7.299
470,1436983169426,-15.058,-42.686,7.299
471,1436983169448,-15.058,-42.686,7.299
472,1436983169469,-15.058,-42.686,7.299
473,1436983169488,-15.058,-42.686,7.299
474,1436983169509,-15.058,-42.686,7.299
475,1436983169530,-15.058,-42.686,7.299
476,1436983169548,-15.058,-42.686,7.299
477,1436983169570,-15.058,-42.686,7.299
478,1436983169589,-15.058,-42.686,7.299
479,1436983169608,-15.058,-42.686,7.299
480,1436983169630,-15.058,-42.686,7.299
481,1436983169647,-15.058,-42.686,6.973
482,1436983169670,-15.058,-42.686,6.973
483,1436983169690,-15.058,-42.686,6.973
484,1436983169711,-15.391,-42.686,6.973
485,1436983169731,-15.391,-42.686,6.973
486,1436983169748,-15.391,-42.384,6.973
487,1436983169769,-15.391,-42.384,6.973
488,1436983169787,-15.391,-42.384,6.973
489,1436983169807,-15.753,-42.384,6.973
490,1436983169832,-15.753,-42.384,6.973
491,1436983169851,-15.753,-42.384,6.973
492,1436983169871,-15.753,-42.384,6.973
493,1436983169890,-15.753,-42.384,6.973
494,1436983169909,-15.753,-42.384,6.973
495,1436983169971,-15.753,-42.384,6.973
496,1436983169972,-15.753,-42.384,6.973
497,1436983169973,-15.753,-42.384,6.973
498,1436983169989,-15.753,-42.384,7.296
499,1436983170017,-15.753,-42.384,7.296
500,1436983170029,-15.753,-42.384,7.296
501,1436983170047,-15.753,-42.384,7.296
502,1436983170067,-15.753,-42.384,7.296
503,1436983170087,-15.753,-42.384,7.296
504,1436983170113,-15.753,-42.384,7.296
505,1436983170132,-15.753,-42.384,7.609
506,1436983170148,-15.753,-42.384,7.609
507,1436983170167,-15.753,-42.384,7.609
508,1436983170191,-15.753,-42.384,7.609
509,1436983170209,-15.753,-42.384,7.609
