id,attr_time,attr_db
1,1436462332763,28.9231939310353
2,1436462333408,32.009162932755
3,1436462334124,25.0558434126159
4,1436462334859,27.4568923597776
5,1436462335596,54.4958408747069
6,1436462336315,47.3722354256535
7,1436462337061,43.4000249618261
8,1436462337725,61.223863808393
9,1436462338420,51.7862125650709
10,1436462339011,42.8290852110995
11,1436462339693,42.6595434265238
12,1436462340384,44.9557726462879
13,1436462341035,46.6349354883816
14,1436462341757,40.1127043804766
15,1436462342495,39.8328094335983
16,1436462343226,39.8321792245929
17,1436462343945,43.6722695173454
18,1436462344662,55.2663907518964
19,1436462345383,65.4693724945915
20,1436462346158,54.7193540741787
21,1436462346775,44.4613165633245
22,1436462347483,49.4713128628446
23,1436462348231,58.1112414096438
24,1436462348909,45.919237771327
25,1436462349476,50.7334020282934
26,1436462350154,41.0313160035738
27,1436462350882,56.1154659942326
28,1436462351613,47.3374428346154
29,1436462352416,40.5963546486967
30,1436462352959,44.0064949112947
31,1436462353516,37.7976908396411
32,1436462354135,41.6464316783605
33,1436462354851,45.3036525101819
34,1436462355583,35.826869630151
35,1436462356370,39.4204048100569
36,1436462357116,40.3783324621102
37,1436462357846,34.9249104560971
38,1436462358575,34.8325041315518
39,1436462359228,38.2381842147485
40,1436462359876,60.7078496088577
41,1436462360538,54.4644730314983
42,1436462361264,46.4366740055324
43,1436462362076,57.9611972556795
44,1436462362810,53.2076025016517
45,1436462363562,51.9369126386577
46,1436462364346,43.2931727954834
47,1436462365105,56.3153838229266
48,1436462365730,58.8164228340654
49,1436462366402,46.7201640545702
50,1436462367134,47.5455099524293
51,1436462367884,44.7552453545071
52,1436462368606,52.6972931611947
53,1436462369264,35.633740343806
54,1436462370585,29.7935631368325
55,1436462371826,37.4567575865094
56,1436462372564,46.7834962932471
57,1436462373295,42.5810610502107
58,1436462374044,40.5692917169274
59,1436462374884,36.9935862395788
60,1436462376660,64.2442712268726
61,1436462377438,38.7700751592296
62,1436462378143,49.9427881710427
63,1436462378872,45.9463065381769
64,1436462379588,43.9076580022258
65,1436462380322,36.8628017932929
66,1436462381034,42.2729234625705
67,1436462381666,34.5468041855711
68,1436462382420,46.4391359026339
69,1436462383174,74.3157163645261
70,1436462383908,45.1127220410598
71,1436462384623,41.3197655890799
72,1436462385340,37.5924373113826
73,1436462386084,45.3601448360176
74,1436462386781,36.285590478768
75,1436462388401,31.8015127374899
76,1436462389091,34.8978900144627
77,1436462389827,32.7797777627421
78,1436462390543,37.537973004481
79,1436462391267,44.1351933645384
80,1436462391892,33.1130014507332
81,1436462392567,36.9392321760208
82,1436462393277,36.7683807151602
83,1436462393923,42.3793579997727
84,1436462394614,42.5010344056301
85,1436462395299,39.0569355028801
86,1436462395889,41.2377170363169
87,1436462396587,35.5065122733568
88,1436462397333,48.8988536327452
89,1436462398055,34.4513715334819
90,1436462398791,36.0815950035995
91,1436462399520,30.5339648300508
92,1436462400141,52.1762906466522
93,1436462400962,43.3272448992608
94,1436462401588,44.992608509885
95,1436462402267,47.3951972765323
96,1436462402890,44.5473814925636
97,1436462403437,41.467485799039
98,1436462403997,45.4048750845911
99,1436462404557,42.0274250588368
100,1436462405159,38.9763415520254
101,1436462405883,45.0360621408741
102,1436462406620,49.1860103925659
103,1436462407245,52.6437248821438
104,1436462407880,37.2542591046391
105,1436462408447,43.7597827509167
106,1436462409022,36.4583462463394
107,1436462409586,39.3501888000831
108,1436462410951,36.0633856161266
109,1436462411696,40.4103594093248
110,1436462412349,66.2503450094557
111,1436462412924,67.2112640608839
112,1436462413572,65.2583209169073
113,1436462414172,40.3492616051091
114,1436462414753,35.0821678943964
115,1436462415324,56.9785274527476
116,1436462415902,65.693066132809
117,1436462416486,64.3733844041471
118,1436462417176,44.7942710549693
119,1436462418095,40.0307100385163
120,1436462418648,39.4828081551976
121,1436462419200,59.8133055442633
122,1436462419770,56.137156521098
123,1436462420993,45.2289053778625
124,1436462421719,50.8744160316078
125,1436462422455,31.2443813234562
126,1436462423214,43.9024684031724
127,1436462424091,56.7420087007503
128,1436462424655,53.9012671486562
129,1436462425202,45.8635627956222
130,1436462425752,51.5777034976126
131,1436462426347,46.2089962903603
132,1436462426991,53.3278826286713
133,1436462427733,41.502887434794
134,1436462428496,47.7131366594699
135,1436462430167,36.6448923401298
136,1436462430759,46.6255496129172
137,1436462432191,45.3377377851899
138,1436462432932,56.0132032734962
139,1436462433663,58.442276816541
140,1436462434384,46.4387352736247
141,1436462435090,45.404785788072
142,1436462435721,41.6879316853249
143,1436462436345,32.8097292378525
144,1436462436950,48.0987371028029
145,1436462437671,36.4694958280906
146,1436462438418,45.9975192444038
147,1436462439157,48.1849465384439
148,1436462439847,46.1281470639127
149,1436462440432,43.4425788704066
150,1436462441098,37.405634497269
151,1436462441812,38.5600087764336
152,1436462442439,41.0162944283265
153,1436462443152,40.9136106202431
154,1436462443878,39.8056100901673
155,1436462444620,37.1525733095739
156,1436462445349,43.7503350486833
157,1436462445977,68.3995613500614
158,1436462446742,64.1034110736072
159,1436462447471,62.7305775065501
160,1436462448050,62.7282727793979
161,1436462448751,44.2498791450748
162,1436462449493,51.855582568642
163,1436462450263,44.8552018449033
164,1436462450935,38.7328617490922
165,1436462451651,44.9865178118057
166,1436462452481,49.6766882752062
167,1436462453203,51.4242063165326
168,1436462453851,68.0086287831773
169,1436462454553,63.1701623679292
170,1436462455282,69.7837998358165
171,1436462455996,44.4736744071638
172,1436462456647,61.9998433431931
173,1436462457479,60.4778359352996
174,1436462458213,72.382712101033
175,1436462458877,46.9807729317681
176,1436462459454,40.4963990059051
177,1436462460065,68.2565696681972
178,1436462460732,66.4333242788445
179,1436462461484,47.6203548718778
180,1436462462236,52.9618820148529
181,1436462462960,44.3789283328954
182,1436462463654,37.3315929713827
183,1436462464372,35.1307529410367
184,1436462465125,39.0898641936128
185,1436462465800,50.8004792392853
186,1436462466383,43.3971194623262
187,1436462467059,44.8448599138195
188,1436462467761,37.1936260094101
189,1436462468495,41.9814079957586
190,1436462469249,43.4744716049279
191,1436462469925,44.7589002962387
192,1436462470678,41.0812740864596
193,1436462471413,40.2758810644271
194,1436462472159,41.0866537017868
195,1436462472761,33.2672838940486
196,1436462473446,50.4475946917457
197,1436462474178,38.5722502381322
198,1436462474903,46.6608498609086
199,1436462475663,40.6128434231147
200,1436462476400,43.109217514651
201,1436462477032,38.8473634119956
202,1436462477692,40.0303836250207
203,1436462478333,43.8912017892792
204,1436462479051,43.8652876721947
205,1436462479769,43.3503678874834
206,1436462480448,46.163506070982
207,1436462481118,39.9185384715897
208,1436462481857,44.0505284989583
209,1436462482671,39.4677705877192
210,1436462483402,39.7313292283616
211,1436462484114,36.3020778441415
212,1436462484778,47.8550092841565
213,1436462485511,40.7403608868526
214,1436462486239,41.7472682634794
215,1436462488197,37.877777676313
216,1436462488879,41.4633627413115
217,1436462489604,40.1652423487936
218,1436462490223,47.2376901712436
219,1436462490978,37.3982279607998
220,1436462491706,43.4887365701895
221,1436462492515,39.3412371366118
222,1436462493228,41.8909370247997
223,1436462493931,40.6022431789724
224,1436462494623,38.0155705461927
225,1436462495324,35.1938389766649
226,1436462495898,40.4491687407882
227,1436462496525,34.9468120038559
228,1436462497266,47.5014608424182
229,1436462498004,38.4998016541059
230,1436462498730,37.0635455950899
231,1436462499483,38.8040427074184
232,1436462500241,38.2016046881209
233,1436462500887,41.0094481408494
234,1436462501555,28.6638466344239
235,1436462502285,41.3630623673818
236,1436462503040,36.5762506318349
237,1436462503770,47.5457737572767
238,1436462504492,38.5678342313204
239,1436462505238,35.6173888276176
240,1436462505951,40.1632211430814
241,1436462506614,39.8341609050311
242,1436462507177,40.8650809446717
243,1436462507792,36.6771402599791
244,1436462508520,50.1013170045798
245,1436462509254,46.5673596084942
246,1436462510006,50.1929206112074
247,1436462510720,40.5492791419617
248,1436462511351,41.2447771892778
249,1436462512033,40.9655794374743
250,1436462512741,35.7489525885651
251,1436462513426,36.6530773700321
252,1436462514161,38.918590475982
253,1436462514882,47.184996676211
254,1436462515632,39.9783309597812
255,1436462516363,35.9863200966147
256,1436462517094,51.4723668040117
257,1436462517715,47.3090225547586
258,1436462518351,52.0239186574456
259,1436462518942,43.1302371729706
260,1436462519646,40.2537630816356
261,1436462520377,41.9033270678987
262,1436462521142,39.0942653811344
263,1436462521729,43.1218215431473
264,1436462522435,35.591372864068
265,1436462523159,48.9629175057856
266,1436462523909,37.7011008855875
267,1436462524626,39.3014924882519
268,1436462525366,44.1520130618576
269,1436462526082,42.0306248516507
270,1436462526802,43.0123086745525
271,1436462527409,39.2445364796976
272,1436462528058,37.3572204174532
273,1436462528797,37.1250798213079
274,1436462529521,39.4752969826527
275,1436462530246,45.3875755782095
276,1436462531002,42.7381038473545
277,1436462531713,40.8175442329064
278,1436462532396,40.1273522045392
279,1436462532975,44.0665391833962
280,1436462533669,71.6428835925584
281,1436462534420,56.9042240036933
282,1436462535155,55.6136473217462
283,1436462535861,45.1417896664463
284,1436462536587,40.8779821261252
285,1436462537317,49.9460789926428
286,1436462537925,53.6461337346717
287,1436462538598,47.6960508619957
288,1436462539329,46.5316816926831
289,1436462540115,37.978363278377
290,1436462540832,52.8290723705435
291,1436462541562,47.0687918818043
292,1436462542352,43.1684790453959
293,1436462543054,58.024758391824
294,1436462543725,39.8392426019293
295,1436462545379,46.1088352533191
296,1436462546047,36.7842082205682
297,1436462546742,42.3634241859957
298,1436462547488,47.97130688966
299,1436462548163,43.898781263945
300,1436462548840,36.3938302405599
301,1436462549594,42.4375075126465
302,1436462550219,36.7048204391103
303,1436462550880,42.8156909758868
304,1436462551591,39.3111115762164
305,1436462552357,38.1211900048286
306,1436462553091,37.2321312309826
307,1436462553794,42.462397625454
308,1436462554407,38.1838462137361
309,1436462555103,38.9612477685639
310,1436462555858,36.747360308528
311,1436462556525,42.1011673067921
312,1436462557377,43.0371335081733
313,1436462558069,37.4869791939142
314,1436462558694,42.8600614679276
315,1436462559426,42.5597863756933
316,1436462560174,43.7999046442647
317,1436462560839,41.0583508533993
318,1436462561461,39.6757794896091
319,1436462562162,46.8256045841259
320,1436462562963,43.0820706100562
321,1436462563697,45.5075168383473
322,1436462564435,37.9513617297403
323,1436462565167,44.4501306840525
324,1436462565896,41.9440008291377
325,1436462566614,40.23811967478
326,1436462567369,50.0834662835363
327,1436462567997,43.63923507689
328,1436462568719,45.7782849588778
329,1436462569406,57.0284300484043
330,1436462570084,41.3441886036894
331,1436462570816,48.0204749868108
332,1436462571543,44.7418357651924
333,1436462572290,42.7084042806708
334,1436462572930,42.1470239649526
335,1436462573603,37.5947321432111
336,1436462574919,43.1614263576089
337,1436462575660,43.3807986353264
338,1436462576374,40.6390677289182
339,1436462577101,45.438550701679
340,1436462577807,38.1769464865089
341,1436462578505,31.2991883774909
342,1436462579112,36.1569113718077
343,1436462579847,61.5472850836465
344,1436462580548,48.7854739794118
345,1436462581179,48.9988550258312
346,1436462581836,46.1473866415441
347,1436462582631,42.073720379512
348,1436462583207,67.6468214482054
349,1436462584714,49.5231998576995
350,1436462585439,37.9125683742388
351,1436462586177,44.7691491832441
352,1436462586910,50.4185018326947
353,1436462587629,36.7006442130224
354,1436462588369,70.8892693393271
355,1436462589077,65.493660827221
356,1436462589754,62.3275770005613
357,1436462590506,42.3285659004295
358,1436462591239,38.9531518350946
359,1436462591971,47.47806943531
360,1436462592688,43.4240337434602
361,1436462593431,67.5966955727119
362,1436462594181,42.6640804138673
363,1436462594800,41.3326012465987
364,1436462595530,41.8451948206068
365,1436462596287,49.4277282828663
366,1436462597000,37.5786338733625
367,1436462597731,35.812482266027
368,1436462598469,62.1419090801708
369,1436462599205,39.7067559529992
370,1436462599790,30.6133429768007
371,1436462600484,34.7752011363731
372,1436462601174,38.9091101854529
373,1436462601844,72.0042833138975
374,1436462603646,59.2010810456128
375,1436462604254,47.2816946373978
376,1436462604815,47.8286941786949
377,1436462605477,56.2939311392246
378,1436462606219,55.2737724292648
379,1436462606957,47.9007346543204
380,1436462608456,67.2014191728207
381,1436462609081,36.1082410591897
382,1436462609705,37.0826370583802
383,1436462610353,39.3378482154248
384,1436462611117,43.3441732154685
385,1436462611840,37.2134989484623
386,1436462612559,42.6356106502449
387,1436462613149,38.9222428659859
388,1436462613744,35.2835866019421
389,1436462614363,41.1113940618026
390,1436462615048,40.2437668926068
391,1436462615778,41.885199951136
392,1436462616348,41.8206052661722
393,1436462617036,33.5388406496945
394,1436462617763,40.9233661972981
395,1436462618494,36.2376521040792
396,1436462619202,45.9534843959442
397,1436462619840,45.254709768315
398,1436462620522,37.7627794624819
399,1436462621189,34.1755279490488
400,1436462621861,46.7197285591782
401,1436462622584,42.6064962349878
402,1436462623307,36.5247467850933
403,1436462623892,45.236705177696
404,1436462624593,43.6067379888759
405,1436462625327,40.2243994374444
406,1436462626061,42.8881076083282
407,1436462626807,35.6036661064353
408,1436462627590,45.0013326208691
409,1436462628255,41.2719511644399
410,1436462628966,40.4403030562585
411,1436462629678,39.4150626865048
412,1436462630339,34.5614451921943
413,1436462631102,38.8060866805136
414,1436462631875,32.6444257898601
415,1436462632557,37.6736737206087
416,1436462633180,47.7732118707363
417,1436462633826,41.3320688748524
418,1436462634496,44.7476278343142
419,1436462635221,42.4327980462134
420,1436462635902,40.9817772667802
421,1436462636644,41.5583485441009
422,1436462637445,45.5931581055666
423,1436462638168,39.464895289352
424,1436462639019,42.1554624879226
425,1436462639648,39.1651928739447
426,1436462640316,44.4999911319917
427,1436462641186,38.2890450651363
428,1436462641908,36.3182720413017
429,1436462642559,32.9180795012515
430,1436462643171,43.8308599360263
431,1436462643896,52.0056283521919
432,1436462644608,40.6984065539463
433,1436462645334,39.830430029786
434,1436462646073,59.7419566030088
435,1436462646816,39.2523196356858
436,1436462647517,41.4662208978489
437,1436462648217,46.1428394926459
438,1436462648950,38.8895466848909
439,1436462649666,54.7331029189189
440,1436462650387,40.8845538163973
441,1436462651020,33.8758567212597
442,1436462651717,41.0824527688714
443,1436462652538,29.1645455675392
444,1436462653156,42.6987277086766
445,1436462653860,41.440828696334
446,1436462654576,43.4062342513694
447,1436462655313,36.7321164807913
448,1436462656040,51.635732693089
449,1436462656726,35.3929856867567
450,1436462657523,38.3484523983303
451,1436462658214,48.2726415005126
452,1436462658846,35.9074755512377
453,1436462659506,65.919044142902
454,1436462661608,45.5407122700522
455,1436462662337,46.7151977876722
456,1436462663089,39.7621341006782
457,1436462663706,44.3085991955177
458,1436462664369,37.2519612941397
459,1436462665114,39.6557578280926
460,1436462665837,42.2563421563156
461,1436462666587,40.0101562724326
462,1436462667316,32.7274352363297
463,1436462668059,36.5133928534653
464,1436462668790,30.7143070488892
465,1436462669447,42.7625956147885
466,1436462670131,48.9701542903914
467,1436462670802,42.8052721197989
468,1436462671530,42.3253300722185
469,1436462672299,39.8144035607415
470,1436462673137,38.8740717573046
471,1436462673864,42.452407973403
472,1436462674488,43.1587289250483
473,1436462675074,51.6115873064123
474,1436462675687,44.1568279109286
475,1436462676318,46.661614553241
476,1436462676968,39.8948377303122
477,1436462677569,39.9203621559384
478,1436462678140,42.1605485057819
479,1436462678689,34.2037469123194
480,1436462679339,50.8226288681001
481,1436462680073,43.735947907819
482,1436462680654,43.1334818976361
483,1436462681222,34.2426489141987
484,1436462681771,43.2021569238954
485,1436462682342,35.8524211273306
486,1436462683561,39.5136220474721
487,1436462684314,33.8827256356911
488,1436462685073,48.8897932054823
489,1436462685706,41.0612921994878
490,1436462686304,45.5792187503316
491,1436462686967,41.7424371251345
492,1436462687555,37.8051103855052
493,1436462688138,39.9168394076081
494,1436462688720,38.686872054211
495,1436462689376,41.7629824856436
496,1436462690134,39.3630421955948
497,1436462690852,39.644508060445
498,1436462691400,39.5280353080895
499,1436462691955,37.1308109341795
500,1436462692530,37.8816973711023
501,1436462693111,34.1127844065704
502,1436462694815,36.8070677381846
503,1436462695459,35.1109849987551
504,1436462696145,47.9730554916155
505,1436462696888,40.7878427181982
506,1436462697708,32.707737853352
507,1436462698286,42.4570160980501
508,1436462698839,36.2986683724384
509,1436462699409,34.1090431724037
510,1436462699981,33.4287340737742
511,1436462700691,40.7410980965846
512,1436462701290,38.4592441531749
513,1436462701949,46.0012849517207
514,1436462702756,37.3717506439974
515,1436462703334,39.9366468521873
516,1436462703878,41.7634500962983
517,1436462704430,43.8051517040699
518,1436462704972,46.7879852752894
519,1436462706756,38.7611661331417
520,1436462707506,46.4105341659346
521,1436462708237,39.8550234015601
522,1436462708969,50.6039330176351
523,1436462709698,26.0578586593577
524,1436462710425,40.0334542437391
525,1436462711148,35.3425580125808
526,1436462711805,37.5405586001664
527,1436462712432,39.0541238285121
528,1436462713008,40.3908047226858
529,1436462713704,38.2877098043957
530,1436462714448,44.2657933324438
531,1436462715214,35.2986702080525
532,1436462715908,41.7517175773147
533,1436462716537,42.6284705755854
534,1436462717252,45.919742387736
535,1436462717990,39.4104981950107
536,1436462718623,42.9084122426785
537,1436462720029,41.2499757607901
538,1436462720747,38.7105600859077
539,1436462721478,46.9876230076278
540,1436462722219,37.7485154764454
541,1436462722861,41.2691580034617
542,1436462723542,41.7438245585306
543,1436462724164,43.8639641626168
544,1436462724854,43.7734476144518
545,1436462725578,46.0516000522672
546,1436462726316,47.0650513081579
547,1436462727000,49.8193097707034
548,1436462727810,42.1306428911684
549,1436462728534,44.269437090073
550,1436462729253,42.3121220885972
551,1436462729872,42.2653778360063
552,1436462730565,43.138546817754
553,1436462731300,45.2605059984014
554,1436462732020,68.4294804553743
555,1436462732704,38.1375893819196
556,1436462733397,39.6771842635117
557,1436462734150,69.4998717756803
558,1436462734813,67.9175949859472
559,1436462735402,49.6224990391973
560,1436462736089,71.0520359247195
561,1436462736836,43.8312251077774
562,1436462737586,59.6227743837622
563,1436462738375,62.786843949652
564,1436462739117,68.7949689485825
565,1436462739902,42.4442700834076
566,1436462740636,37.6616721701593
567,1436462741306,43.4292631412326
568,1436462742035,43.2025233730881
569,1436462742771,40.6131283261475
570,1436462743442,42.9479659684235
571,1436462744160,39.3514815115108
572,1436462744875,42.8683244957609
573,1436462745550,33.7193915824732
574,1436462746230,48.3389783553563
575,1436462746839,32.9426208047385
