id,attr_time,attr_light
1,1436380820028,0.0
2,1436380820049,0.0
3,1436380820067,0.0
4,1436380820090,0.0
5,1436380820108,0.0
6,1436380820128,0.0
7,1436380820148,0.0
8,1436380820168,0.0
9,1436380820188,0.0
10,1436380820208,0.0
11,1436380820227,0.0
12,1436380820247,0.0
13,1436380820268,0.0
14,1436380820288,0.0
15,1436380820310,0.0
16,1436380820329,0.0
17,1436380820349,0.0
18,1436380820370,0.0
19,1436380820442,0.0
20,1436380820443,0.0
21,1436380820444,0.0
22,1436380820451,0.0
23,1436380820469,0.0
24,1436380820492,0.0
25,1436380820507,0.0
26,1436380820538,0.0
27,1436380820547,0.0
28,1436380820569,0.0
29,1436380820588,0.0
30,1436380820637,0.0
31,1436380820638,0.0
32,1436380820647,0.0
33,1436380820667,0.0
34,1436380820688,0.0
35,1436380820708,0.0
36,1436380820729,0.0
37,1436380820748,0.0
38,1436380820771,0.0
39,1436380820789,0.0
40,1436380820811,0.0
41,1436380820831,0.0
42,1436380820850,0.0
43,1436380820868,0.0
44,1436380820891,0.0
45,1436380820908,0.0
46,1436380820928,0.0
47,1436380820948,0.0
48,1436380820973,0.0
49,1436380820988,0.0
50,1436380821014,0.0
51,1436380821029,0.0
52,1436380821050,0.0
53,1436380821074,0.0
54,1436380821095,0.0
55,1436380821250,0.0
56,1436380821251,0.0
57,1436380821252,0.0
58,1436380821253,0.0
59,1436380821254,0.0
60,1436380821255,0.0
61,1436380821256,0.0
62,1436380821257,0.0
63,1436380821319,0.0
64,1436380821320,0.0
65,1436380821321,0.0
66,1436380821341,0.0
67,1436380821351,0.0
68,1436380821377,0.0
69,1436380821388,0.0
70,1436380821408,0.0
71,1436380821428,0.0
72,1436380821451,0.0
73,1436380821468,0.0
74,1436380821489,0.0
75,1436380821511,0.0
76,1436380821529,0.0
77,1436380821549,0.0
78,1436380821568,0.0
79,1436380821590,0.0
80,1436380821608,0.0
81,1436380821628,0.0
82,1436380821648,0.0
83,1436380821683,0.0
84,1436380821687,0.0
85,1436380821708,0.0
86,1436380821734,0.0
87,1436380821753,0.0
88,1436380821770,0.0
89,1436380821788,0.0
90,1436380821809,0.0
91,1436380821828,0.0
92,1436380821851,0.0
93,1436380821895,0.0
94,1436380821896,0.0
95,1436380821913,0.0
96,1436380821931,0.0
97,1436380821948,0.0
98,1436380821970,0.0
99,1436380821989,0.0
100,1436380822009,0.0
101,1436380822028,0.0
102,1436380822053,0.0
103,1436380822070,0.0
104,1436380822091,0.0
105,1436380822109,0.0
106,1436380822131,0.0
107,1436380822152,0.0
108,1436380822171,0.0
109,1436380822193,0.0
110,1436380822211,0.0
111,1436380822231,0.0
112,1436380822252,0.0
113,1436380822273,0.0
114,1436380822291,0.0
115,1436380822310,0.0
116,1436380822330,0.0
117,1436380822350,0.0
118,1436380822372,0.0
119,1436380822393,0.0
120,1436380822413,0.0
121,1436380822433,0.0
122,1436380822450,0.0
123,1436380822473,0.0
124,1436380822490,0.0
125,1436380822514,0.0
126,1436380822532,0.0
127,1436380822580,0.0
128,1436380822581,0.0
129,1436380822589,0.0
130,1436380822611,0.0
131,1436380822632,0.0
132,1436380822651,0.0
133,1436380822669,0.0
134,1436380822690,0.0
135,1436380822715,0.0
136,1436380822734,0.0
137,1436380822752,0.0
138,1436380822769,0.0
139,1436380822793,0.0
140,1436380822812,0.0
141,1436380822831,0.0
142,1436380822853,0.0
143,1436380822870,0.0
144,1436380822893,0.0
145,1436380822913,0.0
146,1436380822934,0.0
147,1436380822954,0.0
148,1436380822972,0.0
149,1436380822992,0.0
150,1436380823013,0.0
151,1436380823034,0.0
152,1436380823053,0.0
153,1436380823074,0.0
154,1436380823093,0.0
155,1436380823113,0.0
156,1436380823134,0.0
157,1436380823153,0.0
158,1436380823175,0.0
159,1436380823193,0.0
160,1436380823212,0.0
161,1436380823233,0.0
162,1436380823295,0.0
163,1436380823296,0.0
164,1436380823297,0.0
165,1436380823317,0.0
166,1436380823331,0.0
167,1436380823352,0.0
168,1436380823370,0.0
169,1436380823390,0.0
170,1436380823413,0.0
171,1436380823431,0.0
172,1436380823453,0.0
173,1436380823472,0.0
174,1436380823491,0.0
175,1436380823511,0.0
176,1436380823534,0.0
177,1436380823554,0.0
178,1436380823577,0.0
179,1436380823593,0.0
180,1436380823614,0.0
181,1436380823634,0.0
182,1436380823654,0.0
183,1436380823673,0.0
184,1436380823694,0.0
185,1436380823711,0.0
186,1436380823733,0.0
187,1436380823753,0.0
188,1436380823774,0.0
189,1436380823791,0.0
190,1436380823814,0.0
191,1436380823831,0.0
192,1436380823854,0.0
193,1436380823874,0.0
194,1436380823896,0.0
195,1436380823914,0.0
196,1436380823934,0.0
197,1436380823955,0.0
198,1436380823974,0.0
199,1436380824046,0.0
200,1436380824047,0.0
201,1436380824054,0.0
202,1436380824055,0.0
203,1436380824072,0.0
204,1436380824092,0.0
205,1436380824128,0.0
206,1436380824143,0.0
207,1436380824151,0.0
208,1436380824172,0.0
209,1436380824192,0.0
210,1436380824214,0.0
211,1436380824237,0.0
212,1436380824254,0.0
213,1436380824271,0.0
214,1436380824294,0.0
215,1436380824315,0.0
216,1436380824334,0.0
217,1436380824354,0.0
218,1436380824374,0.0
219,1436380824394,0.0
220,1436380824413,0.0
221,1436380824434,0.0
222,1436380824454,0.0
223,1436380824474,0.0
224,1436380824494,0.0
225,1436380824514,0.0
226,1436380824535,0.0
227,1436380824554,0.0
228,1436380824574,0.0
229,1436380824592,0.0
230,1436380824615,0.0
231,1436380824634,0.0
232,1436380824653,0.0
233,1436380824681,0.0
234,1436380824753,0.0
235,1436380824754,0.0
236,1436380824755,0.0
237,1436380824756,0.0
238,1436380824774,0.0
239,1436380824791,0.0
240,1436380824814,0.0
241,1436380824833,0.0
242,1436380824852,0.0
243,1436380824875,0.0
244,1436380824893,0.0
245,1436380824917,0.0
246,1436380824935,0.0
247,1436380824955,0.0
248,1436380824975,0.0
249,1436380824995,0.0
250,1436380825015,0.0
251,1436380825034,0.0
252,1436380825054,0.0
253,1436380825075,0.0
254,1436380825095,0.0
255,1436380825115,0.0
256,1436380825138,0.0
257,1436380825154,0.0
258,1436380825175,0.0
259,1436380825194,0.0
260,1436380825213,0.0
261,1436380825233,0.0
262,1436380825255,0.0
263,1436380825275,0.0
264,1436380825295,0.0
265,1436380825316,0.0
266,1436380825334,0.0
267,1436380825354,0.0
268,1436380825374,0.0
269,1436380825395,0.0
270,1436380825414,0.0
271,1436380825485,0.0
272,1436380825486,0.0
273,1436380825487,0.0
274,1436380825496,0.0
275,1436380825512,0.0
276,1436380825563,0.0
277,1436380825564,0.0
278,1436380825608,0.0
279,1436380825609,0.0
280,1436380825646,0.0
281,1436380825647,0.0
282,1436380825653,0.0
283,1436380825677,0.0
284,1436380825695,0.0
285,1436380825714,0.0
286,1436380825736,0.0
287,1436380825756,0.0
288,1436380825776,0.0
289,1436380825796,0.0
290,1436380825816,0.0
291,1436380825836,0.0
292,1436380825857,0.0
293,1436380825876,0.0
294,1436380825896,0.0
295,1436380825916,0.0
296,1436380825935,0.0
297,1436380825956,0.0
298,1436380825976,0.0
299,1436380825996,0.0
300,1436380826016,0.0
301,1436380826036,0.0
302,1436380826055,0.0
303,1436380826076,0.0
304,1436380826096,0.0
305,1436380826115,0.0
306,1436380826136,0.0
307,1436380826156,0.0
308,1436380826175,0.0
309,1436380826201,0.0
310,1436380826280,0.0
311,1436380826281,0.0
312,1436380826282,0.0
313,1436380826283,0.0
314,1436380826293,0.0
315,1436380826325,0.0
316,1436380826333,0.0
317,1436380826355,0.0
318,1436380826375,0.0
319,1436380826394,0.0
320,1436380826419,0.0
321,1436380826434,0.0
322,1436380826457,0.0
323,1436380826474,0.0
324,1436380826538,0.0
325,1436380826539,0.0
326,1436380826540,0.0
327,1436380826553,0.0
328,1436380826573,0.0
329,1436380826593,0.0
330,1436380826614,0.0
331,1436380826634,0.0
332,1436380826653,0.0
333,1436380826674,0.0
334,1436380826693,0.0
335,1436380826714,0.0
336,1436380826734,0.0
337,1436380826753,0.0
338,1436380826773,0.0
339,1436380826793,0.0
340,1436380826814,0.0
341,1436380826834,0.0
342,1436380826853,0.0
343,1436380826873,0.0
344,1436380826893,0.0
345,1436380826917,0.0
346,1436380826961,0.0
347,1436380826962,0.0
348,1436380826981,0.0
349,1436380827003,0.0
350,1436380827014,0.0
351,1436380827034,0.0
352,1436380827054,0.0
353,1436380827074,0.0
354,1436380827095,0.0
355,1436380827117,0.0
356,1436380827139,0.0
357,1436380827152,0.0
358,1436380827175,0.0
359,1436380827194,0.0
360,1436380827214,0.0
361,1436380827237,0.0
362,1436380827256,0.0
363,1436380827277,0.0
364,1436380827293,0.0
365,1436380827317,0.0
366,1436380827337,0.0
367,1436380827357,0.0
368,1436380827377,0.0
369,1436380827393,0.0
370,1436380827417,0.0
371,1436380827438,0.0
372,1436380827458,0.0
373,1436380827477,0.0
374,1436380827494,0.0
375,1436380827512,0.0
376,1436380827533,0.0
377,1436380827552,0.0
378,1436380827578,0.0
379,1436380827596,0.0
380,1436380827617,0.0
381,1436380827636,0.0
382,1436380827664,0.0
383,1436380827723,0.0
384,1436380827724,0.0
385,1436380827725,0.0
386,1436380827734,0.0
387,1436380827754,0.0
388,1436380827780,0.0
389,1436380827797,0.0
390,1436380827815,0.0
391,1436380827835,0.0
392,1436380827854,0.0
393,1436380827877,0.0
394,1436380827901,0.0
395,1436380827915,0.0
396,1436380827936,0.0
397,1436380827958,0.0
398,1436380827978,0.0
399,1436380827998,0.0
400,1436380828018,0.0
401,1436380828038,0.0
402,1436380828054,0.0
403,1436380828076,0.0
404,1436380828096,0.0
405,1436380828116,0.0
406,1436380828142,0.0
407,1436380828156,0.0
408,1436380828186,0.0
409,1436380828196,0.0
410,1436380828217,0.0
411,1436380828237,0.0
412,1436380828257,0.0
413,1436380828277,0.0
414,1436380828297,0.0
415,1436380828317,0.0
416,1436380828338,0.0
417,1436380828357,0.0
418,1436380828375,0.0
419,1436380828395,0.0
420,1436380828479,0.0
421,1436380828480,0.0
422,1436380828481,0.0
423,1436380828482,0.0
424,1436380828495,0.0
425,1436380828516,0.0
426,1436380828536,0.0
427,1436380828555,0.0
428,1436380828575,0.0
429,1436380828598,0.0
430,1436380828619,0.0
431,1436380828636,0.0
432,1436380828658,0.0
433,1436380828703,0.0
434,1436380828704,0.0
435,1436380828719,0.0
436,1436380828738,0.0
437,1436380828758,0.0
438,1436380828778,0.0
439,1436380828798,0.0
440,1436380828820,0.0
441,1436380828838,0.0
442,1436380828856,0.0
443,1436380828878,0.0
444,1436380828898,0.0
445,1436380828919,0.0
446,1436380828938,0.0
447,1436380828958,0.0
448,1436380828979,0.0
449,1436380829005,0.0
450,1436380829019,0.0
451,1436380829038,0.0
452,1436380829058,0.0
453,1436380829078,0.0
454,1436380829096,0.0
455,1436380829116,0.0
456,1436380829183,0.0
457,1436380829184,0.0
458,1436380829199,0.0
459,1436380829200,0.0
460,1436380829216,0.0
461,1436380829241,0.0
462,1436380829256,0.0
463,1436380829307,0.0
464,1436380829308,0.0
465,1436380829318,0.0
466,1436380829337,0.0
467,1436380829357,0.0
468,1436380829379,0.0
469,1436380829397,0.0
470,1436380829419,0.0
471,1436380829436,0.0
472,1436380829458,0.0
473,1436380829479,0.0
474,1436380829499,0.0
475,1436380829519,0.0
476,1436380829536,0.0
477,1436380829558,0.0
478,1436380829578,0.0
479,1436380829599,0.0
480,1436380829616,0.0
481,1436380829637,0.0
482,1436380829656,0.0
483,1436380829676,0.0
484,1436380829696,0.0
485,1436380829718,0.0
486,1436380829740,0.0
487,1436380829757,0.0
488,1436380829779,0.0
489,1436380829798,0.0
490,1436380829818,0.0
491,1436380829847,0.0
492,1436380829904,0.0
493,1436380829906,0.0
494,1436380829907,0.0
495,1436380829919,0.0
496,1436380829938,0.0
497,1436380829967,0.0
498,1436380829978,0.0
499,1436380829996,0.0
500,1436380830017,0.0
501,1436380830040,0.0
502,1436380830060,0.0
503,1436380830077,0.0
504,1436380830097,0.0
505,1436380830118,0.0
506,1436380830140,0.0
507,1436380830158,0.0
508,1436380830179,0.0
509,1436380830200,0.0
510,1436380830218,0.0
511,1436380830238,0.0
512,1436380830258,0.0
513,1436380830278,0.0
514,1436380830297,0.0
515,1436380830318,0.0
516,1436380830339,0.0
517,1436380830357,0.0
518,1436380830378,0.0
519,1436380830398,0.0
520,1436380830420,0.0
521,1436380830438,0.0
522,1436380830457,0.0
523,1436380830479,0.0
524,1436380830498,0.0
525,1436380830520,0.0
526,1436380830538,0.0
527,1436380830558,0.0
528,1436380830578,0.0
529,1436380830604,0.0
530,1436380830665,0.0
531,1436380830666,1.0
532,1436380830667,1.0
533,1436380830687,0.0
534,1436380830697,0.0
535,1436380830722,0.0
536,1436380830737,0.0
537,1436380830757,0.0
538,1436380830779,0.0
539,1436380830799,0.0
540,1436380830819,0.0
541,1436380830838,0.0
542,1436380830858,0.0
543,1436380830879,0.0
544,1436380830900,0.0
545,1436380830920,0.0
546,1436380830940,0.0
547,1436380830963,0.0
548,1436380830980,0.0
549,1436380830997,0.0
550,1436380831019,0.0
551,1436380831037,0.0
552,1436380831071,0.0
553,1436380831078,0.0
554,1436380831100,0.0
555,1436380831121,0.0
556,1436380831140,0.0
557,1436380831157,0.0
558,1436380831180,0.0
559,1436380831201,0.0
560,1436380831230,0.0
561,1436380831240,0.0
562,1436380831261,0.0
563,1436380831278,0.0
564,1436380831303,0.0
565,1436380831328,0.0
566,1436380831389,0.0
567,1436380831390,0.0
568,1436380831391,0.0
569,1436380831407,0.0
570,1436380831418,0.0
571,1436380831438,0.0
572,1436380831457,0.0
573,1436380831479,0.0
574,1436380831503,0.0
575,1436380831518,0.0
576,1436380831538,0.0
577,1436380831559,0.0
578,1436380831582,0.0
579,1436380831600,0.0
580,1436380831619,0.0
581,1436380831638,0.0
582,1436380831659,0.0
583,1436380831683,0.0
584,1436380831700,0.0
585,1436380831721,0.0
586,1436380831741,0.0
587,1436380831761,0.0
588,1436380831785,0.0
589,1436380831799,0.0
590,1436380831821,0.0
591,1436380831839,0.0
592,1436380831861,0.0
593,1436380831881,0.0
594,1436380831899,0.0
595,1436380831919,0.0
596,1436380831939,0.0
597,1436380831958,0.0
598,1436380831981,0.0
599,1436380832011,0.0
600,1436380832020,0.0
601,1436380832122,0.0
602,1436380832123,0.0
603,1436380832124,0.0
604,1436380832125,0.0
605,1436380832126,0.0
606,1436380832138,0.0
607,1436380832160,0.0
608,1436380832178,0.0
609,1436380832198,0.0
610,1436380832224,0.0
611,1436380832240,0.0
612,1436380832260,0.0
613,1436380832279,0.0
614,1436380832301,0.0
615,1436380832321,0.0
616,1436380832340,0.0
617,1436380832362,0.0
618,1436380832379,0.0
619,1436380832399,0.0
620,1436380832421,0.0
621,1436380832442,0.0
622,1436380832461,0.0
623,1436380832480,0.0
624,1436380832500,0.0
625,1436380832521,0.0
626,1436380832543,0.0
627,1436380832559,0.0
628,1436380832579,0.0
629,1436380832600,0.0
630,1436380832626,0.0
631,1436380832641,0.0
632,1436380832661,0.0
633,1436380832679,0.0
634,1436380832717,0.0
635,1436380832719,0.0
636,1436380832739,0.0
637,1436380832759,0.0
638,1436380832779,0.0
639,1436380832820,0.0
640,1436380832821,0.0
641,1436380832839,0.0
642,1436380832859,0.0
643,1436380832879,0.0
644,1436380832900,0.0
645,1436380832919,0.0
646,1436380832956,0.0
647,1436380832961,0.0
648,1436380832988,0.0
649,1436380833003,0.0
650,1436380833025,0.0
651,1436380833041,0.0
652,1436380833062,0.0
653,1436380833082,0.0
654,1436380833103,0.0
655,1436380833119,0.0
656,1436380833142,0.0
657,1436380833163,0.0
658,1436380833182,0.0
659,1436380833203,0.0
660,1436380833222,0.0
661,1436380833240,0.0
662,1436380833261,0.0
663,1436380833281,0.0
664,1436380833300,0.0
665,1436380833321,0.0
666,1436380833340,0.0
667,1436380833362,0.0
668,1436380833382,0.0
669,1436380833403,0.0
670,1436380833423,0.0
671,1436380833440,0.0
672,1436380833460,0.0
673,1436380833480,0.0
674,1436380833503,0.0
675,1436380833519,0.0
676,1436380833551,0.0
677,1436380833566,0.0
678,1436380833585,0.0
679,1436380833599,0.0
680,1436380833623,0.0
681,1436380833640,0.0
682,1436380833660,0.0
683,1436380833682,0.0
684,1436380833703,0.0
685,1436380833724,0.0
686,1436380833743,0.0
687,1436380833784,0.0
688,1436380833785,0.0
689,1436380833801,0.0
690,1436380833830,0.0
691,1436380833843,0.0
692,1436380833860,0.0
693,1436380833881,0.0
694,1436380833900,0.0
695,1436380833920,0.0
696,1436380833941,0.0
697,1436380833961,0.0
698,1436380833980,0.0
699,1436380834001,0.0
700,1436380834021,0.0
701,1436380834041,0.0
702,1436380834061,0.0
703,1436380834082,0.0
704,1436380834100,0.0
705,1436380834121,0.0
706,1436380834141,0.0
707,1436380834163,0.0
708,1436380834181,0.0
709,1436380834255,0.0
710,1436380834256,0.0
711,1436380834257,0.0
712,1436380834261,0.0
713,1436380834285,0.0
714,1436380834300,0.0
715,1436380834320,0.0
716,1436380834345,0.0
717,1436380834361,0.0
718,1436380834382,0.0
719,1436380834407,0.0
720,1436380834422,0.0
721,1436380834441,0.0
722,1436380834463,0.0
723,1436380834483,0.0
724,1436380834503,0.0
725,1436380834524,0.0
726,1436380834543,0.0
727,1436380834563,0.0
728,1436380834583,0.0
729,1436380834603,0.0
730,1436380834625,0.0
731,1436380834642,0.0
732,1436380834663,0.0
733,1436380834683,0.0
734,1436380834703,0.0
735,1436380834723,0.0
736,1436380834743,0.0
737,1436380834763,0.0
738,1436380834783,0.0
739,1436380834803,0.0
740,1436380834824,0.0
741,1436380834844,0.0
742,1436380834864,0.0
743,1436380834881,0.0
744,1436380834902,0.0
745,1436380834972,0.0
746,1436380834982,0.0
747,1436380834998,0.0
748,1436380835002,0.0
749,1436380835003,0.0
750,1436380835026,0.0
751,1436380835045,0.0
752,1436380835066,0.0
753,1436380835081,0.0
754,1436380835108,0.0
755,1436380835121,0.0
756,1436380835143,0.0
757,1436380835167,0.0
758,1436380835181,0.0
759,1436380835204,0.0
760,1436380835224,0.0
761,1436380835244,0.0
762,1436380835265,0.0
763,1436380835284,0.0
764,1436380835304,0.0
765,1436380835325,0.0
766,1436380835345,0.0
767,1436380835361,0.0
768,1436380835385,0.0
769,1436380835402,0.0
770,1436380835424,0.0
771,1436380835442,0.0
772,1436380835462,0.0
773,1436380835481,0.0
774,1436380835504,0.0
775,1436380835524,0.0
776,1436380835544,0.0
777,1436380835563,0.0
778,1436380835581,0.0
779,1436380835615,0.0
780,1436380835625,0.0
781,1436380835644,0.0
782,1436380835726,0.0
783,1436380835727,0.0
784,1436380835728,0.0
785,1436380835729,0.0
786,1436380835746,0.0
787,1436380835763,0.0
788,1436380835786,0.0
789,1436380835803,0.0
790,1436380835822,0.0
791,1436380835844,0.0
792,1436380835864,0.0
793,1436380835884,0.0
794,1436380835902,0.0
795,1436380835925,0.0
796,1436380835942,0.0
797,1436380835964,0.0
798,1436380835986,0.0
799,1436380836004,0.0
800,1436380836022,0.0
801,1436380836044,0.0
802,1436380836062,0.0
803,1436380836086,0.0
804,1436380836105,0.0
805,1436380836124,0.0
806,1436380836145,0.0
807,1436380836164,0.0
808,1436380836184,0.0
809,1436380836205,0.0
810,1436380836225,0.0
811,1436380836245,0.0
812,1436380836265,0.0
813,1436380836285,0.0
814,1436380836303,0.0
815,1436380836328,0.0
816,1436380836344,0.0
817,1436380836364,0.0
818,1436380836396,0.0
819,1436380836447,0.0
820,1436380836457,0.0
821,1436380836458,0.0
822,1436380836465,0.0
823,1436380836486,0.0
824,1436380836503,0.0
825,1436380836523,0.0
826,1436380836548,0.0
827,1436380836564,0.0
828,1436380836584,0.0
829,1436380836608,0.0
830,1436380836623,0.0
831,1436380836650,0.0
832,1436380836665,0.0
833,1436380836685,0.0
834,1436380836704,0.0
835,1436380836725,0.0
836,1436380836743,0.0
837,1436380836766,0.0
838,1436380836786,0.0
839,1436380836802,0.0
840,1436380836827,0.0
841,1436380836843,0.0
842,1436380836866,0.0
843,1436380836886,0.0
844,1436380836906,0.0
845,1436380836926,0.0
846,1436380836946,0.0
847,1436380836965,0.0
848,1436380836986,0.0
849,1436380837005,0.0
850,1436380837027,0.0
851,1436380837049,0.0
852,1436380837064,0.0
853,1436380837086,0.0
854,1436380837106,0.0
855,1436380837171,0.0
856,1436380837172,0.0
857,1436380837178,0.0
858,1436380837183,0.0
859,1436380837209,0.0
860,1436380837225,0.0
861,1436380837257,0.0
862,1436380837264,0.0
863,1436380837285,0.0
864,1436380837305,0.0
865,1436380837324,0.0
866,1436380837344,0.0
867,1436380837364,0.0
868,1436380837386,0.0
869,1436380837406,0.0
870,1436380837426,0.0
871,1436380837446,0.0
872,1436380837464,0.0
873,1436380837486,0.0
874,1436380837507,0.0
875,1436380837526,0.0
876,1436380837552,0.0
877,1436380837567,0.0
878,1436380837587,0.0
879,1436380837605,0.0
880,1436380837627,0.0
881,1436380837648,0.0
882,1436380837665,0.0
883,1436380837686,0.0
884,1436380837707,0.0
885,1436380837738,0.0
886,1436380837761,0.0
887,1436380837765,0.0
888,1436380837784,0.0
889,1436380837804,0.0
890,1436380837823,0.0
891,1436380837857,0.0
892,1436380837867,0.0
893,1436380837884,0.0
894,1436380837905,0.0
895,1436380837924,0.0
896,1436380837944,0.0
897,1436380837998,0.0
898,1436380837999,0.0
899,1436380838013,0.0
900,1436380838028,0.0
901,1436380838044,0.0
902,1436380838064,0.0
903,1436380838084,0.0
904,1436380838113,0.0
905,1436380838124,0.0
906,1436380838145,0.0
907,1436380838164,0.0
908,1436380838182,0.0
909,1436380838204,0.0
910,1436380838224,0.0
911,1436380838248,0.0
912,1436380838263,0.0
