id,attr_time,attr_light
1,1436380820043,0.0
2,1436380820062,0.0
3,1436380820090,0.0
4,1436380820101,0.0
5,1436380820122,0.0
6,1436380820141,0.0
7,1436380820162,0.0
8,1436380820181,0.0
9,1436380820205,0.0
10,1436380820223,0.0
11,1436380820241,0.0
12,1436380820266,0.0
13,1436380820284,0.0
14,1436380820303,0.0
15,1436380820325,0.0
16,1436380820358,0.0
17,1436380820361,0.0
18,1436380820382,0.0
19,1436380820402,0.0
20,1436380820422,0.0
21,1436380820442,0.0
22,1436380820464,0.0
23,1436380820485,0.0
24,1436380820505,0.0
25,1436380820525,0.0
26,1436380820545,0.0
27,1436380820565,0.0
28,1436380820584,0.0
29,1436380820605,0.0
30,1436380820625,0.0
31,1436380820645,0.0
32,1436380820665,0.0
33,1436380820684,0.0
34,1436380820703,0.0
35,1436380820722,0.0
36,1436380820744,0.0
37,1436380820800,0.0
38,1436380820812,0.0
39,1436380820813,0.0
40,1436380820822,0.0
41,1436380820842,0.0
42,1436380820862,0.0
43,1436380820882,0.0
44,1436380820922,0.0
45,1436380820923,0.0
46,1436380820943,0.0
47,1436380820963,0.0
48,1436380820986,0.0
49,1436380821005,0.0
50,1436380821024,0.0
51,1436380821046,0.0
52,1436380821066,0.0
53,1436380821086,0.0
54,1436380821106,0.0
55,1436380821126,0.0
56,1436380821146,0.0
57,1436380821165,0.0
58,1436380821183,0.0
59,1436380821206,0.0
60,1436380821226,0.0
61,1436380821246,0.0
62,1436380821272,0.0
63,1436380821285,0.0
64,1436380821305,0.0
65,1436380821325,0.0
66,1436380821346,0.0
67,1436380821366,0.0
68,1436380821386,0.0
69,1436380821404,0.0
70,1436380821423,0.0
71,1436380821442,0.0
72,1436380821465,0.0
73,1436380821520,0.0
74,1436380821521,0.0
75,1436380821523,0.0
76,1436380821543,0.0
77,1436380821563,0.0
78,1436380821585,0.0
79,1436380821603,0.0
80,1436380821623,0.0
81,1436380821650,0.0
82,1436380821664,0.0
83,1436380821684,0.0
84,1436380821704,0.0
85,1436380821723,0.0
86,1436380821746,0.0
87,1436380821766,0.0
88,1436380821786,0.0
89,1436380821807,0.0
90,1436380821826,0.0
91,1436380821846,0.0
92,1436380821864,0.0
93,1436380821886,0.0
94,1436380821907,0.0
95,1436380821925,0.0
96,1436380821944,0.0
97,1436380821966,0.0
98,1436380821986,0.0
99,1436380822007,0.0
100,1436380822026,0.0
101,1436380822045,0.0
102,1436380822066,0.0
103,1436380822086,0.0
104,1436380822107,0.0
105,1436380822127,0.0
106,1436380822147,0.0
107,1436380822163,0.0
108,1436380822184,0.0
109,1436380822204,0.0
110,1436380822292,0.0
111,1436380822293,0.0
112,1436380822294,0.0
113,1436380822295,0.0
114,1436380822304,0.0
115,1436380822324,0.0
116,1436380822344,0.0
117,1436380822364,0.0
118,1436380822386,0.0
119,1436380822404,0.0
120,1436380822425,0.0
121,1436380822445,0.0
122,1436380822465,0.0
123,1436380822485,0.0
124,1436380822507,0.0
125,1436380822527,0.0
126,1436380822547,0.0
127,1436380822567,0.0
128,1436380822587,0.0
129,1436380822610,0.0
130,1436380822625,0.0
131,1436380822645,0.0
132,1436380822665,0.0
133,1436380822685,0.0
134,1436380822704,0.0
135,1436380822727,0.0
136,1436380822748,0.0
137,1436380822764,0.0
138,1436380822787,0.0
139,1436380822807,0.0
140,1436380822827,1.0
141,1436380822847,1.0
142,1436380822867,0.0
143,1436380822885,0.0
144,1436380822907,0.0
145,1436380822925,0.0
146,1436380823019,0.0
147,1436380823020,0.0
148,1436380823021,0.0
149,1436380823022,0.0
150,1436380823027,0.0
151,1436380823045,0.0
152,1436380823066,0.0
153,1436380823084,0.0
154,1436380823113,0.0
155,1436380823124,0.0
156,1436380823145,0.0
157,1436380823170,0.0
158,1436380823185,0.0
159,1436380823205,0.0
160,1436380823226,0.0
161,1436380823248,0.0
162,1436380823268,0.0
163,1436380823287,0.0
164,1436380823306,0.0
165,1436380823328,0.0
166,1436380823348,0.0
167,1436380823368,0.0
168,1436380823388,0.0
169,1436380823411,0.0
170,1436380823428,0.0
171,1436380823451,0.0
172,1436380823466,0.0
173,1436380823491,0.0
174,1436380823508,0.0
175,1436380823525,0.0
176,1436380823545,0.0
177,1436380823568,0.0
178,1436380823585,0.0
179,1436380823605,0.0
180,1436380823625,0.0
181,1436380823646,0.0
182,1436380823675,0.0
183,1436380823738,0.0
184,1436380823739,0.0
185,1436380823740,0.0
186,1436380823755,0.0
187,1436380823765,0.0
188,1436380823787,0.0
189,1436380823813,0.0
190,1436380823840,2.0
191,1436380823845,2.0
192,1436380823866,0.0
193,1436380823886,0.0
194,1436380823906,0.0
195,1436380823926,0.0
196,1436380823945,0.0
197,1436380823968,0.0
198,1436380823986,0.0
199,1436380824008,0.0
200,1436380824028,0.0
201,1436380824047,0.0
202,1436380824069,0.0
203,1436380824089,0.0
204,1436380824107,0.0
205,1436380824126,0.0
206,1436380824149,0.0
207,1436380824167,0.0
208,1436380824189,0.0
209,1436380824209,0.0
210,1436380824229,0.0
211,1436380824248,0.0
212,1436380824268,0.0
213,1436380824291,0.0
214,1436380824315,0.0
215,1436380824330,0.0
216,1436380824349,0.0
217,1436380824368,0.0
218,1436380824386,0.0
219,1436380824457,0.0
220,1436380824459,0.0
221,1436380824460,0.0
222,1436380824478,0.0
223,1436380824491,0.0
224,1436380824506,0.0
225,1436380824526,0.0
226,1436380824558,0.0
227,1436380824592,0.0
228,1436380824593,0.0
229,1436380824606,0.0
230,1436380824627,0.0
231,1436380824646,0.0
232,1436380824667,0.0
233,1436380824688,0.0
234,1436380824708,0.0
235,1436380824730,0.0
236,1436380824748,0.0
237,1436380824769,0.0
238,1436380824790,0.0
239,1436380824808,0.0
240,1436380824829,0.0
241,1436380824850,0.0
242,1436380824868,0.0
243,1436380824889,0.0
244,1436380824910,0.0
245,1436380824931,0.0
246,1436380824946,0.0
247,1436380824972,0.0
248,1436380824988,0.0
249,1436380825006,0.0
250,1436380825042,0.0
251,1436380825074,0.0
252,1436380825075,0.0
253,1436380825086,0.0
254,1436380825106,0.0
255,1436380825127,0.0
256,1436380825147,0.0
257,1436380825174,0.0
258,1436380825195,0.0
259,1436380825209,0.0
260,1436380825226,0.0
261,1436380825246,0.0
262,1436380825266,0.0
263,1436380825286,0.0
264,1436380825323,0.0
265,1436380825339,0.0
266,1436380825346,0.0
267,1436380825366,0.0
268,1436380825386,0.0
269,1436380825407,0.0
270,1436380825426,0.0
271,1436380825446,0.0
272,1436380825466,0.0
273,1436380825486,0.0
274,1436380825510,0.0
275,1436380825529,0.0
276,1436380825547,0.0
277,1436380825566,0.0
278,1436380825587,0.0
279,1436380825610,0.0
280,1436380825630,0.0
281,1436380825648,0.0
282,1436380825668,0.0
283,1436380825688,0.0
284,1436380825706,0.0
285,1436380825727,0.0
286,1436380825747,0.0
287,1436380825766,0.0
288,1436380825787,0.0
289,1436380825807,0.0
290,1436380825827,0.0
291,1436380825848,0.0
292,1436380825876,0.0
293,1436380825886,0.0
294,1436380825906,0.0
295,1436380825926,0.0
296,1436380825947,0.0
297,1436380825967,0.0
298,1436380825991,0.0
299,1436380826007,0.0
300,1436380826033,0.0
301,1436380826050,0.0
302,1436380826071,0.0
303,1436380826087,0.0
304,1436380826110,0.0
305,1436380826130,0.0
306,1436380826150,0.0
307,1436380826171,0.0
308,1436380826189,0.0
309,1436380826211,0.0
310,1436380826228,0.0
311,1436380826251,0.0
312,1436380826271,0.0
313,1436380826287,0.0
314,1436380826310,0.0
315,1436380826355,0.0
316,1436380826356,0.0
317,1436380826373,0.0
318,1436380826393,0.0
319,1436380826410,0.0
320,1436380826428,0.0
321,1436380826448,0.0
322,1436380826469,0.0
323,1436380826490,0.0
324,1436380826509,0.0
325,1436380826580,0.0
326,1436380826581,0.0
327,1436380826582,0.0
328,1436380826591,0.0
329,1436380826610,0.0
330,1436380826628,0.0
331,1436380826648,0.0
332,1436380826679,0.0
333,1436380826688,0.0
334,1436380826710,0.0
335,1436380826733,0.0
336,1436380826748,0.0
337,1436380826770,0.0
338,1436380826791,0.0
339,1436380826811,0.0
340,1436380826831,1.0
341,1436380826851,1.0
342,1436380826871,0.0
343,1436380826891,0.0
344,1436380826916,0.0
345,1436380826928,0.0
346,1436380826948,0.0
347,1436380826968,0.0
348,1436380826990,0.0
349,1436380827009,0.0
350,1436380827030,0.0
351,1436380827048,0.0
352,1436380827073,0.0
353,1436380827098,0.0
354,1436380827114,0.0
355,1436380827130,0.0
356,1436380827151,0.0
357,1436380827169,0.0
358,1436380827190,0.0
359,1436380827211,0.0
360,1436380827229,0.0
361,1436380827304,0.0
362,1436380827305,0.0
363,1436380827308,0.0
364,1436380827309,0.0
365,1436380827331,0.0
366,1436380827348,0.0
367,1436380827368,0.0
368,1436380827396,0.0
369,1436380827408,0.0
370,1436380827433,0.0
371,1436380827452,0.0
372,1436380827469,0.0
373,1436380827489,0.0
374,1436380827512,0.0
375,1436380827532,0.0
376,1436380827552,0.0
377,1436380827572,0.0
378,1436380827592,0.0
379,1436380827612,0.0
380,1436380827632,0.0
381,1436380827652,0.0
382,1436380827671,0.0
383,1436380827692,0.0
384,1436380827712,0.0
385,1436380827728,0.0
386,1436380827748,0.0
387,1436380827771,0.0
388,1436380827794,0.0
389,1436380827815,0.0
390,1436380827835,0.0
391,1436380827852,0.0
392,1436380827869,0.0
393,1436380827889,0.0
394,1436380827909,0.0
395,1436380827929,0.0
396,1436380827953,0.0
397,1436380828058,0.0
398,1436380828071,0.0
399,1436380828072,0.0
400,1436380828073,0.0
401,1436380828074,0.0
402,1436380828075,0.0
403,1436380828093,0.0
404,1436380828111,0.0
405,1436380828133,0.0
406,1436380828150,0.0
407,1436380828183,0.0
408,1436380828189,0.0
409,1436380828211,0.0
410,1436380828237,0.0
411,1436380828250,0.0
412,1436380828272,0.0
413,1436380828292,0.0
414,1436380828311,0.0
415,1436380828333,0.0
416,1436380828352,0.0
417,1436380828372,0.0
418,1436380828393,0.0
419,1436380828413,0.0
420,1436380828433,0.0
421,1436380828454,0.0
422,1436380828470,0.0
423,1436380828493,0.0
424,1436380828511,0.0
425,1436380828530,0.0
426,1436380828550,0.0
427,1436380828573,0.0
428,1436380828593,0.0
429,1436380828613,0.0
430,1436380828632,0.0
431,1436380828650,0.0
432,1436380828672,0.0
433,1436380828691,0.0
434,1436380828711,0.0
435,1436380828731,0.0
436,1436380828801,0.0
437,1436380828802,0.0
438,1436380828803,0.0
439,1436380828812,0.0
440,1436380828831,0.0
441,1436380828878,0.0
442,1436380828879,0.0
443,1436380828902,0.0
444,1436380828912,0.0
445,1436380828931,0.0
446,1436380828951,0.0
447,1436380828973,0.0
448,1436380828992,0.0
449,1436380829015,0.0
450,1436380829030,0.0
451,1436380829053,1.0
452,1436380829072,1.0
453,1436380829096,0.0
454,1436380829111,0.0
455,1436380829131,0.0
456,1436380829154,0.0
457,1436380829171,0.0
458,1436380829191,0.0
459,1436380829213,0.0
460,1436380829232,0.0
461,1436380829251,0.0
462,1436380829271,0.0
463,1436380829293,0.0
464,1436380829317,0.0
465,1436380829334,0.0
466,1436380829353,0.0
467,1436380829372,0.0
468,1436380829392,0.0
469,1436380829412,0.0
470,1436380829433,0.0
471,1436380829456,0.0
472,1436380829514,0.0
473,1436380829515,0.0
474,1436380829516,0.0
475,1436380829531,0.0
476,1436380829551,0.0
477,1436380829573,0.0
478,1436380829591,0.0
479,1436380829611,0.0
480,1436380829645,0.0
481,1436380829652,0.0
482,1436380829672,0.0
483,1436380829691,0.0
484,1436380829714,1.0
485,1436380829731,1.0
486,1436380829754,0.0
487,1436380829774,0.0
488,1436380829794,1.0
489,1436380829814,1.0
490,1436380829834,0.0
491,1436380829854,0.0
492,1436380829874,0.0
493,1436380829895,0.0
494,1436380829912,0.0
495,1436380829934,0.0
496,1436380829952,0.0
497,1436380829972,0.0
498,1436380829991,0.0
499,1436380830016,0.0
500,1436380830040,0.0
501,1436380830053,0.0
502,1436380830073,0.0
503,1436380830102,1.0
504,1436380830114,1.0
505,1436380830135,0.0
506,1436380830153,0.0
507,1436380830171,0.0
508,1436380830243,0.0
509,1436380830244,0.0
510,1436380830245,0.0
511,1436380830254,0.0
512,1436380830272,0.0
513,1436380830292,0.0
514,1436380830311,0.0
515,1436380830342,0.0
516,1436380830351,0.0
517,1436380830373,0.0
518,1436380830398,0.0
519,1436380830412,0.0
520,1436380830435,0.0
521,1436380830454,0.0
522,1436380830475,0.0
523,1436380830495,0.0
524,1436380830515,0.0
525,1436380830535,0.0
526,1436380830554,0.0
527,1436380830575,0.0
528,1436380830595,0.0
529,1436380830614,0.0
530,1436380830632,0.0
531,1436380830655,0.0
532,1436380830675,0.0
533,1436380830694,0.0
534,1436380830715,0.0
535,1436380830735,0.0
536,1436380830754,0.0
537,1436380830775,0.0
538,1436380830795,0.0
539,1436380830815,0.0
540,1436380830835,0.0
541,1436380830853,0.0
542,1436380830879,0.0
543,1436380830892,0.0
544,1436380830912,0.0
545,1436380830966,0.0
546,1436380830967,0.0
547,1436380830972,0.0
548,1436380830992,0.0
549,1436380831012,0.0
550,1436380831035,0.0
551,1436380831054,0.0
552,1436380831072,0.0
553,1436380831093,0.0
554,1436380831120,0.0
555,1436380831144,0.0
556,1436380831152,0.0
557,1436380831176,0.0
558,1436380831192,0.0
559,1436380831212,0.0
560,1436380831235,0.0
561,1436380831255,0.0
562,1436380831275,0.0
563,1436380831295,0.0
564,1436380831315,0.0
565,1436380831333,0.0
566,1436380831356,0.0
567,1436380831375,0.0
568,1436380831396,0.0
569,1436380831415,0.0
570,1436380831435,0.0
571,1436380831454,0.0
572,1436380831472,0.0
573,1436380831492,0.0
574,1436380831518,0.0
575,1436380831538,0.0
576,1436380831555,0.0
577,1436380831575,0.0
578,1436380831592,0.0
579,1436380831613,0.0
580,1436380831633,0.0
581,1436380831666,0.0
582,1436380831674,0.0
583,1436380831740,0.0
584,1436380831741,0.0
585,1436380831742,0.0
586,1436380831753,0.0
587,1436380831775,0.0
588,1436380831793,0.0
589,1436380831827,0.0
590,1436380831833,0.0
591,1436380831853,0.0
592,1436380831874,0.0
593,1436380831894,0.0
594,1436380831916,0.0
595,1436380831934,0.0
596,1436380831955,0.0
597,1436380831976,0.0
598,1436380831996,0.0
599,1436380832016,0.0
600,1436380832037,0.0
601,1436380832055,0.0
602,1436380832073,0.0
603,1436380832095,0.0
604,1436380832120,0.0
605,1436380832135,0.0
606,1436380832153,0.0
607,1436380832173,0.0
608,1436380832196,0.0
609,1436380832216,0.0
610,1436380832234,0.0
611,1436380832253,0.0
612,1436380832327,0.0
613,1436380832328,0.0
614,1436380832329,0.0
615,1436380832341,0.0
616,1436380832354,0.0
617,1436380832373,0.0
618,1436380832394,0.0
619,1436380832413,0.0
620,1436380832443,0.0
621,1436380832453,0.0
622,1436380832473,0.0
623,1436380832494,0.0
624,1436380832513,0.0
625,1436380832533,0.0
626,1436380832565,0.0
627,1436380832573,0.0
628,1436380832594,0.0
629,1436380832617,0.0
630,1436380832633,0.0
631,1436380832654,0.0
632,1436380832674,0.0
633,1436380832693,0.0
634,1436380832714,0.0
635,1436380832734,0.0
636,1436380832754,0.0
637,1436380832776,0.0
638,1436380832794,0.0
639,1436380832814,0.0
640,1436380832836,0.0
641,1436380832864,0.0
642,1436380832874,0.0
643,1436380832894,0.0
644,1436380832914,0.0
645,1436380832934,0.0
646,1436380832954,0.0
647,1436380832973,0.0
648,1436380832994,0.0
649,1436380833014,0.0
650,1436380833034,0.0
651,1436380833055,0.0
652,1436380833097,0.0
653,1436380833098,0.0
654,1436380833204,0.0
655,1436380833205,0.0
656,1436380833206,0.0
657,1436380833207,0.0
658,1436380833208,0.0
659,1436380833224,0.0
660,1436380833234,0.0
661,1436380833254,0.0
662,1436380833274,0.0
663,1436380833310,0.0
664,1436380833314,0.0
665,1436380833340,0.0
666,1436380833355,0.0
667,1436380833375,0.0
668,1436380833395,0.0
669,1436380833415,0.0
670,1436380833437,0.0
671,1436380833456,0.0
672,1436380833475,0.0
673,1436380833495,0.0
674,1436380833517,0.0
675,1436380833538,0.0
676,1436380833557,0.0
677,1436380833576,0.0
678,1436380833595,0.0
679,1436380833620,0.0
680,1436380833634,0.0
681,1436380833654,0.0
682,1436380833674,0.0
683,1436380833694,0.0
684,1436380833714,0.0
685,1436380833735,0.0
686,1436380833755,0.0
687,1436380833775,0.0
688,1436380833796,0.0
689,1436380833816,0.0
690,1436380833837,0.0
691,1436380833904,0.0
692,1436380833905,0.0
693,1436380833907,0.0
694,1436380833923,0.0
695,1436380833935,0.0
696,1436380833962,0.0
697,1436380833975,0.0
698,1436380834000,0.0
699,1436380834015,0.0
700,1436380834036,0.0
701,1436380834056,0.0
702,1436380834076,0.0
703,1436380834099,0.0
704,1436380834115,0.0
705,1436380834138,0.0
706,1436380834156,0.0
707,1436380834175,0.0
708,1436380834197,0.0
709,1436380834226,0.0
710,1436380834238,0.0
711,1436380834255,0.0
712,1436380834275,0.0
713,1436380834295,0.0
714,1436380834315,0.0
715,1436380834335,0.0
716,1436380834356,0.0
717,1436380834377,0.0
718,1436380834397,0.0
719,1436380834418,0.0
720,1436380834438,0.0
721,1436380834458,0.0
722,1436380834478,0.0
723,1436380834497,0.0
724,1436380834518,0.0
725,1436380834538,0.0
726,1436380834557,0.0
727,1436380834606,0.0
728,1436380834607,0.0
729,1436380834644,0.0
730,1436380834645,0.0
731,1436380834655,0.0
732,1436380834675,0.0
733,1436380834696,0.0
734,1436380834728,0.0
735,1436380834746,0.0
736,1436380834759,0.0
737,1436380834778,0.0
738,1436380834796,0.0
739,1436380834822,0.0
740,1436380834839,0.0
741,1436380834859,0.0
742,1436380834880,0.0
743,1436380834898,0.0
744,1436380834919,0.0
745,1436380834940,0.0
746,1436380834958,0.0
747,1436380834979,0.0
748,1436380835000,0.0
749,1436380835018,0.0
750,1436380835042,0.0
751,1436380835060,0.0
752,1436380835078,0.0
753,1436380835096,0.0
754,1436380835120,0.0
755,1436380835138,0.0
756,1436380835166,0.0
757,1436380835176,0.0
758,1436380835196,0.0
759,1436380835228,0.0
760,1436380835236,0.0
761,1436380835256,0.0
762,1436380835276,0.0
763,1436380835296,0.0
764,1436380835316,0.0
765,1436380835369,0.0
766,1436380835371,0.0
767,1436380835423,0.0
768,1436380835424,0.0
769,1436380835425,0.0
770,1436380835460,0.0
771,1436380835461,0.0
772,1436380835476,0.0
773,1436380835497,0.0
774,1436380835516,0.0
775,1436380835549,0.0
776,1436380835567,0.0
777,1436380835576,0.0
778,1436380835597,0.0
779,1436380835616,0.0
780,1436380835635,0.0
781,1436380835655,0.0
782,1436380835675,0.0
783,1436380835695,0.0
784,1436380835716,0.0
785,1436380835736,0.0
786,1436380835758,0.0
787,1436380835780,0.0
788,1436380835799,0.0
789,1436380835817,0.0
790,1436380835837,0.0
791,1436380835858,0.0
792,1436380835879,0.0
793,1436380835900,0.0
794,1436380835918,0.0
795,1436380835937,0.0
796,1436380835956,0.0
797,1436380835979,0.0
798,1436380836000,0.0
799,1436380836020,0.0
800,1436380836039,0.0
801,1436380836057,0.0
802,1436380836077,0.0
803,1436380836103,0.0
804,1436380836116,0.0
805,1436380836136,0.0
806,1436380836156,0.0
807,1436380836180,0.0
808,1436380836197,0.0
809,1436380836217,0.0
810,1436380836237,0.0
811,1436380836260,0.0
812,1436380836280,0.0
813,1436380836303,0.0
814,1436380836320,0.0
815,1436380836365,0.0
816,1436380836366,0.0
817,1436380836379,0.0
818,1436380836400,0.0
819,1436380836417,0.0
820,1436380836441,0.0
821,1436380836458,0.0
822,1436380836480,0.0
823,1436380836501,0.0
824,1436380836521,0.0
825,1436380836541,0.0
826,1436380836560,0.0
827,1436380836580,0.0
828,1436380836600,0.0
829,1436380836620,0.0
830,1436380836639,0.0
831,1436380836660,0.0
832,1436380836680,0.0
833,1436380836706,0.0
834,1436380836722,0.0
835,1436380836787,0.0
836,1436380836788,0.0
837,1436380836789,0.0
838,1436380836812,0.0
839,1436380836818,0.0
840,1436380836838,0.0
841,1436380836857,0.0
842,1436380836878,0.0
843,1436380836899,0.0
844,1436380836918,0.0
845,1436380836938,0.0
846,1436380836964,0.0
847,1436380836977,0.0
848,1436380836998,0.0
849,1436380837020,0.0
850,1436380837040,0.0
851,1436380837060,0.0
852,1436380837083,0.0
853,1436380837099,0.0
854,1436380837120,0.0
855,1436380837142,0.0
856,1436380837161,0.0
857,1436380837182,0.0
858,1436380837198,0.0
859,1436380837221,0.0
860,1436380837237,0.0
861,1436380837257,0.0
862,1436380837281,0.0
863,1436380837302,0.0
864,1436380837322,0.0
865,1436380837342,0.0
866,1436380837361,0.0
867,1436380837382,0.0
868,1436380837399,0.0
869,1436380837420,0.0
870,1436380837440,0.0
871,1436380837462,0.0
872,1436380837501,0.0
873,1436380837502,0.0
874,1436380837517,0.0
875,1436380837537,0.0
876,1436380837560,0.0
877,1436380837579,0.0
878,1436380837599,0.0
879,1436380837619,0.0
880,1436380837641,0.0
881,1436380837661,0.0
882,1436380837681,0.0
883,1436380837698,0.0
884,1436380837720,0.0
885,1436380837741,0.0
886,1436380837762,0.0
887,1436380837780,0.0
888,1436380837801,0.0
889,1436380837821,0.0
890,1436380837838,0.0
891,1436380837861,0.0
892,1436380837881,0.0
893,1436380837901,0.0
894,1436380837921,0.0
895,1436380837941,0.0
896,1436380837960,0.0
897,1436380837982,0.0
898,1436380838001,0.0
899,1436380838022,0.0
900,1436380838043,0.0
901,1436380838065,0.0
902,1436380838182,0.0
903,1436380838183,0.0
904,1436380838184,0.0
905,1436380838185,0.0
906,1436380838186,0.0
907,1436380838187,0.0
908,1436380838200,0.0
909,1436380838220,0.0
910,1436380838240,0.0
911,1436380838275,0.0
912,1436380838290,0.0
