id,attr_time,attr_light
1,1435990454125,0.0
2,1435990454145,0.0
3,1435990454165,0.0
4,1435990454185,0.0
5,1435990454205,0.0
6,1435990454225,0.0
7,1435990454245,0.0
8,1435990454265,0.0
9,1435990454285,0.0
10,1435990454307,0.0
11,1435990454331,0.0
12,1435990454345,0.0
13,1435990454363,0.0
14,1435990454383,0.0
15,1435990454405,0.0
16,1435990454425,0.0
17,1435990454443,0.0
18,1435990454463,0.0
19,1435990454483,0.0
20,1435990454503,0.0
21,1435990454523,0.0
22,1435990454543,0.0
23,1435990454565,0.0
24,1435990454584,0.0
25,1435990454603,0.0
26,1435990454623,0.0
27,1435990454643,0.0
28,1435990454663,0.0
29,1435990454683,0.0
30,1435990454703,0.0
31,1435990454723,0.0
32,1435990454743,0.0
33,1435990454763,0.0
34,1435990454783,0.0
35,1435990454804,0.0
36,1435990454823,0.0
37,1435990454843,0.0
38,1435990454865,0.0
39,1435990454885,0.0
40,1435990454905,0.0
41,1435990454926,0.0
42,1435990454945,0.0
43,1435990454965,0.0
44,1435990454985,0.0
45,1435990455005,0.0
46,1435990455026,0.0
47,1435990455045,0.0
48,1435990455119,0.0
49,1435990455120,0.0
50,1435990455121,0.0
51,1435990455128,0.0
52,1435990455147,0.0
53,1435990455169,0.0
54,1435990455185,0.0
55,1435990455205,0.0
56,1435990455227,0.0
57,1435990455247,0.0
58,1435990455267,0.0
59,1435990455287,0.0
60,1435990455307,0.0
61,1435990455353,0.0
62,1435990455354,0.0
63,1435990455397,0.0
64,1435990455398,0.0
65,1435990455406,0.0
66,1435990455426,0.0
67,1435990455446,0.0
68,1435990455466,0.0
69,1435990455486,0.0
70,1435990455506,0.0
71,1435990455526,0.0
72,1435990455547,0.0
73,1435990455568,0.0
74,1435990455588,0.0
75,1435990455606,0.0
76,1435990455627,0.0
77,1435990455649,0.0
78,1435990455668,0.0
79,1435990455689,0.0
80,1435990455707,0.0
81,1435990455727,0.0
82,1435990455747,0.0
83,1435990455766,0.0
84,1435990455786,0.0
85,1435990455810,0.0
86,1435990455827,0.0
87,1435990455848,0.0
88,1435990455865,0.0
89,1435990455888,0.0
90,1435990455907,0.0
91,1435990455931,0.0
92,1435990455945,0.0
93,1435990455967,0.0
94,1435990455987,0.0
95,1435990456009,0.0
96,1435990457438,0.0
97,1435990457439,0.0
98,1435990457440,0.0
99,1435990457441,0.0
100,1435990457442,0.0
101,1435990457443,0.0
102,1435990457444,0.0
103,1435990457445,0.0
104,1435990457446,0.0
105,1435990457447,0.0
106,1435990457448,0.0
107,1435990457449,0.0
108,1435990457450,0.0
109,1435990457451,0.0
110,1435990457452,0.0
111,1435990457453,0.0
112,1435990457454,0.0
113,1435990457455,0.0
114,1435990457456,0.0
115,1435990457457,0.0
116,1435990457458,0.0
117,1435990457459,0.0
118,1435990457460,0.0
119,1435990457461,0.0
120,1435990457462,0.0
121,1435990457463,0.0
122,1435990457464,0.0
123,1435990457465,0.0
124,1435990457466,0.0
125,1435990457467,0.0
126,1435990457468,0.0
127,1435990457469,0.0
128,1435990457470,0.0
129,1435990457471,0.0
130,1435990457472,0.0
131,1435990457473,0.0
132,1435990457474,0.0
133,1435990457475,0.0
134,1435990457476,0.0
135,1435990457477,0.0
136,1435990457478,0.0
137,1435990457479,0.0
138,1435990457480,0.0
139,1435990457481,0.0
140,1435990457482,0.0
141,1435990457483,0.0
142,1435990457484,0.0
143,1435990457485,0.0
144,1435990457486,0.0
145,1435990457487,0.0
146,1435990457488,0.0
147,1435990457489,0.0
148,1435990457490,0.0
149,1435990457491,0.0
150,1435990457492,0.0
151,1435990457493,0.0
152,1435990457494,0.0
153,1435990457495,0.0
154,1435990457496,0.0
155,1435990457497,0.0
156,1435990457498,0.0
157,1435990457499,0.0
158,1435990457500,0.0
159,1435990457501,0.0
160,1435990457502,0.0
161,1435990457503,0.0
162,1435990457504,0.0
163,1435990457505,0.0
164,1435990457506,0.0
165,1435990457507,0.0
166,1435990457508,0.0
167,1435990457509,0.0
168,1435990457510,0.0
169,1435990457511,0.0
170,1435990457512,0.0
171,1435990457526,0.0
172,1435990457546,0.0
173,1435990457566,0.0
174,1435990457586,0.0
175,1435990457606,0.0
176,1435990457626,0.0
177,1435990457646,0.0
178,1435990457667,0.0
179,1435990457691,0.0
180,1435990457709,0.0
181,1435990457728,0.0
182,1435990457749,0.0
183,1435990457768,0.0
184,1435990457789,0.0
185,1435990457808,0.0
186,1435990457828,0.0
187,1435990457851,0.0
188,1435990457871,0.0
189,1435990457888,0.0
190,1435990457911,0.0
191,1435990457928,0.0
192,1435990457951,0.0
193,1435990457969,0.0
194,1435990457997,0.0
195,1435990458012,0.0
196,1435990458036,0.0
197,1435990458047,0.0
198,1435990458070,0.0
199,1435990458088,0.0
200,1435990458111,0.0
201,1435990458133,0.0
202,1435990458149,0.0
203,1435990458172,0.0
204,1435990458191,0.0
205,1435990458215,0.0
206,1435990458232,0.0
207,1435990458251,0.0
208,1435990458272,0.0
209,1435990458293,0.0
210,1435990458312,0.0
211,1435990458333,0.0
212,1435990458351,0.0
213,1435990458372,0.0
214,1435990458392,0.0
215,1435990458414,0.0
216,1435990458435,0.0
217,1435990458449,0.0
218,1435990458472,0.0
219,1435990458488,0.0
220,1435990458508,0.0
221,1435990458529,0.0
222,1435990458549,0.0
223,1435990458575,0.0
224,1435990458596,0.0
225,1435990458610,0.0
226,1435990458631,0.0
227,1435990458701,0.0
228,1435990458702,0.0
229,1435990458703,0.0
230,1435990458709,0.0
231,1435990458738,0.0
232,1435990458751,0.0
233,1435990458769,0.0
234,1435990458790,0.0
235,1435990458809,0.0
236,1435990458835,0.0
237,1435990458851,0.0
238,1435990458873,0.0
239,1435990458891,0.0
240,1435990458912,0.0
241,1435990458937,0.0
242,1435990458949,0.0
243,1435990458972,0.0
244,1435990458992,0.0
245,1435990459012,0.0
246,1435990459032,0.0
247,1435990459053,0.0
248,1435990459074,0.0
249,1435990459092,0.0
250,1435990459111,0.0
251,1435990459130,0.0
252,1435990459152,0.0
253,1435990459170,0.0
254,1435990459193,0.0
255,1435990459214,0.0
256,1435990459234,0.0
257,1435990459254,0.0
258,1435990459271,0.0
259,1435990459290,0.0
260,1435990459309,0.0
261,1435990459332,0.0
262,1435990459358,0.0
263,1435990459564,0.0
264,1435990459565,0.0
265,1435990459566,0.0
266,1435990459567,0.0
267,1435990459582,0.0
268,1435990459583,0.0
269,1435990459584,0.0
270,1435990459585,0.0
271,1435990459586,0.0
272,1435990459604,0.0
273,1435990459605,0.0
274,1435990459606,0.0
275,1435990459610,0.0
276,1435990459630,0.0
277,1435990459650,0.0
278,1435990459670,0.0
279,1435990459690,0.0
280,1435990459710,0.0
281,1435990459730,0.0
282,1435990459752,0.0
283,1435990459772,0.0
284,1435990459793,0.0
285,1435990459812,0.0
286,1435990459833,0.0
287,1435990459853,0.0
288,1435990459873,0.0
289,1435990459891,0.0
290,1435990459914,0.0
291,1435990459940,0.0
292,1435990459953,0.0
293,1435990459989,0.0
294,1435990459990,0.0
295,1435990460013,0.0
296,1435990460033,0.0
297,1435990460053,0.0
298,1435990460073,0.0
299,1435990460093,0.0
300,1435990460113,0.0
301,1435990460133,0.0
302,1435990460153,0.0
303,1435990460173,0.0
304,1435990460194,0.0
305,1435990460361,0.0
306,1435990460362,0.0
307,1435990460363,0.0
308,1435990460364,0.0
309,1435990460365,0.0
310,1435990460366,0.0
311,1435990460367,0.0
312,1435990460368,0.0
313,1435990460387,0.0
314,1435990460411,0.0
315,1435990460412,0.0
316,1435990460430,0.0
317,1435990460455,0.0
318,1435990460482,0.0
319,1435990460494,0.0
320,1435990460517,0.0
321,1435990460531,0.0
322,1435990460556,0.0
323,1435990460573,0.0
324,1435990460595,0.0
325,1435990460614,0.0
326,1435990460634,0.0
327,1435990460654,0.0
328,1435990460674,0.0
329,1435990460694,0.0
330,1435990460714,0.0
331,1435990460737,0.0
332,1435990460751,0.0
333,1435990460775,0.0
334,1435990460794,0.0
335,1435990460814,0.0
336,1435990460833,0.0
337,1435990460854,0.0
338,1435990460875,0.0
339,1435990460893,0.0
340,1435990460914,0.0
341,1435990460944,0.0
342,1435990460956,0.0
343,1435990460978,0.0
344,1435990460994,0.0
345,1435990461013,0.0
346,1435990461085,0.0
347,1435990461086,0.0
348,1435990461087,0.0
349,1435990461091,0.0
350,1435990461113,0.0
351,1435990461134,0.0
352,1435990461151,0.0
353,1435990461173,0.0
354,1435990461192,0.0
355,1435990461214,0.0
356,1435990461233,0.0
357,1435990461252,0.0
358,1435990461272,0.0
359,1435990461297,0.0
360,1435990461316,0.0
361,1435990461334,0.0
362,1435990461354,0.0
363,1435990461374,0.0
364,1435990461394,0.0
365,1435990461414,0.0
366,1435990461434,0.0
367,1435990461454,0.0
368,1435990461473,0.0
369,1435990461494,0.0
370,1435990461513,0.0
371,1435990461534,0.0
372,1435990461555,0.0
373,1435990461575,0.0
374,1435990461595,0.0
375,1435990461616,0.0
376,1435990461635,0.0
377,1435990461653,0.0
378,1435990461673,0.0
379,1435990461694,0.0
380,1435990461720,0.0
381,1435990461793,0.0
382,1435990461794,0.0
383,1435990461795,0.0
384,1435990461796,0.0
385,1435990461814,0.0
386,1435990461834,0.0
387,1435990461852,0.0
388,1435990461872,0.0
389,1435990461892,0.0
390,1435990461917,0.0
391,1435990461939,0.0
392,1435990461963,0.0
393,1435990461978,0.0
394,1435990461993,0.0
395,1435990462015,0.0
396,1435990462035,0.0
397,1435990462053,0.0
398,1435990462075,0.0
399,1435990462095,0.0
400,1435990462115,0.0
401,1435990462135,0.0
402,1435990462155,0.0
403,1435990462176,0.0
404,1435990462195,0.0
405,1435990462215,0.0
406,1435990462233,0.0
407,1435990462255,0.0
408,1435990462273,0.0
409,1435990462297,0.0
410,1435990462317,0.0
411,1435990462333,0.0
412,1435990462353,0.0
413,1435990462372,0.0
414,1435990462392,0.0
415,1435990462415,0.0
416,1435990462433,0.0
417,1435990462503,0.0
418,1435990462504,0.0
419,1435990462505,0.0
420,1435990462525,0.0
421,1435990462532,0.0
422,1435990462553,0.0
423,1435990462575,0.0
424,1435990462592,0.0
425,1435990462616,0.0
426,1435990462632,0.0
427,1435990462653,0.0
428,1435990462674,0.0
429,1435990462694,0.0
430,1435990462742,0.0
431,1435990462743,0.0
432,1435990462753,0.0
433,1435990462774,0.0
434,1435990462796,0.0
435,1435990462816,0.0
436,1435990462836,0.0
437,1435990462856,0.0
438,1435990462875,0.0
439,1435990462895,0.0
440,1435990462923,0.0
441,1435990462938,0.0
442,1435990462955,0.0
443,1435990462977,0.0
444,1435990462995,0.0
445,1435990463016,0.0
446,1435990463035,0.0
447,1435990463056,0.0
448,1435990463078,0.0
449,1435990463096,0.0
450,1435990463115,0.0
451,1435990463135,0.0
452,1435990463154,0.0
453,1435990463173,0.0
454,1435990463264,0.0
455,1435990463265,0.0
456,1435990463266,0.0
457,1435990463267,0.0
458,1435990463273,0.0
459,1435990463296,0.0
460,1435990463314,0.0
461,1435990463337,0.0
462,1435990463355,0.0
463,1435990463378,0.0
464,1435990463405,0.0
465,1435990463415,0.0
466,1435990463439,0.0
467,1435990463454,0.0
468,1435990463475,0.0
469,1435990463495,0.0
470,1435990463516,0.0
471,1435990463536,0.0
472,1435990463556,0.0
473,1435990463576,0.0
474,1435990463595,0.0
475,1435990463616,0.0
476,1435990463636,0.0
477,1435990463658,0.0
478,1435990463674,0.0
479,1435990463698,0.0
480,1435990463717,0.0
481,1435990463737,0.0
482,1435990463757,0.0
483,1435990463777,0.0
484,1435990463798,0.0
485,1435990463817,0.0
486,1435990463837,0.0
487,1435990463857,0.0
488,1435990463882,0.0
489,1435990463901,0.0
490,1435990463915,0.0
491,1435990464023,0.0
492,1435990464024,0.0
493,1435990464025,0.0
494,1435990464026,0.0
495,1435990464027,0.0
496,1435990464038,0.0
497,1435990464068,0.0
498,1435990464074,0.0
499,1435990464108,0.0
500,1435990464114,0.0
501,1435990464135,0.0
502,1435990464159,0.0
503,1435990464174,0.0
504,1435990464197,0.0
505,1435990464214,0.0
506,1435990464237,0.0
507,1435990464257,0.0
508,1435990464277,0.0
509,1435990464297,0.0
510,1435990464316,0.0
511,1435990464336,0.0
512,1435990464356,0.0
513,1435990464374,0.0
514,1435990464442,0.0
515,1435990464443,0.0
516,1435990464448,0.0
517,1435990464454,0.0
518,1435990464477,0.0
519,1435990464495,0.0
520,1435990464515,0.0
521,1435990464536,0.0
522,1435990464558,0.0
523,1435990464579,0.0
524,1435990464600,0.0
525,1435990464618,0.0
526,1435990464635,0.0
527,1435990464654,0.0
528,1435990464675,0.0
529,1435990464697,0.0
530,1435990464715,0.0
531,1435990464788,0.0
532,1435990464789,0.0
533,1435990464790,0.0
534,1435990464798,0.0
535,1435990464815,0.0
536,1435990464835,0.0
537,1435990464854,0.0
538,1435990464875,0.0
539,1435990464897,0.0
540,1435990464916,0.0
541,1435990464940,0.0
542,1435990464957,0.0
543,1435990464978,0.0
544,1435990464997,0.0
545,1435990465017,0.0
546,1435990465038,0.0
547,1435990465057,0.0
548,1435990465078,0.0
549,1435990465098,0.0
550,1435990465117,0.0
551,1435990465138,0.0
552,1435990465156,0.0
553,1435990465176,0.0
554,1435990465198,0.0
555,1435990465217,0.0
556,1435990465238,0.0
557,1435990465256,0.0
558,1435990465277,0.0
559,1435990465297,0.0
560,1435990465317,0.0
561,1435990465349,0.0
562,1435990465355,0.0
563,1435990465376,0.0
564,1435990465395,0.0
565,1435990465417,0.0
566,1435990465435,0.0
567,1435990465455,0.0
568,1435990465487,0.0
569,1435990465503,0.0
570,1435990465515,0.0
571,1435990465535,0.0
572,1435990465555,0.0
573,1435990465576,0.0
574,1435990465595,0.0
575,1435990465616,0.0
576,1435990465635,0.0
577,1435990465658,0.0
578,1435990465682,0.0
579,1435990465696,0.0
580,1435990465718,0.0
581,1435990465739,0.0
582,1435990465759,0.0
583,1435990465776,0.0
584,1435990465797,0.0
585,1435990465819,0.0
586,1435990465839,0.0
587,1435990465859,0.0
588,1435990465876,0.0
589,1435990465899,0.0
590,1435990465922,0.0
591,1435990465940,0.0
592,1435990465961,0.0
593,1435990465984,0.0
594,1435990466000,0.0
595,1435990466019,0.0
596,1435990466036,0.0
597,1435990466056,0.0
598,1435990466078,0.0
599,1435990466100,0.0
600,1435990466122,0.0
601,1435990466140,0.0
602,1435990466158,0.0
603,1435990466246,0.0
604,1435990466247,0.0
605,1435990466248,0.0
606,1435990466249,0.0
607,1435990466256,0.0
608,1435990466287,0.0
609,1435990466297,0.0
610,1435990466318,0.0
611,1435990466336,0.0
612,1435990466357,0.0
613,1435990466378,0.0
614,1435990466396,0.0
615,1435990466417,0.0
616,1435990466437,0.0
617,1435990466459,0.0
618,1435990466479,0.0
619,1435990466497,0.0
620,1435990466517,0.0
621,1435990466539,0.0
622,1435990466559,0.0
623,1435990466579,0.0
624,1435990466596,0.0
625,1435990466619,0.0
626,1435990466636,0.0
627,1435990466659,0.0
628,1435990466679,0.0
629,1435990466703,0.0
630,1435990466718,0.0
631,1435990466740,0.0
632,1435990466760,0.0
633,1435990466782,0.0
634,1435990466797,0.0
635,1435990466819,0.0
636,1435990466852,0.0
637,1435990466858,0.0
638,1435990467050,0.0
639,1435990467051,0.0
640,1435990467052,0.0
641,1435990467053,0.0
642,1435990467054,0.0
643,1435990467055,0.0
644,1435990467056,0.0
645,1435990467057,0.0
646,1435990467058,0.0
647,1435990467079,0.0
648,1435990467080,0.0
649,1435990467097,0.0
650,1435990467118,0.0
651,1435990467137,0.0
652,1435990467160,0.0
653,1435990467182,0.0
654,1435990467199,0.0
655,1435990467217,0.0
656,1435990467237,0.0
657,1435990467258,0.0
658,1435990467280,0.0
659,1435990467300,0.0
660,1435990467317,0.0
661,1435990467338,0.0
662,1435990467360,0.0
663,1435990467380,0.0
664,1435990467399,0.0
665,1435990467419,0.0
666,1435990467438,0.0
667,1435990467457,0.0
668,1435990467477,0.0
669,1435990467497,0.0
670,1435990467518,0.0
671,1435990467538,0.0
672,1435990467558,0.0
673,1435990467580,0.0
674,1435990467597,0.0
675,1435990467618,0.0
676,1435990467638,0.0
677,1435990467658,0.0
678,1435990467685,0.0
679,1435990467731,0.0
680,1435990467732,0.0
681,1435990467752,0.0
682,1435990467757,0.0
683,1435990467778,0.0
684,1435990467800,0.0
685,1435990467817,0.0
686,1435990467837,0.0
687,1435990467858,0.0
688,1435990467883,0.0
689,1435990467900,0.0
690,1435990467923,0.0
691,1435990467938,0.0
692,1435990467960,0.0
693,1435990467981,0.0
694,1435990467999,0.0
695,1435990468021,0.0
696,1435990468040,0.0
697,1435990468060,0.0
698,1435990468082,0.0
699,1435990468100,0.0
700,1435990468121,0.0
701,1435990468139,0.0
702,1435990468160,0.0
703,1435990468182,0.0
704,1435990468202,0.0
705,1435990468221,0.0
706,1435990468240,0.0
707,1435990468259,0.0
708,1435990468281,0.0
709,1435990468300,0.0
710,1435990468321,0.0
711,1435990468342,0.0
712,1435990468361,0.0
713,1435990468380,0.0
714,1435990468408,0.0
715,1435990468463,0.0
716,1435990468464,0.0
717,1435990468465,0.0
718,1435990468484,0.0
719,1435990468498,0.0
720,1435990468518,0.0
721,1435990468538,0.0
722,1435990468558,0.0
723,1435990468580,0.0
724,1435990468600,0.0
725,1435990468620,0.0
726,1435990468640,0.0
727,1435990468659,0.0
728,1435990468678,0.0
729,1435990468703,0.0
730,1435990468721,0.0
731,1435990468741,0.0
732,1435990468760,0.0
733,1435990468783,0.0
734,1435990468802,0.0
735,1435990468820,0.0
736,1435990468841,0.0
737,1435990468863,0.0
738,1435990468883,0.0
739,1435990468904,0.0
740,1435990468922,0.0
741,1435990468944,0.0
742,1435990468961,0.0
743,1435990468985,0.0
744,1435990469004,0.0
745,1435990469023,0.0
746,1435990469042,0.0
747,1435990469058,0.0
748,1435990469079,0.0
749,1435990469099,0.0
750,1435990469122,0.0
751,1435990469139,0.0
752,1435990469209,0.0
753,1435990469210,0.0
754,1435990469211,0.0
755,1435990469219,0.0
756,1435990469242,0.0
757,1435990469260,0.0
758,1435990469279,0.0
759,1435990469302,0.0
760,1435990469319,0.0
761,1435990469341,0.0
762,1435990469360,0.0
763,1435990469382,0.0
764,1435990469399,0.0
765,1435990469423,0.0
766,1435990469447,0.0
767,1435990469514,0.0
768,1435990469515,0.0
769,1435990469524,0.0
770,1435990469525,0.0
771,1435990469542,0.0
772,1435990469562,0.0
773,1435990469584,0.0
774,1435990469600,0.0
775,1435990469623,0.0
776,1435990469641,0.0
777,1435990469662,0.0
778,1435990469682,0.0
779,1435990469704,0.0
780,1435990469723,0.0
781,1435990469744,0.0
782,1435990469762,0.0
783,1435990469780,0.0
784,1435990469803,0.0
785,1435990469821,0.0
786,1435990469842,0.0
787,1435990469861,0.0
788,1435990469990,0.0
789,1435990469991,0.0
790,1435990469992,0.0
791,1435990469993,0.0
792,1435990469994,0.0
793,1435990469995,0.0
794,1435990470003,0.0
795,1435990470021,0.0
796,1435990470039,0.0
797,1435990470065,0.0
798,1435990470081,0.0
799,1435990470100,0.0
800,1435990470126,0.0
801,1435990470144,0.0
802,1435990470163,0.0
803,1435990470183,0.0
804,1435990470204,0.0
805,1435990470224,0.0
806,1435990470242,0.0
807,1435990470263,0.0
808,1435990470283,0.0
809,1435990470304,0.0
810,1435990470321,0.0
811,1435990470345,0.0
812,1435990470360,0.0
813,1435990470383,0.0
814,1435990470400,0.0
815,1435990470420,0.0
816,1435990470442,0.0
817,1435990470465,0.0
818,1435990470485,0.0
819,1435990470506,0.0
820,1435990470521,0.0
821,1435990470541,0.0
822,1435990470560,0.0
823,1435990470582,0.0
824,1435990470704,0.0
825,1435990470705,0.0
826,1435990470706,0.0
827,1435990470707,0.0
828,1435990470708,0.0
829,1435990470709,0.0
830,1435990470742,0.0
831,1435990470743,0.0
832,1435990470760,0.0
833,1435990470792,0.0
834,1435990470814,0.0
835,1435990470821,0.0
836,1435990470840,0.0
837,1435990470860,0.0
838,1435990470881,0.0
839,1435990470900,0.0
840,1435990470923,0.0
841,1435990470940,0.0
842,1435990470963,0.0
843,1435990470981,0.0
844,1435990471004,0.0
845,1435990471023,0.0
846,1435990471043,0.0
847,1435990471065,0.0
848,1435990471082,0.0
849,1435990471103,0.0
850,1435990471123,0.0
851,1435990471143,0.0
852,1435990471163,0.0
853,1435990471184,0.0
854,1435990471204,0.0
855,1435990471224,0.0
856,1435990471243,0.0
857,1435990471264,0.0
858,1435990471284,0.0
859,1435990471305,0.0
860,1435990471323,0.0
861,1435990471347,0.0
862,1435990471423,0.0
863,1435990471424,0.0
864,1435990471425,0.0
865,1435990471426,0.0
866,1435990471454,0.0
867,1435990471462,0.0
868,1435990471481,0.0
869,1435990471502,0.0
870,1435990471521,0.0
871,1435990471546,0.0
872,1435990471562,0.0
873,1435990471584,0.0
874,1435990471607,0.0
875,1435990471624,0.0
876,1435990471644,1.0
877,1435990471664,1.0
878,1435990471684,1.0
879,1435990471704,1.0
880,1435990471724,1.0
881,1435990471744,1.0
882,1435990471763,1.0
883,1435990471783,1.0
884,1435990471804,1.0
885,1435990471925,1.0
886,1435990471926,0.0
887,1435990471928,0.0
888,1435990471929,0.0
889,1435990471930,0.0
890,1435990471931,0.0
891,1435990471986,0.0
892,1435990471987,0.0
893,1435990471988,0.0
894,1435990472007,0.0
895,1435990472026,1.0
896,1435990472047,1.0
897,1435990472115,1.0
898,1435990472116,1.0
899,1435990472117,1.0
900,1435990472136,1.0
901,1435990472141,1.0
902,1435990472163,1.0
903,1435990472208,1.0
904,1435990472209,1.0
905,1435990472234,1.0
906,1435990472241,1.0
907,1435990472262,1.0
908,1435990472282,1.0
909,1435990472308,0.0
910,1435990472325,0.0
911,1435990472343,0.0
912,1435990472362,0.0
