id,attr_time,attr_x,attr_y,attr_z
1,1436379712038,-7.635,-29.177,-18.942
2,1436379712044,-7.635,-29.177,-18.942
3,1436379712064,-7.635,-29.177,-18.942
4,1436379712084,-7.635,-29.177,-18.942
5,1436379712104,-7.635,-29.177,-18.942
6,1436379712124,-7.635,-29.177,-18.942
7,1436379712144,-7.635,-29.177,-18.942
8,1436379712164,-7.635,-29.177,-18.942
9,1436379712184,-7.635,-29.177,-18.942
10,1436379712204,-7.635,-29.177,-18.942
11,1436379712224,-7.635,-29.177,-18.942
12,1436379712244,-7.635,-29.177,-18.942
13,1436379712264,-7.635,-29.177,-18.942
14,1436379712284,-7.635,-29.177,-18.942
15,1436379712304,-7.635,-29.177,-18.942
16,1436379712324,-7.635,-29.177,-18.942
17,1436379712344,-7.635,-29.177,-18.942
18,1436379712364,-7.635,-29.177,-18.942
19,1436379712384,-7.635,-29.177,-18.942
20,1436379712404,-7.635,-29.177,-18.942
21,1436379712424,-7.635,-29.177,-18.942
22,1436379712444,-7.635,-29.177,-18.942
23,1436379712464,-7.635,-29.177,-18.942
24,1436379712484,-7.635,-29.177,-18.942
25,1436379712504,-7.635,-29.177,-18.942
26,1436379712528,-7.635,-29.177,-18.942
27,1436379712544,-7.635,-29.177,-18.942
28,1436379712564,-7.635,-29.177,-18.942
29,1436379712584,-7.635,-29.177,-18.942
30,1436379712604,-7.635,-29.177,-18.942
31,1436379712624,-7.635,-29.177,-18.942
32,1436379712644,-7.635,-29.177,-18.942
33,1436379712664,-7.31,-29.177,-18.942
34,1436379712684,-7.31,-29.177,-18.942
35,1436379712704,-7.31,-29.177,-18.942
36,1436379712724,-7.31,-29.177,-18.942
37,1436379712744,-7.31,-29.177,-18.942
38,1436379712764,-7.31,-29.177,-18.942
39,1436379712785,-7.31,-29.177,-18.942
40,1436379712805,-7.31,-29.177,-18.942
41,1436379712825,-7.31,-29.177,-18.942
42,1436379712845,-7.31,-29.177,-18.942
43,1436379712865,-7.31,-29.177,-18.942
44,1436379712885,-7.31,-29.177,-18.942
45,1436379712905,-7.31,-29.177,-18.942
46,1436379712925,-7.31,-29.177,-18.942
47,1436379712945,-7.31,-29.177,-18.942
48,1436379712965,-7.31,-29.177,-18.942
49,1436379712985,-7.31,-29.177,-18.942
50,1436379713005,-7.31,-29.177,-18.942
51,1436379713025,-7.31,-29.177,-18.942
52,1436379713045,-7.31,-29.177,-18.942
53,1436379713066,-7.31,-29.177,-18.942
54,1436379713085,-7.31,-29.177,-18.942
55,1436379713105,-7.31,-29.177,-18.942
56,1436379713125,-7.31,-29.177,-18.942
57,1436379713145,-7.31,-29.177,-18.942
58,1436379713165,-7.31,-29.177,-18.942
59,1436379713185,-7.31,-29.177,-18.942
60,1436379713205,-7.31,-29.177,-18.942
61,1436379713225,-7.31,-29.177,-18.942
62,1436379713245,-7.31,-28.865,-19.256
63,1436379713265,-7.623,-28.865,-19.256
64,1436379713285,-7.623,-28.865,-19.256
65,1436379713305,-7.623,-28.865,-19.256
66,1436379713326,-7.623,-28.865,-19.256
67,1436379713345,-7.623,-28.865,-19.256
68,1436379713365,-7.623,-28.865,-19.256
69,1436379713385,-7.623,-28.865,-19.256
70,1436379713405,-7.623,-28.865,-19.256
71,1436379713425,-7.623,-28.865,-19.256
72,1436379713445,-7.623,-28.865,-19.256
73,1436379713466,-7.623,-28.865,-19.256
74,1436379713485,-7.623,-28.865,-19.256
75,1436379713505,-7.623,-28.865,-19.256
76,1436379713525,-7.623,-28.865,-19.256
77,1436379713545,-7.623,-28.865,-19.256
78,1436379713565,-7.623,-28.865,-19.256
79,1436379713585,-7.623,-28.865,-19.256
80,1436379713607,-7.623,-28.865,-19.256
81,1436379713625,-7.623,-28.865,-19.256
82,1436379713646,-7.623,-28.865,-19.256
83,1436379713665,-7.623,-28.865,-19.256
84,1436379713685,-7.623,-28.865,-19.256
85,1436379713705,-7.623,-28.865,-19.256
86,1436379713725,-7.623,-28.865,-19.256
87,1436379713745,-7.623,-29.17,-19.256
88,1436379713765,-7.623,-29.17,-19.256
89,1436379713785,-7.623,-29.17,-19.256
90,1436379713805,-7.623,-29.17,-19.256
91,1436379713825,-7.623,-29.17,-19.256
92,1436379713846,-7.623,-29.17,-19.256
93,1436379713866,-7.623,-29.17,-19.256
94,1436379713885,-7.623,-29.17,-19.256
95,1436379713906,-7.623,-29.17,-19.256
96,1436379713926,-7.623,-29.17,-19.256
97,1436379713946,-7.623,-29.17,-19.256
98,1436379713966,-7.623,-29.17,-19.256
99,1436379713986,-7.623,-29.17,-19.256
100,1436379714006,-7.623,-29.17,-19.256
101,1436379714026,-7.623,-29.17,-19.256
102,1436379714046,-7.623,-29.17,-19.256
103,1436379714066,-7.623,-29.17,-19.256
104,1436379714086,-7.623,-29.17,-19.256
105,1436379714106,-7.623,-29.17,-19.256
106,1436379714126,-7.623,-29.17,-19.256
107,1436379714146,-7.623,-29.17,-19.256
108,1436379714166,-7.623,-29.17,-19.256
109,1436379714186,-7.623,-29.17,-19.256
110,1436379714206,-7.623,-29.17,-19.256
111,1436379714226,-7.623,-29.17,-19.256
112,1436379714246,-7.623,-29.17,-19.256
113,1436379714266,-7.623,-29.17,-19.256
114,1436379714286,-7.623,-29.17,-19.256
115,1436379714306,-7.623,-29.17,-19.256
116,1436379714326,-7.623,-29.17,-19.256
117,1436379714346,-7.623,-29.17,-19.256
118,1436379714366,-7.623,-29.17,-19.256
119,1436379714386,-7.623,-29.17,-19.256
120,1436379714406,-7.623,-29.17,-19.256
121,1436379714426,-7.623,-29.17,-19.256
122,1436379714446,-7.623,-29.17,-19.256
123,1436379714466,-7.623,-29.17,-19.256
124,1436379714486,-7.623,-29.17,-19.256
125,1436379714506,-7.623,-29.17,-19.256
126,1436379714526,-7.623,-29.17,-19.256
127,1436379714546,-7.623,-29.17,-19.256
128,1436379714566,-7.623,-29.17,-19.256
129,1436379714586,-7.623,-29.17,-19.256
130,1436379714606,-7.623,-29.17,-19.256
131,1436379714626,-7.623,-29.17,-19.256
132,1436379714648,-7.318,-29.17,-19.256
133,1436379714669,-7.318,-29.17,-19.256
134,1436379714687,-7.318,-29.17,-19.256
135,1436379714707,-7.318,-29.17,-19.256
136,1436379714726,-7.318,-29.17,-19.256
137,1436379714746,-7.318,-29.17,-19.256
138,1436379714766,-7.318,-29.17,-19.256
139,1436379714786,-7.318,-29.17,-19.256
140,1436379714806,-7.318,-29.17,-19.256
141,1436379714826,-7.318,-29.17,-19.256
142,1436379714847,-7.318,-29.17,-19.256
143,1436379714867,-7.318,-29.17,-19.256
144,1436379714887,-7.318,-29.17,-19.256
145,1436379714907,-7.318,-29.17,-19.256
146,1436379714927,-7.318,-29.17,-19.256
147,1436379714947,-7.318,-29.17,-19.256
148,1436379714967,-7.318,-29.17,-19.256
149,1436379714987,-7.318,-29.17,-19.256
150,1436379715007,-7.318,-29.17,-19.256
151,1436379715027,-7.318,-29.17,-19.256
152,1436379715047,-7.318,-29.17,-19.256
153,1436379715067,-7.318,-29.17,-19.256
154,1436379715087,-7.318,-29.17,-18.937
155,1436379715107,-7.318,-29.17,-18.937
156,1436379715127,-7.318,-29.17,-18.937
157,1436379715147,-7.318,-29.17,-18.937
158,1436379715167,-7.318,-29.17,-18.937
159,1436379715187,-7.318,-29.17,-18.937
160,1436379715207,-7.318,-29.17,-18.937
161,1436379715227,-7.318,-29.17,-18.937
162,1436379715247,-7.318,-29.17,-18.937
163,1436379715267,-7.637,-29.17,-18.937
164,1436379715287,-7.637,-29.17,-18.937
165,1436379715307,-7.637,-29.17,-18.937
166,1436379715327,-7.637,-29.17,-18.937
167,1436379715347,-7.637,-29.17,-18.937
168,1436379715367,-7.637,-29.17,-18.937
169,1436379715387,-7.637,-29.17,-18.937
170,1436379715407,-7.637,-29.17,-18.937
171,1436379715427,-7.637,-29.17,-18.937
172,1436379715447,-7.637,-29.17,-18.937
173,1436379715467,-7.637,-29.17,-18.937
174,1436379715487,-7.637,-29.17,-18.937
175,1436379715507,-7.637,-29.17,-18.937
176,1436379715527,-7.637,-29.17,-18.937
177,1436379715547,-7.637,-29.17,-18.937
178,1436379715567,-7.637,-29.17,-18.937
179,1436379715587,-7.637,-29.17,-18.937
180,1436379715607,-7.637,-29.17,-18.937
181,1436379715627,-7.637,-29.17,-18.937
182,1436379715647,-7.637,-29.17,-18.937
183,1436379715667,-7.637,-29.17,-18.937
184,1436379715687,-7.637,-29.17,-18.937
185,1436379715707,-7.637,-29.17,-18.937
186,1436379715727,-7.637,-29.17,-18.937
187,1436379715748,-7.637,-29.17,-18.937
188,1436379715768,-7.637,-29.17,-18.937
189,1436379715788,-7.637,-29.17,-18.937
190,1436379715807,-7.637,-29.17,-18.937
191,1436379715827,-7.637,-29.17,-18.937
192,1436379715847,-7.637,-29.17,-18.937
193,1436379715868,-7.637,-29.17,-18.937
194,1436379715888,-7.637,-29.17,-18.937
195,1436379715908,-7.637,-29.17,-18.937
196,1436379715928,-7.637,-29.17,-18.937
197,1436379715948,-7.637,-29.17,-18.937
198,1436379715968,-7.637,-29.17,-18.937
199,1436379715988,-7.637,-29.17,-18.937
200,1436379716008,-7.637,-29.17,-18.937
201,1436379716028,-7.637,-29.17,-18.937
202,1436379716048,-7.637,-29.17,-18.937
203,1436379716068,-7.637,-29.17,-18.937
204,1436379716088,-7.637,-29.17,-18.937
205,1436379716108,-7.637,-29.17,-18.937
206,1436379716128,-7.637,-29.17,-18.937
207,1436379716148,-7.637,-29.17,-18.937
208,1436379716168,-7.637,-29.17,-18.937
209,1436379716188,-7.637,-29.17,-18.937
210,1436379716208,-7.637,-29.17,-18.937
211,1436379716228,-7.637,-29.17,-18.937
212,1436379716248,-7.637,-29.17,-18.937
213,1436379716268,-7.637,-29.17,-18.937
214,1436379716288,-7.637,-29.17,-18.937
215,1436379716308,-7.637,-29.17,-18.937
216,1436379716328,-7.637,-29.17,-18.937
217,1436379716348,-7.637,-29.17,-18.937
218,1436379716368,-7.637,-29.17,-18.937
219,1436379716388,-7.637,-29.17,-18.937
220,1436379716408,-7.637,-29.17,-18.937
221,1436379716428,-7.637,-29.17,-18.937
222,1436379716448,-7.637,-29.17,-18.937
223,1436379716468,-7.637,-29.17,-18.937
224,1436379716488,-7.637,-29.17,-18.937
225,1436379716508,-7.637,-29.17,-18.937
226,1436379716528,-7.637,-29.17,-18.937
227,1436379716548,-7.637,-29.17,-18.937
228,1436379716568,-7.637,-29.17,-18.937
229,1436379716588,-7.637,-29.17,-18.937
230,1436379716608,-7.637,-29.17,-18.937
231,1436379716628,-7.637,-29.17,-18.937
232,1436379716648,-7.637,-29.17,-18.937
233,1436379716668,-7.637,-29.17,-18.937
234,1436379716688,-7.637,-29.17,-18.937
235,1436379716708,-7.637,-29.17,-18.937
236,1436379716728,-7.637,-29.17,-18.937
237,1436379716748,-7.637,-29.17,-18.937
238,1436379716768,-7.637,-29.17,-18.937
239,1436379716788,-7.637,-29.17,-18.937
240,1436379716808,-7.637,-29.17,-18.937
241,1436379716829,-7.637,-29.17,-18.937
242,1436379716849,-7.637,-29.17,-18.937
243,1436379716869,-7.637,-29.17,-18.937
244,1436379716889,-7.637,-29.17,-18.937
245,1436379716909,-7.637,-29.17,-18.937
246,1436379716928,-7.637,-29.17,-18.937
247,1436379716949,-7.637,-29.17,-18.937
248,1436379716969,-7.637,-29.17,-18.937
249,1436379716989,-7.637,-29.17,-18.937
250,1436379717009,-7.637,-29.17,-18.937
251,1436379717029,-7.637,-28.823,-18.937
252,1436379717049,-7.637,-28.823,-18.937
253,1436379717069,-7.637,-28.823,-18.937
254,1436379717089,-7.637,-28.823,-18.937
255,1436379717109,-7.637,-28.823,-18.937
256,1436379717129,-7.637,-28.823,-18.937
257,1436379717149,-7.637,-28.823,-18.937
258,1436379717169,-7.948,-28.823,-18.937
259,1436379717189,-7.948,-28.823,-18.937
260,1436379717209,-7.948,-28.823,-18.937
261,1436379717229,-7.948,-28.823,-18.937
262,1436379717249,-7.948,-28.823,-18.937
263,1436379717269,-7.948,-28.823,-18.937
264,1436379717289,-7.948,-28.823,-18.937
265,1436379717309,-7.948,-28.823,-18.937
266,1436379717329,-7.948,-28.823,-18.937
267,1436379717349,-7.948,-28.823,-18.937
268,1436379717369,-7.948,-28.823,-18.937
269,1436379717389,-7.948,-28.823,-18.937
270,1436379717410,-7.948,-28.823,-18.937
271,1436379717429,-7.948,-28.823,-18.937
272,1436379717449,-7.948,-29.158,-18.937
273,1436379717469,-7.948,-29.158,-18.937
274,1436379717489,-7.637,-29.158,-18.937
275,1436379717509,-7.637,-29.158,-18.937
276,1436379717529,-7.637,-29.158,-18.937
277,1436379717549,-7.637,-29.158,-18.937
278,1436379717569,-7.637,-29.158,-18.937
279,1436379717589,-7.637,-29.158,-18.937
280,1436379717609,-7.637,-29.158,-18.937
281,1436379717629,-7.637,-29.158,-18.937
282,1436379717651,-7.637,-29.158,-18.937
283,1436379717669,-7.637,-29.158,-18.937
284,1436379717689,-7.637,-29.158,-18.937
285,1436379717709,-7.637,-29.158,-18.937
286,1436379717729,-7.637,-29.158,-18.937
287,1436379717749,-7.637,-29.158,-18.937
288,1436379717769,-7.637,-29.158,-18.937
289,1436379717789,-7.637,-29.158,-18.937
290,1436379717809,-7.637,-29.158,-18.937
291,1436379717829,-7.637,-29.158,-18.937
292,1436379717849,-7.637,-29.158,-18.937
293,1436379717869,-7.637,-29.158,-18.937
294,1436379717892,-7.637,-29.158,-18.937
295,1436379717910,-7.637,-29.158,-18.937
296,1436379717930,-7.637,-29.158,-18.937
297,1436379717950,-7.637,-29.158,-18.937
298,1436379717970,-7.637,-29.158,-18.937
299,1436379717990,-7.637,-29.158,-18.937
300,1436379718010,-7.637,-29.158,-18.937
301,1436379718030,-7.637,-29.158,-18.937
302,1436379718050,-7.637,-29.158,-18.937
303,1436379718070,-7.637,-29.158,-18.937
304,1436379718090,-7.637,-29.158,-18.937
305,1436379718110,-7.637,-29.158,-18.937
306,1436379718130,-7.637,-29.158,-18.937
307,1436379718150,-7.637,-29.158,-18.937
308,1436379718170,-7.637,-29.158,-18.937
309,1436379718190,-7.637,-29.158,-18.937
310,1436379718210,-7.637,-29.158,-18.634
311,1436379718230,-7.637,-29.158,-18.634
312,1436379718250,-7.637,-29.158,-18.634
313,1436379718270,-7.637,-29.158,-18.634
314,1436379718290,-7.637,-29.158,-18.634
315,1436379718310,-7.637,-29.158,-18.634
316,1436379718330,-7.637,-29.158,-18.634
317,1436379718350,-7.637,-29.158,-18.634
318,1436379718370,-7.637,-29.158,-18.634
319,1436379718390,-7.637,-29.158,-18.634
320,1436379718410,-7.637,-29.158,-18.634
321,1436379718430,-7.637,-29.158,-18.634
322,1436379718450,-7.637,-29.158,-18.634
323,1436379718471,-7.637,-29.158,-18.634
324,1436379718490,-7.637,-29.158,-18.634
325,1436379718510,-7.637,-29.158,-18.634
326,1436379718530,-7.637,-29.158,-18.634
327,1436379718550,-7.637,-29.158,-18.634
328,1436379718570,-7.637,-29.158,-18.634
329,1436379718590,-7.637,-29.158,-18.634
330,1436379718610,-7.637,-29.158,-18.634
331,1436379718630,-7.637,-29.158,-18.634
332,1436379718650,-7.637,-29.158,-18.634
333,1436379718670,-7.637,-29.158,-18.634
334,1436379718690,-7.637,-29.158,-18.634
335,1436379718710,-7.637,-29.158,-18.634
336,1436379718730,-7.637,-29.158,-18.634
337,1436379718750,-7.637,-29.158,-18.634
338,1436379718770,-7.637,-29.158,-18.634
339,1436379718790,-7.637,-29.158,-18.634
340,1436379718810,-7.637,-29.158,-18.634
341,1436379718830,-7.637,-29.158,-18.634
342,1436379718850,-7.637,-29.158,-18.634
343,1436379718870,-7.637,-29.158,-18.634
344,1436379718890,-7.637,-29.158,-18.634
345,1436379718910,-7.637,-29.158,-18.634
346,1436379718930,-7.637,-29.158,-18.634
347,1436379718950,-7.637,-29.158,-18.634
348,1436379718970,-7.637,-29.158,-18.634
349,1436379718991,-7.637,-29.158,-18.634
350,1436379719011,-7.637,-29.158,-18.634
351,1436379719031,-7.637,-29.158,-18.634
352,1436379719051,-7.637,-29.158,-18.634
353,1436379719071,-7.637,-29.158,-18.634
354,1436379719091,-7.637,-29.158,-18.634
355,1436379719111,-7.637,-29.158,-18.634
356,1436379719131,-7.637,-29.158,-18.634
357,1436379719151,-7.637,-29.158,-18.634
358,1436379719171,-7.637,-29.158,-18.634
359,1436379719191,-7.637,-29.158,-18.634
360,1436379719211,-7.637,-29.158,-18.971
361,1436379719231,-7.637,-29.158,-18.971
362,1436379719251,-7.637,-29.158,-18.971
363,1436379719271,-7.637,-29.158,-18.971
364,1436379719291,-7.637,-29.158,-18.971
365,1436379719311,-7.637,-29.158,-18.971
366,1436379719331,-7.637,-29.158,-18.971
367,1436379719351,-7.637,-29.158,-19.296
368,1436379719371,-7.637,-29.158,-19.296
369,1436379719391,-7.637,-29.158,-19.296
370,1436379719411,-7.637,-29.158,-19.296
371,1436379719431,-7.637,-29.158,-19.296
372,1436379719451,-7.637,-29.158,-19.296
373,1436379719471,-7.637,-29.158,-19.296
374,1436379719491,-7.637,-29.158,-19.296
375,1436379719511,-7.637,-29.158,-19.296
376,1436379719531,-7.637,-29.158,-19.296
377,1436379719551,-7.637,-29.158,-19.296
378,1436379719571,-7.637,-29.158,-19.296
379,1436379719591,-7.637,-29.158,-19.296
380,1436379719611,-7.637,-29.158,-18.995
381,1436379719631,-7.637,-29.158,-18.995
382,1436379719651,-7.637,-29.158,-18.995
383,1436379719671,-7.637,-29.158,-18.995
384,1436379719691,-7.637,-29.158,-18.995
385,1436379719711,-7.637,-29.158,-18.995
386,1436379719731,-7.637,-29.158,-18.995
387,1436379719751,-7.637,-29.158,-18.995
388,1436379719771,-7.637,-29.158,-18.995
389,1436379719791,-7.637,-29.158,-18.995
390,1436379719811,-7.637,-29.158,-18.995
391,1436379719831,-7.334,-29.158,-18.995
392,1436379719851,-7.334,-29.158,-18.995
393,1436379719871,-7.334,-29.158,-18.995
394,1436379719891,-7.334,-29.158,-18.995
395,1436379719911,-7.334,-29.158,-18.995
396,1436379719931,-7.334,-29.158,-18.687
397,1436379719951,-7.334,-29.158,-18.687
398,1436379719971,-7.334,-29.158,-18.687
399,1436379719991,-7.334,-29.158,-18.687
400,1436379720012,-7.334,-29.158,-18.687
401,1436379720032,-7.334,-29.158,-18.687
402,1436379720053,-7.334,-29.158,-18.687
403,1436379720072,-7.334,-29.158,-18.687
404,1436379720092,-7.334,-29.158,-18.687
405,1436379720112,-7.334,-29.158,-18.687
406,1436379720132,-7.334,-29.158,-18.687
407,1436379720152,-7.334,-29.158,-18.687
408,1436379720172,-7.334,-29.158,-18.687
409,1436379720192,-7.334,-29.158,-18.687
410,1436379720212,-7.334,-29.158,-18.687
411,1436379720232,-7.334,-29.158,-18.687
412,1436379720252,-7.334,-29.158,-18.687
413,1436379720272,-7.334,-29.158,-18.687
414,1436379720292,-7.334,-29.158,-18.687
415,1436379720312,-7.334,-29.158,-18.687
416,1436379720332,-7.334,-29.158,-18.687
417,1436379720352,-7.334,-29.158,-18.687
418,1436379720372,-7.334,-29.158,-18.687
419,1436379720392,-7.334,-29.158,-18.687
420,1436379720412,-7.334,-29.158,-18.687
421,1436379720432,-7.334,-29.158,-18.687
422,1436379720452,-7.334,-29.158,-18.687
423,1436379720472,-7.334,-29.158,-18.687
424,1436379720492,-7.334,-29.158,-18.687
425,1436379720512,-7.334,-29.158,-18.687
426,1436379720532,-7.334,-29.158,-18.687
427,1436379720552,-7.334,-29.158,-18.687
428,1436379720572,-7.334,-29.158,-18.687
429,1436379720592,-7.334,-29.158,-18.687
430,1436379720612,-7.334,-29.158,-18.687
431,1436379720632,-7.334,-29.158,-18.687
432,1436379720652,-7.334,-29.158,-18.687
433,1436379720672,-7.334,-29.158,-18.687
434,1436379720692,-7.334,-29.158,-18.687
435,1436379720712,-7.334,-29.158,-18.687
436,1436379720732,-7.334,-29.158,-18.687
437,1436379720752,-7.334,-29.158,-18.687
438,1436379720772,-7.334,-29.158,-18.687
439,1436379720792,-7.334,-29.158,-18.687
440,1436379720812,-7.032,-29.158,-18.687
441,1436379720832,-7.032,-29.158,-18.687
442,1436379720852,-7.032,-29.158,-18.687
443,1436379720872,-7.032,-29.158,-18.687
444,1436379720892,-7.032,-29.158,-18.687
445,1436379720912,-7.032,-29.158,-18.687
446,1436379720932,-7.032,-29.158,-18.687
447,1436379720952,-7.032,-29.158,-18.687
448,1436379720972,-7.032,-29.158,-18.687
449,1436379720992,-7.032,-29.158,-18.687
450,1436379721013,-7.032,-29.461,-18.687
451,1436379721033,-7.032,-29.461,-18.687
452,1436379721053,-7.032,-29.461,-18.687
453,1436379721073,-7.032,-29.461,-18.687
454,1436379721093,-7.032,-29.461,-18.687
455,1436379721113,-7.032,-29.461,-18.687
456,1436379721133,-7.032,-29.461,-18.687
457,1436379721153,-7.336,-29.461,-18.687
458,1436379721173,-7.336,-29.461,-18.687
459,1436379721193,-7.336,-29.461,-18.687
460,1436379721213,-7.336,-29.461,-18.687
461,1436379721233,-7.73,-29.461,-18.687
462,1436379721253,-7.73,-29.461,-18.687
463,1436379721273,-7.73,-29.461,-18.687
464,1436379721293,-8.036,-29.461,-18.687
465,1436379721313,-8.036,-29.461,-18.687
466,1436379721333,-8.036,-29.461,-18.687
467,1436379721353,-8.43,-29.461,-18.687
468,1436379721373,-8.43,-29.461,-18.687
469,1436379721393,-8.761,-29.461,-18.687
470,1436379721413,-8.761,-29.141,-18.687
471,1436379721433,-9.123,-29.141,-18.687
472,1436379721453,-9.123,-29.141,-18.687
473,1436379721473,-9.542,-29.141,-18.348
474,1436379721493,-10.15,-28.831,-18.348
475,1436379721513,-10.568,-28.831,-18.348
476,1436379721533,-11.004,-28.831,-18.348
477,1436379721553,-11.72,-28.831,-18.348
478,1436379721573,-11.72,-28.483,-17.985
479,1436379721593,-12.37,-28.483,-17.985
480,1436379721613,-12.75,-28.483,-17.985
481,1436379721633,-13.087,-28.178,-17.657
482,1436379721654,-13.4,-28.178,-17.657
483,1436379721674,-13.847,-28.178,-17.657
484,1436379721693,-14.706,-27.859,-17.324
485,1436379721713,-15.223,-27.859,-17.324
486,1436379721733,-15.625,-27.859,-17.324
487,1436379721753,-16.053,-27.474,-16.958
488,1436379721773,-16.41,-27.474,-16.958
489,1436379721793,-16.891,-27.171,-16.65
490,1436379721813,-16.891,-27.171,-16.65
491,1436379721833,-17.646,-27.171,-16.65
492,1436379721853,-17.646,-26.786,-16.273
493,1436379721873,-16.558,-26.786,-16.273
494,1436379721893,-15.577,-26.786,-16.273
