id,attr_time,attr_light
1,1437229794039,341.0
2,1437229794057,341.0
3,1437229794079,341.0
4,1437229794126,341.0
5,1437229794127,341.0
6,1437229794148,341.0
7,1437229794157,342.0
8,1437229794177,342.0
9,1437229794197,342.0
10,1437229794217,342.0
11,1437229794238,342.0
12,1437229794257,342.0
13,1437229794279,342.0
14,1437229794303,343.0
15,1437229794318,343.0
16,1437229794340,343.0
17,1437229794360,343.0
18,1437229794380,343.0
19,1437229794400,343.0
20,1437229794420,344.0
21,1437229794441,344.0
22,1437229794457,344.0
23,1437229794481,343.0
24,1437229794500,343.0
25,1437229794520,344.0
26,1437229794538,344.0
27,1437229794559,344.0
28,1437229794581,344.0
29,1437229794601,343.0
30,1437229794621,343.0
31,1437229794639,343.0
32,1437229794660,344.0
33,1437229794680,344.0
34,1437229794701,344.0
35,1437229794721,344.0
36,1437229794741,344.0
37,1437229794758,344.0
38,1437229794779,344.0
39,1437229794798,344.0
40,1437229794818,345.0
41,1437229794870,345.0
42,1437229794871,344.0
43,1437229794888,344.0
44,1437229794898,344.0
45,1437229794921,344.0
46,1437229794939,344.0
47,1437229794960,344.0
48,1437229794979,344.0
49,1437229794998,344.0
50,1437229795019,344.0
51,1437229795042,344.0
52,1437229795058,344.0
53,1437229795084,344.0
54,1437229795100,344.0
55,1437229795121,344.0
56,1437229795141,345.0
57,1437229795161,345.0
58,1437229795181,344.0
59,1437229795201,344.0
60,1437229795221,345.0
61,1437229795241,345.0
62,1437229795261,345.0
63,1437229795279,345.0
64,1437229795301,344.0
65,1437229795319,344.0
66,1437229795339,344.0
67,1437229795360,344.0
68,1437229795381,344.0
69,1437229795402,344.0
70,1437229795420,344.0
71,1437229795442,344.0
72,1437229795458,344.0
73,1437229795480,344.0
74,1437229795501,344.0
75,1437229795521,344.0
76,1437229795543,344.0
77,1437229795594,344.0
78,1437229795595,343.0
79,1437229795611,343.0
80,1437229795618,343.0
81,1437229795639,343.0
82,1437229795661,343.0
83,1437229795679,343.0
84,1437229795700,343.0
85,1437229795718,343.0
86,1437229795742,343.0
87,1437229795764,343.0
88,1437229795779,343.0
89,1437229795800,343.0
90,1437229795822,343.0
91,1437229795842,343.0
92,1437229795862,343.0
93,1437229795885,342.0
94,1437229795900,342.0
95,1437229795920,342.0
96,1437229795940,342.0
97,1437229795962,342.0
98,1437229795982,342.0
99,1437229796001,343.0
100,1437229796022,342.0
101,1437229796042,342.0
102,1437229796062,343.0
103,1437229796082,343.0
104,1437229796100,343.0
105,1437229796122,343.0
106,1437229796142,342.0
107,1437229796162,342.0
108,1437229796182,343.0
109,1437229796202,343.0
110,1437229796219,343.0
111,1437229796239,342.0
112,1437229796261,342.0
113,1437229796323,343.0
114,1437229796324,343.0
115,1437229796325,343.0
116,1437229796349,343.0
117,1437229796359,343.0
118,1437229796382,343.0
119,1437229796399,343.0
120,1437229796421,343.0
121,1437229796440,343.0
122,1437229796460,343.0
123,1437229796480,343.0
124,1437229796502,343.0
125,1437229796521,343.0
126,1437229796540,344.0
127,1437229796561,344.0
128,1437229796583,343.0
129,1437229796603,343.0
130,1437229796623,344.0
131,1437229796643,344.0
132,1437229796663,343.0
133,1437229796683,344.0
134,1437229796703,344.0
135,1437229796723,344.0
136,1437229796745,344.0
137,1437229796761,344.0
138,1437229796780,344.0
139,1437229796800,344.0
140,1437229796820,344.0
141,1437229796840,344.0
142,1437229796862,344.0
143,1437229796880,344.0
144,1437229796900,344.0
145,1437229796919,344.0
146,1437229796962,344.0
147,1437229796963,344.0
148,1437229796980,345.0
149,1437229797000,345.0
150,1437229797052,344.0
151,1437229797053,344.0
152,1437229797061,345.0
153,1437229797100,345.0
154,1437229797101,345.0
155,1437229797120,345.0
156,1437229797140,345.0
157,1437229797160,345.0
158,1437229797180,345.0
159,1437229797211,345.0
160,1437229797220,345.0
161,1437229797240,345.0
162,1437229797263,345.0
163,1437229797280,345.0
164,1437229797300,345.0
165,1437229797320,345.0
166,1437229797340,345.0
167,1437229797360,346.0
168,1437229797379,345.0
169,1437229797399,345.0
170,1437229797421,345.0
171,1437229797441,345.0
172,1437229797460,345.0
173,1437229797479,345.0
174,1437229797500,345.0
175,1437229797521,345.0
176,1437229797540,345.0
177,1437229797565,345.0
178,1437229797582,345.0
179,1437229797601,345.0
180,1437229797620,345.0
181,1437229797639,345.0
182,1437229797660,345.0
183,1437229797681,345.0
184,1437229797702,345.0
185,1437229797722,345.0
186,1437229797740,345.0
187,1437229797759,345.0
188,1437229797779,345.0
189,1437229797799,345.0
190,1437229797825,345.0
191,1437229797841,345.0
192,1437229797859,345.0
193,1437229797882,345.0
194,1437229797899,345.0
195,1437229797920,345.0
196,1437229797940,345.0
197,1437229797960,345.0
198,1437229797980,345.0
199,1437229798000,345.0
200,1437229798020,345.0
201,1437229798040,345.0
202,1437229798060,345.0
203,1437229798080,345.0
204,1437229798100,345.0
205,1437229798120,344.0
206,1437229798141,344.0
207,1437229798162,345.0
208,1437229798182,345.0
209,1437229798204,344.0
210,1437229798227,344.0
211,1437229798243,344.0
212,1437229798262,344.0
213,1437229798280,344.0
214,1437229798301,345.0
215,1437229798322,345.0
216,1437229798341,345.0
217,1437229798383,345.0
218,1437229798384,345.0
219,1437229798401,345.0
220,1437229798422,346.0
221,1437229798441,346.0
222,1437229798462,346.0
223,1437229798482,346.0
224,1437229798502,346.0
225,1437229798522,346.0
226,1437229798544,346.0
227,1437229798564,346.0
228,1437229798583,346.0
229,1437229798605,346.0
230,1437229798625,346.0
231,1437229798642,346.0
232,1437229798667,346.0
233,1437229798682,346.0
234,1437229798704,345.0
235,1437229798727,345.0
236,1437229798743,345.0
237,1437229798762,345.0
238,1437229798785,345.0
239,1437229798805,345.0
240,1437229798826,344.0
241,1437229798844,344.0
242,1437229798865,344.0
243,1437229798884,344.0
244,1437229798905,343.0
245,1437229798926,342.0
246,1437229798946,342.0
247,1437229798966,340.0
248,1437229798986,340.0
249,1437229799005,339.0
250,1437229799083,339.0
251,1437229799084,336.0
252,1437229799085,336.0
253,1437229799086,334.0
254,1437229799106,334.0
255,1437229799127,333.0
256,1437229799142,333.0
257,1437229799162,332.0
258,1437229799195,332.0
259,1437229799203,332.0
260,1437229799223,333.0
261,1437229799242,333.0
262,1437229799263,334.0
263,1437229799287,334.0
264,1437229799305,336.0
265,1437229799326,336.0
266,1437229799346,337.0
267,1437229799365,337.0
268,1437229799385,340.0
269,1437229799406,344.0
270,1437229799425,344.0
271,1437229799446,347.0
272,1437229799464,347.0
273,1437229799483,348.0
274,1437229799506,348.0
275,1437229799525,347.0
276,1437229799546,347.0
277,1437229799564,349.0
278,1437229799585,349.0
279,1437229799606,351.0
280,1437229799625,350.0
281,1437229799643,350.0
282,1437229799674,349.0
283,1437229799687,349.0
284,1437229799713,347.0
285,1437229799723,347.0
286,1437229799744,345.0
287,1437229799797,345.0
288,1437229799798,345.0
289,1437229799814,345.0
290,1437229799823,345.0
291,1437229799848,346.0
292,1437229799866,346.0
293,1437229799883,348.0
294,1437229799906,348.0
295,1437229799923,350.0
296,1437229799945,350.0
297,1437229799965,352.0
298,1437229799984,352.0
299,1437229800003,357.0
300,1437229800026,357.0
301,1437229800045,363.0
302,1437229800066,370.0
303,1437229800086,370.0
304,1437229800106,378.0
305,1437229800126,378.0
306,1437229800145,385.0
307,1437229800166,385.0
308,1437229800187,393.0
309,1437229800204,393.0
310,1437229800226,399.0
311,1437229800244,399.0
312,1437229800264,402.0
313,1437229800284,404.0
314,1437229800308,404.0
315,1437229800328,406.0
316,1437229800348,406.0
317,1437229800366,409.0
318,1437229800384,409.0
319,1437229800403,410.0
320,1437229800425,410.0
321,1437229800446,410.0
322,1437229800464,410.0
323,1437229800531,408.0
324,1437229800532,404.0
325,1437229800533,404.0
326,1437229800543,401.0
327,1437229800568,401.0
328,1437229800587,399.0
329,1437229800603,399.0
330,1437229800626,399.0
331,1437229800646,399.0
332,1437229800665,399.0
333,1437229800691,399.0
334,1437229800705,399.0
335,1437229800725,399.0
336,1437229800747,396.0
337,1437229800765,392.0
338,1437229800787,392.0
339,1437229800807,389.0
340,1437229800827,389.0
341,1437229800847,385.0
342,1437229800867,385.0
343,1437229800887,381.0
344,1437229800908,381.0
345,1437229800925,378.0
346,1437229800947,378.0
347,1437229800965,375.0
348,1437229800984,374.0
349,1437229801004,374.0
350,1437229801029,376.0
351,1437229801047,376.0
352,1437229801070,380.0
353,1437229801087,380.0
354,1437229801105,386.0
355,1437229801124,386.0
356,1437229801144,391.0
357,1437229801166,391.0
358,1437229801185,395.0
359,1437229801269,399.0
360,1437229801270,399.0
361,1437229801271,404.0
362,1437229801272,404.0
363,1437229801284,412.0
364,1437229801307,412.0
365,1437229801324,420.0
366,1437229801349,420.0
367,1437229801364,428.0
368,1437229801386,428.0
369,1437229801405,432.0
370,1437229801427,427.0
371,1437229801447,427.0
372,1437229801464,419.0
373,1437229801486,419.0
374,1437229801507,409.0
375,1437229801527,409.0
376,1437229801547,408.0
377,1437229801567,408.0
378,1437229801587,419.0
379,1437229801607,419.0
380,1437229801626,433.0
381,1437229801646,440.0
382,1437229801667,440.0
383,1437229801690,438.0
384,1437229801704,438.0
385,1437229801726,430.0
386,1437229801750,430.0
387,1437229801770,420.0
388,1437229801790,420.0
389,1437229801807,412.0
390,1437229801826,412.0
391,1437229801845,407.0
392,1437229801867,407.0
393,1437229801887,407.0
394,1437229801905,409.0
395,1437229801961,409.0
396,1437229801974,415.0
397,1437229801975,415.0
398,1437229801985,422.0
399,1437229802009,422.0
400,1437229802036,430.0
401,1437229802045,430.0
402,1437229802070,438.0
403,1437229802096,445.0
404,1437229802105,445.0
405,1437229802125,451.0
406,1437229802145,451.0
407,1437229802165,456.0
408,1437229802188,456.0
409,1437229802208,463.0
410,1437229802228,463.0
411,1437229802248,468.0
412,1437229802268,468.0
413,1437229802288,475.0
414,1437229802308,481.0
415,1437229802328,481.0
416,1437229802347,485.0
417,1437229802368,485.0
418,1437229802388,486.0
419,1437229802407,486.0
420,1437229802427,486.0
421,1437229802447,486.0
422,1437229802468,486.0
423,1437229802488,486.0
424,1437229802509,487.0
425,1437229802528,487.0
426,1437229802545,487.0
427,1437229802565,490.0
428,1437229802586,490.0
429,1437229802613,494.0
430,1437229802713,494.0
431,1437229802714,498.0
432,1437229802715,498.0
433,1437229802716,503.0
434,1437229802717,503.0
435,1437229802738,509.0
436,1437229802745,509.0
437,1437229802767,513.0
438,1437229802787,516.0
439,1437229802807,516.0
440,1437229802825,518.0
441,1437229802846,518.0
442,1437229802866,519.0
443,1437229802888,519.0
444,1437229802906,518.0
445,1437229802928,518.0
446,1437229802949,517.0
447,1437229802969,517.0
448,1437229802989,515.0
449,1437229803009,512.0
450,1437229803029,512.0
451,1437229803049,511.0
452,1437229803069,511.0
453,1437229803090,510.0
454,1437229803107,510.0
455,1437229803129,507.0
456,1437229803147,507.0
457,1437229803168,504.0
458,1437229803186,504.0
459,1437229803211,500.0
460,1437229803231,497.0
461,1437229803251,497.0
462,1437229803269,495.0
463,1437229803286,495.0
464,1437229803306,493.0
465,1437229803327,493.0
466,1437229803347,493.0
467,1437229803366,493.0
468,1437229803421,494.0
469,1437229803422,494.0
470,1437229803434,497.0
471,1437229803446,500.0
472,1437229803470,500.0
473,1437229803486,503.0
474,1437229803507,503.0
475,1437229803528,505.0
476,1437229803546,505.0
477,1437229803566,507.0
478,1437229803588,507.0
479,1437229803607,509.0
480,1437229803627,509.0
481,1437229803648,511.0
482,1437229803667,512.0
483,1437229803687,512.0
484,1437229803706,513.0
485,1437229803727,513.0
486,1437229803746,513.0
487,1437229803770,513.0
488,1437229803789,513.0
489,1437229803809,513.0
490,1437229803829,513.0
491,1437229803850,513.0
492,1437229803869,511.0
493,1437229803890,509.0
494,1437229803909,509.0
495,1437229803930,506.0
496,1437229803948,506.0
497,1437229803970,504.0
498,1437229803989,504.0
499,1437229804010,502.0
500,1437229804030,502.0
501,1437229804050,500.0
502,1437229804067,500.0
503,1437229804093,499.0
504,1437229804161,499.0
505,1437229804162,499.0
506,1437229804163,499.0
507,1437229804171,499.0
508,1437229804187,500.0
509,1437229804207,500.0
510,1437229804226,501.0
511,1437229804249,501.0
512,1437229804267,503.0
513,1437229804287,503.0
514,1437229804309,505.0
515,1437229804328,505.0
516,1437229804350,506.0
517,1437229804369,507.0
518,1437229804390,507.0
519,1437229804410,508.0
520,1437229804430,508.0
521,1437229804450,510.0
522,1437229804471,510.0
523,1437229804490,511.0
524,1437229804510,511.0
525,1437229804530,512.0
526,1437229804548,512.0
527,1437229804570,512.0
528,1437229804590,511.0
529,1437229804610,511.0
530,1437229804627,510.0
531,1437229804649,510.0
532,1437229804678,508.0
533,1437229804693,508.0
534,1437229804712,506.0
535,1437229804728,506.0
536,1437229804749,504.0
537,1437229804768,504.0
538,1437229804789,503.0
539,1437229804808,501.0
540,1437229804828,501.0
541,1437229804897,500.0
542,1437229804898,500.0
543,1437229804899,499.0
544,1437229804907,499.0
545,1437229804927,497.0
546,1437229804948,497.0
547,1437229804967,497.0
548,1437229804989,497.0
549,1437229805007,495.0
550,1437229805029,494.0
551,1437229805052,494.0
552,1437229805068,493.0
553,1437229805093,493.0
554,1437229805110,492.0
555,1437229805130,492.0
556,1437229805150,491.0
557,1437229805171,491.0
558,1437229805191,491.0
559,1437229805211,491.0
560,1437229805231,491.0
561,1437229805250,492.0
562,1437229805271,492.0
563,1437229805288,495.0
564,1437229805310,495.0
565,1437229805331,498.0
566,1437229805350,498.0
567,1437229805370,502.0
568,1437229805390,502.0
569,1437229805411,507.0
570,1437229805431,507.0
571,1437229805452,511.0
572,1437229805471,514.0
573,1437229805490,514.0
574,1437229805508,515.0
575,1437229805530,515.0
576,1437229805548,517.0
577,1437229805572,517.0
578,1437229805657,517.0
579,1437229805658,517.0
580,1437229805659,518.0
581,1437229805660,518.0
582,1437229805677,518.0
583,1437229805710,516.0
584,1437229805711,516.0
585,1437229805728,512.0
586,1437229805754,512.0
587,1437229805768,508.0
588,1437229805791,508.0
589,1437229805813,502.0
590,1437229805829,502.0
591,1437229805851,497.0
592,1437229805871,497.0
593,1437229805890,492.0
594,1437229805911,487.0
595,1437229805929,487.0
596,1437229805951,484.0
597,1437229805971,484.0
598,1437229805992,481.0
599,1437229806012,481.0
600,1437229806031,479.0
601,1437229806051,479.0
602,1437229806072,478.0
603,1437229806089,478.0
604,1437229806109,477.0
605,1437229806129,477.0
606,1437229806153,478.0
607,1437229806173,479.0
608,1437229806194,479.0
609,1437229806210,481.0
610,1437229806229,481.0
611,1437229806248,485.0
612,1437229806269,485.0
613,1437229806290,488.0
614,1437229806313,488.0
615,1437229806433,491.0
616,1437229806434,491.0
617,1437229806435,495.0
618,1437229806436,500.0
619,1437229806453,500.0
620,1437229806454,503.0
621,1437229806455,503.0
622,1437229806474,506.0
623,1437229806492,506.0
624,1437229806509,508.0
625,1437229806533,508.0
626,1437229806551,510.0
627,1437229806569,510.0
628,1437229806589,511.0
629,1437229806609,512.0
630,1437229806631,512.0
631,1437229806649,512.0
632,1437229806675,512.0
633,1437229806689,512.0
634,1437229806710,512.0
635,1437229806729,509.0
636,1437229806749,509.0
637,1437229806769,505.0
638,1437229806789,505.0
639,1437229806809,502.0
640,1437229806829,498.0
641,1437229806849,498.0
642,1437229806869,494.0
643,1437229806889,494.0
644,1437229806909,490.0
645,1437229806932,490.0
646,1437229807024,487.0
647,1437229807025,487.0
648,1437229807027,485.0
649,1437229807028,485.0
650,1437229807032,483.0
651,1437229807050,482.0
652,1437229807083,482.0
653,1437229807089,481.0
654,1437229807108,481.0
655,1437229807128,480.0
656,1437229807149,480.0
657,1437229807171,480.0
658,1437229807193,480.0
659,1437229807210,481.0
660,1437229807233,481.0
661,1437229807254,482.0
662,1437229807274,485.0
663,1437229807289,485.0
664,1437229807311,487.0
665,1437229807333,487.0
666,1437229807350,490.0
667,1437229807374,490.0
668,1437229807394,492.0
669,1437229807413,492.0
670,1437229807432,495.0
671,1437229807454,495.0
672,1437229807475,498.0
673,1437229807490,501.0
674,1437229807514,501.0
675,1437229807534,504.0
676,1437229807550,504.0
677,1437229807570,506.0
678,1437229807591,506.0
679,1437229807618,507.0
680,1437229807633,507.0
681,1437229807667,507.0
682,1437229807680,507.0
683,1437229807785,508.0
684,1437229807786,507.0
685,1437229807787,507.0
686,1437229807788,505.0
687,1437229807789,505.0
688,1437229807793,503.0
689,1437229807814,503.0
690,1437229807837,501.0
691,1437229807882,501.0
692,1437229807883,499.0
693,1437229807901,499.0
694,1437229807911,496.0
695,1437229807937,496.0
696,1437229807953,494.0
697,1437229807971,491.0
698,1437229808006,491.0
699,1437229808010,490.0
700,1437229808032,490.0
701,1437229808051,489.0
702,1437229808072,489.0
703,1437229808091,489.0
704,1437229808114,489.0
705,1437229808131,487.0
706,1437229808151,487.0
707,1437229808174,487.0
708,1437229808194,487.0
709,1437229808214,487.0
710,1437229808233,487.0
711,1437229808252,487.0
712,1437229808273,488.0
713,1437229808294,488.0
714,1437229808313,488.0
715,1437229808334,488.0
716,1437229808355,489.0
717,1437229808372,489.0
718,1437229808393,491.0
719,1437229808412,491.0
720,1437229808432,491.0
721,1437229808451,493.0
722,1437229808479,493.0
723,1437229808495,495.0
724,1437229808513,495.0
725,1437229808530,497.0
726,1437229808554,497.0
727,1437229808571,499.0
728,1437229808595,499.0
729,1437229808616,501.0
730,1437229808632,502.0
731,1437229808655,502.0
732,1437229808679,503.0
733,1437229808695,503.0
734,1437229808714,502.0
735,1437229808734,502.0
736,1437229808755,502.0
737,1437229808779,502.0
738,1437229808794,500.0
739,1437229808815,500.0
740,1437229808836,498.0
741,1437229808853,496.0
742,1437229808872,496.0
743,1437229808896,494.0
744,1437229808914,494.0
745,1437229808935,493.0
746,1437229808955,493.0
747,1437229808975,492.0
748,1437229808994,492.0
749,1437229809015,491.0
750,1437229809038,491.0
751,1437229809052,490.0
752,1437229809075,489.0
753,1437229809095,489.0
754,1437229809114,488.0
755,1437229809143,488.0
756,1437229809153,488.0
757,1437229809200,488.0
758,1437229809201,487.0
759,1437229809220,487.0
760,1437229809232,487.0
761,1437229809252,487.0
762,1437229809272,487.0
763,1437229809294,488.0
764,1437229809316,488.0
765,1437229809332,489.0
766,1437229809353,489.0
767,1437229809375,489.0
768,1437229809393,489.0
769,1437229809412,492.0
770,1437229809436,492.0
771,1437229809455,494.0
772,1437229809475,494.0
773,1437229809496,497.0
774,1437229809515,498.0
775,1437229809536,498.0
776,1437229809556,499.0
777,1437229809575,499.0
778,1437229809596,502.0
779,1437229809612,502.0
780,1437229809635,503.0
781,1437229809656,503.0
782,1437229809683,505.0
783,1437229809697,505.0
784,1437229809715,506.0
785,1437229809735,506.0
786,1437229809756,505.0
787,1437229809775,502.0
788,1437229809796,502.0
789,1437229809817,501.0
790,1437229809836,501.0
791,1437229809855,498.0
792,1437229809876,498.0
793,1437229809942,496.0
794,1437229809943,496.0
795,1437229809944,494.0
796,1437229809952,494.0
797,1437229809974,492.0
798,1437229809995,490.0
799,1437229810013,490.0
800,1437229810033,489.0
801,1437229810053,489.0
802,1437229810077,488.0
803,1437229810093,488.0
804,1437229810114,488.0
805,1437229810133,488.0
806,1437229810156,488.0
807,1437229810176,488.0
808,1437229810196,488.0
809,1437229810216,489.0
810,1437229810236,489.0
811,1437229810255,490.0
812,1437229810276,490.0
813,1437229810296,491.0
814,1437229810318,491.0
815,1437229810336,493.0
816,1437229810362,493.0
817,1437229810372,495.0
818,1437229810392,495.0
819,1437229810416,496.0
820,1437229810437,498.0
821,1437229810457,498.0
822,1437229810478,499.0
823,1437229810495,499.0
824,1437229810513,501.0
825,1437229810534,501.0
826,1437229810553,502.0
827,1437229810576,502.0
828,1437229810594,504.0
829,1437229810659,504.0
830,1437229810662,504.0
831,1437229810663,504.0
832,1437229810698,504.0
833,1437229810699,505.0
834,1437229810713,505.0
835,1437229810743,505.0
836,1437229810755,505.0
