id,attr_time,attr_light
1,1437229794036,0.0
2,1437229794055,0.0
3,1437229794077,0.0
4,1437229794096,0.0
5,1437229794117,0.0
6,1437229794135,0.0
7,1437229794155,0.0
8,1437229794178,0.0
9,1437229794206,0.0
10,1437229794215,0.0
11,1437229794235,0.0
12,1437229794255,0.0
13,1437229794275,0.0
14,1437229794297,0.0
15,1437229794316,0.0
16,1437229794336,0.0
17,1437229794358,0.0
18,1437229794375,0.0
19,1437229794396,0.0
20,1437229794415,0.0
21,1437229794436,0.0
22,1437229794457,0.0
23,1437229794475,0.0
24,1437229794496,0.0
25,1437229794516,0.0
26,1437229794535,0.0
27,1437229794558,0.0
28,1437229794579,0.0
29,1437229794599,0.0
30,1437229794616,0.0
31,1437229794640,0.0
32,1437229794662,0.0
33,1437229794681,0.0
34,1437229794698,0.0
35,1437229794717,0.0
36,1437229794753,0.0
37,1437229794757,0.0
38,1437229794879,0.0
39,1437229794881,0.0
40,1437229794882,0.0
41,1437229794883,0.0
42,1437229794884,0.0
43,1437229794904,0.0
44,1437229794905,0.0
45,1437229794917,0.0
46,1437229794937,0.0
47,1437229794969,0.0
48,1437229794988,0.0
49,1437229794996,0.0
50,1437229795016,0.0
51,1437229795037,0.0
52,1437229795056,0.0
53,1437229795080,0.0
54,1437229795101,0.0
55,1437229795118,0.0
56,1437229795140,0.0
57,1437229795159,0.0
58,1437229795176,0.0
59,1437229795201,0.0
60,1437229795218,0.0
61,1437229795238,0.0
62,1437229795260,0.0
63,1437229795278,0.0
64,1437229795300,0.0
65,1437229795319,0.0
66,1437229795340,0.0
67,1437229795361,0.0
68,1437229795379,0.0
69,1437229795399,0.0
70,1437229795417,0.0
71,1437229795440,0.0
72,1437229795461,0.0
73,1437229795478,0.0
74,1437229795497,0.0
75,1437229795535,0.0
76,1437229795540,0.0
77,1437229795557,0.0
78,1437229795583,0.0
79,1437229795599,0.0
80,1437229795617,0.0
81,1437229795641,0.0
82,1437229795657,0.0
83,1437229795698,0.0
84,1437229795699,0.0
85,1437229795719,0.0
86,1437229795739,1.0
87,1437229795761,1.0
88,1437229795780,1.0
89,1437229795801,1.0
90,1437229795821,1.0
91,1437229795840,1.0
92,1437229795861,1.0
93,1437229795880,1.0
94,1437229795901,1.0
95,1437229795920,1.0
96,1437229795941,1.0
97,1437229795960,1.0
98,1437229795980,1.0
99,1437229796001,1.0
100,1437229796020,1.0
101,1437229796041,1.0
102,1437229796058,1.0
103,1437229796079,1.0
104,1437229796101,1.0
105,1437229796120,1.0
106,1437229796141,1.0
107,1437229796162,1.0
108,1437229796178,1.0
109,1437229796200,1.0
110,1437229796227,1.0
111,1437229796298,1.0
112,1437229796299,1.0
113,1437229796300,1.0
114,1437229796301,1.0
115,1437229796322,1.0
116,1437229796338,1.0
117,1437229796358,1.0
118,1437229796383,1.0
119,1437229796398,1.0
120,1437229796419,1.0
121,1437229796439,1.0
122,1437229796458,1.0
123,1437229796485,1.0
124,1437229796501,1.0
125,1437229796521,1.0
126,1437229796542,1.0
127,1437229796562,1.0
128,1437229796581,1.0
129,1437229796601,1.0
130,1437229796623,1.0
131,1437229796642,1.0
132,1437229796659,1.0
133,1437229796683,1.0
134,1437229796702,1.0
135,1437229796721,1.0
136,1437229796745,1.0
137,1437229796762,1.0
138,1437229796780,1.0
139,1437229796801,1.0
140,1437229796821,1.0
141,1437229796842,1.0
142,1437229796860,1.0
143,1437229796882,1.0
144,1437229796903,1.0
145,1437229796922,1.0
146,1437229796941,1.0
147,1437229796962,1.0
148,1437229797030,1.0
149,1437229797031,1.0
150,1437229797032,1.0
151,1437229797040,1.0
152,1437229797069,1.0
153,1437229797082,1.0
154,1437229797099,1.0
155,1437229797119,1.0
156,1437229797140,1.0
157,1437229797162,1.0
158,1437229797179,1.0
159,1437229797202,1.0
160,1437229797219,1.0
161,1437229797242,1.0
162,1437229797262,1.0
163,1437229797282,1.0
164,1437229797303,1.0
165,1437229797322,1.0
166,1437229797342,1.0
167,1437229797362,1.0
168,1437229797382,1.0
169,1437229797405,1.0
170,1437229797419,1.0
171,1437229797442,1.0
172,1437229797462,1.0
173,1437229797482,1.0
174,1437229797502,1.0
175,1437229797522,1.0
176,1437229797542,1.0
177,1437229797562,1.0
178,1437229797583,1.0
179,1437229797609,1.0
180,1437229797625,1.0
181,1437229797656,1.0
182,1437229797662,1.0
183,1437229797765,1.0
184,1437229797766,1.0
185,1437229797767,1.0
186,1437229797768,1.0
187,1437229797769,1.0
188,1437229797859,1.0
189,1437229797860,1.0
190,1437229797861,1.0
191,1437229797862,1.0
192,1437229797863,1.0
193,1437229797938,1.0
194,1437229797957,1.0
195,1437229797959,1.0
196,1437229797960,1.0
197,1437229797961,1.0
198,1437229797998,1.0
199,1437229798001,1.0
200,1437229798020,1.0
201,1437229798040,1.0
202,1437229798060,1.0
203,1437229798092,1.0
204,1437229798100,1.0
205,1437229798119,1.0
206,1437229798140,1.0
207,1437229798162,1.0
208,1437229798183,1.0
209,1437229798201,1.0
210,1437229798220,1.0
211,1437229798240,1.0
212,1437229798261,1.0
213,1437229798283,1.0
214,1437229798303,1.0
215,1437229798323,1.0
216,1437229798344,1.0
217,1437229798361,1.0
218,1437229798381,1.0
219,1437229798402,1.0
220,1437229798424,1.0
221,1437229798441,1.0
222,1437229798463,1.0
223,1437229798480,1.0
224,1437229798501,1.0
225,1437229798522,1.0
226,1437229798543,1.0
227,1437229798561,1.0
228,1437229798580,1.0
229,1437229798599,1.0
230,1437229798621,1.0
231,1437229798641,1.0
232,1437229798664,1.0
233,1437229798684,1.0
234,1437229798702,1.0
235,1437229798724,1.0
236,1437229798742,1.0
237,1437229798764,1.0
238,1437229798784,1.0
239,1437229798804,1.0
240,1437229798824,1.0
241,1437229798840,1.0
242,1437229798864,1.0
243,1437229798882,1.0
244,1437229798902,1.0
245,1437229798922,1.0
246,1437229798942,1.0
247,1437229798964,1.0
248,1437229798984,1.0
249,1437229799004,1.0
250,1437229799022,1.0
251,1437229799043,1.0
252,1437229799060,1.0
253,1437229799083,1.0
254,1437229799102,1.0
255,1437229799167,1.0
256,1437229799168,1.0
257,1437229799169,1.0
258,1437229799188,1.0
259,1437229799201,1.0
260,1437229799222,1.0
261,1437229799241,1.0
262,1437229799266,1.0
263,1437229799282,1.0
264,1437229799302,1.0
265,1437229799322,1.0
266,1437229799342,1.0
267,1437229799364,1.0
268,1437229799381,1.0
269,1437229799404,1.0
270,1437229799424,1.0
271,1437229799444,1.0
272,1437229799463,1.0
273,1437229799485,1.0
274,1437229799504,1.0
275,1437229799524,1.0
276,1437229799544,1.0
277,1437229799562,1.0
278,1437229799585,1.0
279,1437229799604,1.0
280,1437229799624,1.0
281,1437229799644,1.0
282,1437229799663,1.0
283,1437229799683,1.0
284,1437229799704,1.0
285,1437229799723,1.0
286,1437229799744,1.0
287,1437229799764,1.0
288,1437229799785,1.0
289,1437229799802,1.0
290,1437229799832,1.0
291,1437229799883,1.0
292,1437229799884,1.0
293,1437229799885,1.0
294,1437229799902,1.0
295,1437229799925,1.0
296,1437229799944,1.0
297,1437229799963,1.0
298,1437229799981,1.0
299,1437229800004,1.0
300,1437229800022,1.0
301,1437229800043,1.0
302,1437229800063,1.0
303,1437229800084,1.0
304,1437229800105,1.0
305,1437229800125,1.0
306,1437229800145,1.0
307,1437229800165,1.0
308,1437229800185,1.0
309,1437229800205,1.0
310,1437229800225,1.0
311,1437229800245,1.0
312,1437229800265,1.0
313,1437229800286,1.0
314,1437229800304,1.0
315,1437229800325,1.0
316,1437229800343,1.0
317,1437229800364,1.0
318,1437229800384,1.0
319,1437229800406,1.0
320,1437229800426,1.0
321,1437229800447,1.0
322,1437229800465,1.0
323,1437229800482,1.0
324,1437229800504,1.0
325,1437229800524,1.0
326,1437229800544,1.0
327,1437229800564,1.0
328,1437229800615,1.0
329,1437229800616,1.0
330,1437229800622,1.0
331,1437229800642,1.0
332,1437229800663,1.0
333,1437229800684,1.0
334,1437229800702,1.0
335,1437229800722,1.0
336,1437229800746,1.0
337,1437229800763,1.0
338,1437229800784,1.0
339,1437229800803,1.0
340,1437229800826,1.0
341,1437229800846,1.0
342,1437229800866,1.0
343,1437229800886,1.0
344,1437229800906,1.0
345,1437229800926,1.0
346,1437229800946,2.0
347,1437229800966,2.0
348,1437229800985,2.0
349,1437229801006,2.0
350,1437229801025,2.0
351,1437229801046,2.0
352,1437229801063,2.0
353,1437229801086,2.0
354,1437229801106,2.0
355,1437229801126,2.0
356,1437229801144,2.0
357,1437229801165,2.0
358,1437229801185,2.0
359,1437229801205,2.0
360,1437229801226,2.0
361,1437229801246,2.0
362,1437229801264,2.0
363,1437229801290,2.0
364,1437229801348,2.0
365,1437229801371,2.0
366,1437229801372,2.0
367,1437229801373,2.0
368,1437229801394,1.0
369,1437229801403,1.0
370,1437229801423,1.0
371,1437229801443,1.0
372,1437229801463,1.0
373,1437229801483,1.0
374,1437229801505,1.0
375,1437229801523,1.0
376,1437229801545,1.0
377,1437229801563,0.0
378,1437229801584,0.0
379,1437229801603,0.0
380,1437229801623,0.0
381,1437229801643,0.0
382,1437229801663,0.0
383,1437229801683,0.0
384,1437229801703,0.0
385,1437229801722,1.0
386,1437229801742,1.0
387,1437229801762,1.0
388,1437229801788,1.0
389,1437229801808,1.0
390,1437229801825,1.0
391,1437229801843,1.0
392,1437229801862,1.0
393,1437229801882,1.0
394,1437229801908,1.0
395,1437229801926,1.0
396,1437229801948,1.0
397,1437229801966,1.0
398,1437229801985,1.0
399,1437229802011,1.0
400,1437229802028,1.0
401,1437229802044,1.0
402,1437229802063,1.0
403,1437229802085,1.0
404,1437229802105,1.0
405,1437229802123,1.0
406,1437229802145,1.0
407,1437229802167,1.0
408,1437229802187,1.0
409,1437229802207,1.0
410,1437229802225,1.0
411,1437229802248,1.0
412,1437229802268,1.0
413,1437229802288,1.0
414,1437229802308,1.0
415,1437229802325,1.0
416,1437229802346,1.0
417,1437229802364,1.0
418,1437229802388,1.0
419,1437229802408,1.0
420,1437229802424,1.0
421,1437229802446,1.0
422,1437229802468,1.0
423,1437229802487,1.0
424,1437229802507,1.0
425,1437229802526,1.0
426,1437229802546,1.0
427,1437229802567,1.0
428,1437229802584,1.0
429,1437229802605,1.0
430,1437229802625,1.0
431,1437229802643,1.0
432,1437229802674,1.0
433,1437229802691,1.0
434,1437229802705,1.0
435,1437229802725,1.0
436,1437229802758,1.0
437,1437229802766,1.0
438,1437229802785,1.0
439,1437229802804,1.0
440,1437229802827,1.0
441,1437229802847,1.0
442,1437229802865,1.0
443,1437229802886,1.0
444,1437229802906,1.0
445,1437229802927,1.0
446,1437229802945,1.0
447,1437229802964,1.0
448,1437229802984,1.0
449,1437229803004,1.0
450,1437229803026,1.0
451,1437229803046,1.0
452,1437229803065,1.0
453,1437229803085,1.0
454,1437229803107,1.0
455,1437229803128,1.0
456,1437229803151,1.0
457,1437229803164,1.0
458,1437229803184,1.0
459,1437229803204,1.0
460,1437229803225,1.0
461,1437229803245,1.0
462,1437229803266,1.0
463,1437229803285,0.0
464,1437229803311,0.0
465,1437229803325,0.0
466,1437229803414,0.0
467,1437229803415,0.0
468,1437229803416,0.0
469,1437229803417,0.0
470,1437229803450,0.0
471,1437229803451,0.0
472,1437229803465,0.0
473,1437229803485,0.0
474,1437229803505,0.0
475,1437229803525,0.0
476,1437229803545,0.0
477,1437229803566,0.0
478,1437229803585,0.0
479,1437229803605,0.0
480,1437229803625,0.0
481,1437229803645,0.0
482,1437229803665,0.0
483,1437229803685,0.0
484,1437229803705,0.0
485,1437229803724,0.0
486,1437229803744,0.0
487,1437229803764,0.0
488,1437229803786,0.0
489,1437229803805,1.0
490,1437229803826,1.0
491,1437229803845,1.0
492,1437229803864,1.0
493,1437229803885,1.0
494,1437229803905,1.0
495,1437229803926,1.0
496,1437229803946,1.0
497,1437229803964,1.0
498,1437229803984,1.0
499,1437229804006,1.0
500,1437229804025,1.0
501,1437229804045,1.0
502,1437229804064,1.0
503,1437229804087,1.0
504,1437229804105,1.0
505,1437229804124,1.0
506,1437229804145,1.0
507,1437229804166,1.0
508,1437229804185,1.0
509,1437229804205,1.0
510,1437229804227,1.0
511,1437229804249,1.0
512,1437229804268,1.0
513,1437229804286,1.0
514,1437229804309,1.0
515,1437229804329,1.0
516,1437229804346,1.0
517,1437229804367,1.0
518,1437229804385,1.0
519,1437229804406,1.0
520,1437229804426,1.0
521,1437229804447,1.0
522,1437229804468,1.0
523,1437229804486,1.0
524,1437229804508,1.0
525,1437229804525,1.0
526,1437229804550,1.0
527,1437229804570,1.0
528,1437229804587,1.0
529,1437229804610,1.0
530,1437229804627,1.0
531,1437229804648,1.0
532,1437229804667,1.0
533,1437229804686,1.0
534,1437229804747,1.0
535,1437229804748,1.0
536,1437229804749,1.0
537,1437229804767,1.0
538,1437229804790,1.0
539,1437229804807,1.0
540,1437229804827,1.0
541,1437229804846,1.0
542,1437229804867,1.0
543,1437229804927,1.0
544,1437229804928,1.0
545,1437229804929,1.0
546,1437229804949,1.0
547,1437229804967,1.0
548,1437229804989,1.0
549,1437229805009,1.0
550,1437229805027,1.0
551,1437229805050,1.0
552,1437229805067,1.0
553,1437229805088,1.0
554,1437229805109,1.0
555,1437229805127,1.0
556,1437229805148,1.0
557,1437229805170,1.0
558,1437229805187,1.0
559,1437229805206,1.0
560,1437229805226,1.0
561,1437229805246,1.0
562,1437229805272,1.0
563,1437229805287,1.0
564,1437229805311,1.0
565,1437229805327,1.0
566,1437229805347,1.0
567,1437229805367,1.0
568,1437229805388,1.0
569,1437229805409,1.0
570,1437229805429,1.0
571,1437229805478,1.0
572,1437229805479,1.0
573,1437229805500,1.0
574,1437229805507,1.0
575,1437229805527,1.0
576,1437229805549,1.0
577,1437229805567,1.0
578,1437229805591,1.0
579,1437229805611,1.0
580,1437229805629,1.0
581,1437229805648,1.0
582,1437229805678,1.0
583,1437229805689,1.0
584,1437229805708,1.0
585,1437229805728,1.0
586,1437229805749,1.0
587,1437229805771,1.0
588,1437229805789,1.0
589,1437229805809,1.0
590,1437229805830,1.0
591,1437229805849,1.0
592,1437229805871,1.0
593,1437229805889,1.0
594,1437229805908,1.0
595,1437229805928,1.0
596,1437229805949,1.0
597,1437229805970,1.0
598,1437229805989,1.0
599,1437229806010,1.0
600,1437229806031,1.0
601,1437229806051,1.0
602,1437229806069,1.0
603,1437229806090,1.0
604,1437229806111,1.0
605,1437229806130,1.0
606,1437229806149,1.0
607,1437229806169,1.0
608,1437229806300,1.0
609,1437229806301,1.0
610,1437229806302,1.0
611,1437229806303,1.0
612,1437229806304,1.0
613,1437229806305,1.0
614,1437229806314,1.0
615,1437229806339,1.0
616,1437229806348,1.0
617,1437229806379,1.0
618,1437229806388,1.0
619,1437229806408,1.0
620,1437229806431,1.0
621,1437229806447,1.0
622,1437229806467,1.0
623,1437229806487,1.0
624,1437229806508,1.0
625,1437229806528,1.0
626,1437229806548,1.0
627,1437229806568,1.0
628,1437229806588,1.0
629,1437229806608,1.0
630,1437229806631,1.0
631,1437229806650,1.0
632,1437229806671,1.0
633,1437229806691,1.0
634,1437229806711,1.0
635,1437229806727,1.0
636,1437229806748,1.0
637,1437229806771,1.0
638,1437229806791,1.0
639,1437229806811,1.0
640,1437229806831,1.0
641,1437229806852,1.0
642,1437229806871,1.0
643,1437229806889,1.0
644,1437229806911,1.0
645,1437229806931,1.0
646,1437229806949,1.0
647,1437229806967,1.0
648,1437229806987,1.0
649,1437229807012,1.0
650,1437229807028,1.0
651,1437229807049,1.0
652,1437229807069,1.0
653,1437229807091,1.0
654,1437229807112,1.0
655,1437229807133,1.0
656,1437229807151,1.0
657,1437229807172,1.0
658,1437229807192,1.0
659,1437229807211,1.0
660,1437229807229,1.0
661,1437229807252,1.0
662,1437229807270,1.0
663,1437229807292,1.0
664,1437229807312,1.0
665,1437229807329,1.0
666,1437229807350,1.0
667,1437229807370,1.0
668,1437229807393,1.0
669,1437229807413,1.0
670,1437229807434,1.0
671,1437229807451,1.0
672,1437229807469,1.0
673,1437229807490,1.0
674,1437229807508,1.0
675,1437229807531,1.0
676,1437229807552,1.0
677,1437229807652,1.0
678,1437229807653,1.0
679,1437229807656,1.0
680,1437229807657,1.0
681,1437229807658,1.0
682,1437229807671,1.0
683,1437229807709,1.0
684,1437229807710,1.0
685,1437229807736,1.0
686,1437229807761,1.0
687,1437229807771,1.0
688,1437229807791,1.0
689,1437229807813,1.0
690,1437229807831,1.0
691,1437229807852,1.0
692,1437229807872,1.0
693,1437229807892,1.0
694,1437229807912,1.0
695,1437229807932,1.0
696,1437229807951,1.0
697,1437229807972,1.0
698,1437229807992,1.0
699,1437229808012,1.0
700,1437229808029,1.0
701,1437229808049,1.0
702,1437229808069,1.0
703,1437229808090,1.0
704,1437229808110,1.0
705,1437229808131,1.0
706,1437229808154,1.0
707,1437229808174,1.0
708,1437229808194,1.0
709,1437229808212,1.0
710,1437229808232,1.0
711,1437229808252,1.0
712,1437229808271,1.0
713,1437229808292,1.0
714,1437229808311,1.0
715,1437229808394,1.0
716,1437229808395,1.0
717,1437229808396,1.0
718,1437229808397,1.0
719,1437229808422,1.0
720,1437229808429,1.0
721,1437229808452,1.0
722,1437229808470,1.0
723,1437229808491,1.0
724,1437229808510,1.0
725,1437229808530,1.0
726,1437229808556,1.0
727,1437229808570,1.0
728,1437229808590,1.0
729,1437229808611,1.0
730,1437229808631,1.0
731,1437229808653,1.0
732,1437229808671,1.0
733,1437229808691,1.0
734,1437229808712,1.0
735,1437229808730,1.0
736,1437229808758,1.0
737,1437229808772,1.0
738,1437229808790,1.0
739,1437229808810,1.0
740,1437229808830,1.0
741,1437229808850,1.0
742,1437229808870,1.0
743,1437229808894,1.0
744,1437229808910,1.0
745,1437229808930,1.0
746,1437229808951,1.0
747,1437229808970,1.0
748,1437229808990,1.0
749,1437229809013,1.0
750,1437229809031,1.0
751,1437229809138,1.0
752,1437229809139,1.0
753,1437229809140,1.0
754,1437229809141,1.0
755,1437229809142,1.0
756,1437229809157,1.0
757,1437229809170,1.0
758,1437229809199,1.0
759,1437229809214,1.0
760,1437229809231,1.0
761,1437229809250,1.0
762,1437229809272,1.0
763,1437229809291,1.0
764,1437229809314,1.0
765,1437229809334,1.0
766,1437229809349,1.0
767,1437229809374,1.0
768,1437229809395,1.0
769,1437229809415,1.0
770,1437229809434,1.0
771,1437229809455,1.0
772,1437229809474,1.0
773,1437229809495,1.0
774,1437229809511,1.0
775,1437229809534,1.0
776,1437229809555,1.0
777,1437229809575,1.0
778,1437229809595,1.0
779,1437229809615,1.0
780,1437229809634,1.0
781,1437229809654,1.0
782,1437229809674,1.0
783,1437229809692,1.0
784,1437229809715,1.0
785,1437229809733,1.0
786,1437229809753,1.0
787,1437229809780,1.0
788,1437229809835,1.0
789,1437229809836,1.0
790,1437229809837,1.0
791,1437229809855,1.0
792,1437229809873,1.0
793,1437229809892,1.0
794,1437229809912,1.0
795,1437229809931,1.0
796,1437229809953,1.0
797,1437229809972,1.0
798,1437229809992,1.0
799,1437229810016,1.0
800,1437229810032,1.0
801,1437229810051,1.0
802,1437229810071,1.0
803,1437229810094,1.0
804,1437229810114,1.0
805,1437229810134,1.0
806,1437229810155,1.0
807,1437229810175,1.0
808,1437229810195,1.0
809,1437229810215,1.0
810,1437229810234,1.0
811,1437229810253,1.0
812,1437229810274,1.0
813,1437229810295,1.0
814,1437229810313,1.0
815,1437229810333,1.0
816,1437229810355,1.0
817,1437229810376,1.0
818,1437229810392,1.0
819,1437229810416,1.0
820,1437229810435,1.0
821,1437229810452,1.0
822,1437229810472,1.0
823,1437229810494,1.0
824,1437229810522,1.0
825,1437229810594,1.0
826,1437229810595,1.0
827,1437229810596,1.0
828,1437229810597,1.0
829,1437229810612,1.0
830,1437229810634,1.0
831,1437229810652,1.0
832,1437229810673,1.0
833,1437229810694,1.0
834,1437229810712,1.0
835,1437229810733,1.0
836,1437229810753,1.0
837,1437229810775,1.0
838,1437229810792,1.0
839,1437229810814,1.0
840,1437229810835,1.0
841,1437229810855,1.0
842,1437229810875,1.0
843,1437229810895,1.0
844,1437229810914,1.0
845,1437229810936,1.0
846,1437229810955,1.0
847,1437229810976,1.0
848,1437229810993,1.0
849,1437229811012,1.0
850,1437229811033,1.0
851,1437229811053,1.0
852,1437229811072,1.0
853,1437229811098,1.0
854,1437229811117,1.0
855,1437229811138,1.0
856,1437229811156,1.0
857,1437229811172,1.0
858,1437229811192,1.0
859,1437229811308,1.0
860,1437229811309,1.0
861,1437229811310,1.0
862,1437229811341,1.0
863,1437229811342,1.0
864,1437229811343,1.0
865,1437229811344,1.0
866,1437229811354,1.0
867,1437229811373,1.0
868,1437229811393,1.0
869,1437229811413,1.0
870,1437229811433,1.0
871,1437229811452,1.0
872,1437229811474,1.0
873,1437229811493,1.0
874,1437229811513,1.0
875,1437229811536,1.0
876,1437229811553,1.0
877,1437229811575,1.0
878,1437229811593,1.0
879,1437229811613,1.0
880,1437229811633,1.0
881,1437229811653,1.0
882,1437229811673,1.0
883,1437229811693,1.0
884,1437229811713,1.0
885,1437229811732,1.0
886,1437229811752,1.0
887,1437229811774,1.0
888,1437229811793,1.0
889,1437229811816,1.0
890,1437229811832,1.0
891,1437229811853,1.0
892,1437229811872,1.0
893,1437229811892,1.0
894,1437229811914,1.0
895,1437229811935,1.0
896,1437229811955,1.0
897,1437229811975,1.0
898,1437229811993,1.0
899,1437229812015,1.0
900,1437229812036,1.0
901,1437229812052,1.0
902,1437229812072,1.0
903,1437229812092,1.0
904,1437229812115,1.0
905,1437229812136,1.0
906,1437229812153,1.0
907,1437229812177,1.0
908,1437229812197,1.0
909,1437229812217,1.0
910,1437229812235,1.0
911,1437229812253,1.0
912,1437229812277,1.0
