id,attr_time,attr_light
1,1437139316412,1.0
2,1437139316433,1.0
3,1437139316455,1.0
4,1437139316472,1.0
5,1437139316494,1.0
6,1437139316515,1.0
7,1437139316534,1.0
8,1437139316555,1.0
9,1437139316576,1.0
10,1437139316596,1.0
11,1437139316615,1.0
12,1437139316635,1.0
13,1437139316654,1.0
14,1437139316673,1.0
15,1437139316695,1.0
16,1437139316713,1.0
17,1437139316770,1.0
18,1437139316771,1.0
19,1437139316781,1.0
20,1437139316807,1.0
21,1437139316812,1.0
22,1437139316832,1.0
23,1437139316859,1.0
24,1437139316876,1.0
25,1437139316900,1.0
26,1437139316915,1.0
27,1437139316932,1.0
28,1437139316956,1.0
29,1437139316973,1.0
30,1437139316993,1.0
31,1437139317013,1.0
32,1437139317036,1.0
33,1437139317059,1.0
34,1437139317075,1.0
35,1437139317096,1.0
36,1437139317114,1.0
37,1437139317143,1.0
38,1437139317152,1.0
39,1437139317206,1.0
40,1437139317207,1.0
41,1437139317218,1.0
42,1437139317234,1.0
43,1437139317253,1.0
44,1437139317273,1.0
45,1437139317294,1.0
46,1437139317327,1.0
47,1437139317333,1.0
48,1437139317353,1.0
49,1437139317373,1.0
50,1437139317393,1.0
51,1437139317413,1.0
52,1437139317442,1.0
53,1437139317456,1.0
54,1437139317480,1.0
55,1437139317496,1.0
56,1437139317515,1.0
57,1437139317536,1.0
58,1437139317556,1.0
59,1437139317576,1.0
60,1437139317594,1.0
61,1437139317616,1.0
62,1437139317635,1.0
63,1437139317662,1.0
64,1437139317724,1.0
65,1437139317725,1.0
66,1437139317726,1.0
67,1437139317754,1.0
68,1437139317756,1.0
69,1437139317773,1.0
70,1437139317802,1.0
71,1437139317814,1.0
72,1437139317836,1.0
73,1437139317855,1.0
74,1437139317874,1.0
75,1437139317893,1.0
76,1437139317918,1.0
77,1437139317937,1.0
78,1437139317956,1.0
79,1437139317976,1.0
80,1437139317997,1.0
81,1437139318017,1.0
82,1437139318037,1.0
83,1437139318057,1.0
84,1437139318077,1.0
85,1437139318098,1.0
86,1437139318114,1.0
87,1437139318146,1.0
88,1437139318194,1.0
89,1437139318195,1.0
90,1437139318196,1.0
91,1437139318219,1.0
92,1437139318236,1.0
93,1437139318255,1.0
94,1437139318274,1.0
95,1437139318296,1.0
96,1437139318316,1.0
97,1437139318336,1.0
98,1437139318355,1.0
99,1437139318380,1.0
100,1437139318396,1.0
101,1437139318414,1.0
102,1437139318435,1.0
103,1437139318454,1.0
104,1437139318474,1.0
105,1437139318494,1.0
106,1437139318514,1.0
107,1437139318536,1.0
108,1437139318554,1.0
109,1437139318574,1.0
110,1437139318594,1.0
111,1437139318614,1.0
112,1437139318636,1.0
113,1437139318655,1.0
114,1437139318676,1.0
115,1437139318695,1.0
116,1437139318713,1.0
117,1437139318733,1.0
118,1437139318753,1.0
119,1437139318773,1.0
120,1437139318794,1.0
121,1437139318813,1.0
122,1437139318833,1.0
123,1437139318853,1.0
124,1437139318873,1.0
125,1437139318893,1.0
126,1437139318913,1.0
127,1437139318933,1.0
128,1437139318953,1.0
129,1437139318973,1.0
130,1437139318993,1.0
131,1437139319013,1.0
132,1437139319033,1.0
133,1437139319053,1.0
134,1437139319073,1.0
135,1437139319093,1.0
136,1437139319113,1.0
137,1437139319133,1.0
138,1437139319153,1.0
139,1437139319173,1.0
140,1437139319193,1.0
141,1437139319213,1.0
142,1437139319233,1.0
143,1437139319253,1.0
144,1437139319273,1.0
145,1437139319293,1.0
146,1437139319313,1.0
147,1437139319333,1.0
148,1437139319356,1.0
149,1437139319376,1.0
150,1437139319396,1.0
151,1437139319422,1.0
152,1437139319443,1.0
153,1437139319455,1.0
154,1437139319478,1.0
155,1437139319496,1.0
156,1437139319521,1.0
157,1437139319535,1.0
158,1437139319555,1.0
159,1437139319578,1.0
160,1437139319598,1.0
161,1437139319622,1.0
162,1437139319638,1.0
163,1437139319655,1.0
164,1437139319678,1.0
165,1437139319697,1.0
166,1437139319718,1.0
167,1437139319739,1.0
168,1437139319759,1.0
169,1437139319779,1.0
170,1437139319796,1.0
171,1437139319816,1.0
172,1437139319867,1.0
173,1437139319868,1.0
174,1437139319878,1.0
175,1437139319897,1.0
176,1437139319915,1.0
177,1437139319936,1.0
178,1437139319955,1.0
179,1437139319979,1.0
180,1437139319998,1.0
181,1437139320016,1.0
182,1437139320037,1.0
183,1437139320056,1.0
184,1437139320078,1.0
185,1437139320096,1.0
186,1437139320118,1.0
187,1437139320187,1.0
188,1437139320188,1.0
189,1437139320189,1.0
190,1437139320271,1.0
191,1437139320401,1.0
192,1437139320402,1.0
193,1437139320403,1.0
194,1437139320404,1.0
195,1437139320413,1.0
196,1437139320416,1.0
197,1437139320417,1.0
198,1437139320418,1.0
199,1437139320419,1.0
200,1437139320420,1.0
201,1437139320421,1.0
202,1437139320490,1.0
203,1437139320491,1.0
204,1437139320492,1.0
205,1437139320498,1.0
206,1437139320517,1.0
207,1437139320536,1.0
208,1437139320557,1.0
209,1437139320578,1.0
210,1437139320599,1.0
211,1437139320615,1.0
212,1437139320635,1.0
213,1437139320655,1.0
214,1437139320680,1.0
215,1437139320701,1.0
216,1437139320717,1.0
217,1437139320740,1.0
218,1437139320755,1.0
219,1437139320775,1.0
220,1437139320795,1.0
221,1437139320817,1.0
222,1437139320837,1.0
223,1437139320857,1.0
224,1437139320877,1.0
225,1437139320898,1.0
226,1437139320918,1.0
227,1437139320935,1.0
228,1437139320956,1.0
229,1437139320975,1.0
230,1437139320997,1.0
231,1437139321017,1.0
232,1437139321036,1.0
233,1437139321055,1.0
234,1437139321077,1.0
235,1437139321096,1.0
236,1437139321116,1.0
237,1437139321142,1.0
238,1437139321157,1.0
239,1437139321180,1.0
240,1437139321197,1.0
241,1437139321217,1.0
242,1437139321236,1.0
243,1437139321256,1.0
244,1437139321280,1.0
245,1437139321338,1.0
246,1437139321339,1.0
247,1437139321340,1.0
248,1437139321364,1.0
249,1437139321377,1.0
250,1437139321406,1.0
251,1437139321418,1.0
252,1437139321437,1.0
253,1437139321459,1.0
254,1437139321477,1.0
255,1437139321500,1.0
256,1437139321517,1.0
257,1437139321537,1.0
258,1437139321558,1.0
259,1437139321582,1.0
260,1437139321600,1.0
261,1437139321618,1.0
262,1437139321638,1.0
263,1437139321658,1.0
264,1437139321678,1.0
265,1437139321698,1.0
266,1437139321717,1.0
267,1437139321742,1.0
268,1437139321784,1.0
269,1437139321785,1.0
270,1437139321800,1.0
271,1437139321822,1.0
272,1437139321841,1.0
273,1437139321857,1.0
274,1437139321879,1.0
275,1437139321897,1.0
276,1437139321924,1.0
277,1437139321947,1.0
278,1437139321957,1.0
279,1437139321978,1.0
280,1437139321997,1.0
281,1437139322017,1.0
282,1437139322037,1.0
283,1437139322059,1.0
284,1437139322078,1.0
285,1437139322098,1.0
286,1437139322117,1.0
287,1437139322279,1.0
288,1437139322280,1.0
289,1437139322281,1.0
290,1437139322282,1.0
291,1437139322283,1.0
292,1437139322284,1.0
293,1437139322285,1.0
294,1437139322286,1.0
295,1437139322402,1.0
296,1437139322403,1.0
297,1437139322404,1.0
298,1437139322405,1.0
299,1437139322406,1.0
300,1437139322407,1.0
301,1437139322430,1.0
302,1437139322524,1.0
303,1437139322525,1.0
304,1437139322526,1.0
305,1437139322527,1.0
306,1437139322528,1.0
307,1437139322539,1.0
308,1437139322558,1.0
309,1437139322578,1.0
310,1437139322598,1.0
311,1437139322617,1.0
312,1437139322637,1.0
313,1437139322657,1.0
314,1437139322684,1.0
315,1437139322697,1.0
316,1437139322717,1.0
317,1437139322737,1.0
318,1437139322758,1.0
319,1437139322777,1.0
320,1437139322797,1.0
321,1437139322816,1.0
322,1437139322836,1.0
323,1437139322856,1.0
324,1437139322877,1.0
325,1437139322897,1.0
326,1437139322917,1.0
327,1437139322937,1.0
328,1437139322957,1.0
329,1437139322977,1.0
330,1437139322997,1.0
331,1437139323017,1.0
332,1437139323037,1.0
333,1437139323073,1.0
334,1437139323077,1.0
335,1437139323097,1.0
336,1437139323117,1.0
337,1437139323138,1.0
338,1437139323158,1.0
339,1437139323178,1.0
340,1437139323198,1.0
341,1437139323219,1.0
342,1437139323241,1.0
343,1437139323261,1.0
344,1437139323278,1.0
345,1437139323299,1.0
346,1437139323319,1.0
347,1437139323338,1.0
348,1437139323359,1.0
349,1437139323382,1.0
350,1437139323401,1.0
351,1437139323421,1.0
352,1437139323442,1.0
353,1437139323458,1.0
354,1437139323482,1.0
355,1437139323498,1.0
356,1437139323519,1.0
357,1437139323539,1.0
358,1437139323558,1.0
359,1437139323581,1.0
360,1437139323598,1.0
361,1437139323618,1.0
362,1437139323642,1.0
363,1437139323661,1.0
364,1437139323683,1.0
365,1437139323701,1.0
366,1437139323722,1.0
367,1437139323742,1.0
368,1437139323762,1.0
369,1437139323780,1.0
370,1437139323801,1.0
371,1437139323822,1.0
372,1437139323841,1.0
373,1437139323862,1.0
374,1437139323950,1.0
375,1437139323951,1.0
376,1437139323952,1.0
377,1437139323953,1.0
378,1437139323982,1.0
379,1437139323983,1.0
380,1437139324000,1.0
381,1437139324027,1.0
382,1437139324041,1.0
383,1437139324061,1.0
384,1437139324080,1.0
385,1437139324102,1.0
386,1437139324122,1.0
387,1437139324140,1.0
388,1437139324162,1.0
389,1437139324181,1.0
390,1437139324200,1.0
391,1437139324223,1.0
392,1437139324243,1.0
393,1437139324263,1.0
394,1437139324280,1.0
395,1437139324299,1.0
396,1437139324320,1.0
397,1437139324342,1.0
398,1437139324360,1.0
399,1437139324382,1.0
400,1437139324428,1.0
401,1437139324429,1.0
402,1437139324443,1.0
403,1437139324466,1.0
404,1437139324481,1.0
405,1437139324510,1.0
406,1437139324519,1.0
407,1437139324542,1.0
408,1437139324564,1.0
409,1437139324582,1.0
410,1437139324639,1.0
411,1437139324640,1.0
412,1437139324641,1.0
413,1437139324662,2.0
414,1437139324681,2.0
415,1437139324703,2.0
416,1437139324722,2.0
417,1437139324743,2.0
418,1437139324763,2.0
419,1437139324783,2.0
420,1437139324802,2.0
421,1437139324822,2.0
422,1437139324850,2.0
423,1437139324902,2.0
424,1437139324904,2.0
425,1437139324905,2.0
426,1437139324941,2.0
427,1437139324942,2.0
428,1437139324960,2.0
429,1437139324986,2.0
430,1437139325001,2.0
431,1437139325024,2.0
432,1437139325042,2.0
433,1437139325061,2.0
434,1437139325081,2.0
435,1437139325101,2.0
436,1437139325120,2.0
437,1437139325140,2.0
438,1437139325170,2.0
439,1437139325181,2.0
440,1437139325206,2.0
441,1437139325222,2.0
442,1437139325240,2.0
443,1437139325261,2.0
444,1437139325281,2.0
445,1437139325375,2.0
446,1437139325376,2.0
447,1437139325377,2.0
448,1437139325378,2.0
449,1437139325388,2.0
450,1437139325450,2.0
451,1437139325451,2.0
452,1437139325452,2.0
453,1437139325483,2.0
454,1437139325484,2.0
455,1437139325523,2.0
456,1437139325524,2.0
457,1437139325541,2.0
458,1437139325565,2.0
459,1437139325582,2.0
460,1437139325607,2.0
461,1437139325624,2.0
462,1437139325641,2.0
463,1437139325665,2.0
464,1437139325681,2.0
465,1437139325723,2.0
466,1437139325724,2.0
467,1437139325741,2.0
468,1437139325762,2.0
469,1437139325781,2.0
470,1437139325801,2.0
471,1437139325821,2.0
472,1437139325841,2.0
473,1437139325861,2.0
474,1437139325910,2.0
475,1437139325911,2.0
476,1437139325929,2.0
477,1437139325944,2.0
478,1437139325967,2.0
479,1437139326001,2.0
480,1437139326002,2.0
481,1437139326053,2.0
482,1437139326054,2.0
483,1437139326103,2.0
484,1437139326104,2.0
485,1437139326109,2.0
486,1437139327199,2.0
487,1437139327200,2.0
488,1437139327201,2.0
489,1437139327202,2.0
490,1437139327203,1.0
491,1437139327204,1.0
492,1437139327205,1.0
493,1437139327206,1.0
494,1437139327207,1.0
495,1437139327208,1.0
496,1437139327209,1.0
497,1437139327210,1.0
498,1437139327211,1.0
499,1437139327212,1.0
500,1437139327213,1.0
501,1437139327214,1.0
502,1437139327215,1.0
503,1437139327216,1.0
504,1437139327217,1.0
505,1437139327218,1.0
506,1437139327219,1.0
507,1437139327220,1.0
508,1437139327221,1.0
509,1437139327222,1.0
510,1437139327223,1.0
511,1437139327224,1.0
512,1437139327225,1.0
513,1437139327226,1.0
514,1437139327227,1.0
515,1437139327228,1.0
516,1437139327229,1.0
517,1437139327230,1.0
518,1437139327231,1.0
519,1437139327232,1.0
520,1437139327233,1.0
521,1437139327234,1.0
522,1437139327235,1.0
523,1437139327236,1.0
524,1437139327237,1.0
525,1437139327238,1.0
526,1437139327239,1.0
527,1437139327240,1.0
528,1437139327241,1.0
529,1437139327242,1.0
530,1437139327243,1.0
531,1437139327244,1.0
532,1437139327245,1.0
533,1437139327246,1.0
534,1437139327247,1.0
535,1437139327248,1.0
536,1437139327249,1.0
537,1437139327250,1.0
538,1437139327251,1.0
539,1437139327252,1.0
540,1437139327253,1.0
541,1437139327254,1.0
542,1437139327255,1.0
543,1437139327260,1.0
544,1437139327281,1.0
545,1437139327301,1.0
546,1437139327321,1.0
547,1437139327341,1.0
548,1437139327361,0.0
549,1437139327381,0.0
550,1437139327401,0.0
551,1437139327421,0.0
552,1437139327445,0.0
553,1437139327464,0.0
554,1437139327483,0.0
555,1437139327507,0.0
556,1437139327540,0.0
557,1437139327541,0.0
558,1437139327567,0.0
559,1437139327582,0.0
560,1437139327606,0.0
561,1437139327622,0.0
562,1437139327645,0.0
563,1437139327665,0.0
564,1437139327686,0.0
565,1437139327705,0.0
566,1437139327728,0.0
567,1437139327743,0.0
568,1437139327763,0.0
569,1437139327799,0.0
570,1437139327802,0.0
571,1437139327829,0.0
572,1437139327848,0.0
573,1437139327866,0.0
574,1437139327883,0.0
575,1437139327904,0.0
576,1437139327924,0.0
577,1437139327946,0.0
578,1437139327964,0.0
579,1437139328028,0.0
580,1437139328029,0.0
581,1437139328030,0.0
582,1437139328050,0.0
583,1437139328065,0.0
584,1437139328106,0.0
585,1437139328107,0.0
586,1437139328128,0.0
587,1437139328143,0.0
588,1437139328164,0.0
589,1437139328183,0.0
590,1437139328203,0.0
591,1437139328225,0.0
592,1437139328244,0.0
593,1437139328263,0.0
594,1437139328285,0.0
595,1437139328304,0.0
596,1437139328325,0.0
597,1437139328346,0.0
598,1437139328365,0.0
599,1437139328384,0.0
600,1437139328415,0.0
601,1437139328424,0.0
602,1437139328472,0.0
603,1437139328473,0.0
604,1437139328524,0.0
605,1437139328525,0.0
606,1437139328526,0.0
607,1437139328560,0.0
608,1437139328563,0.0
609,1437139328587,0.0
610,1437139328606,0.0
611,1437139328624,0.0
612,1437139328643,0.0
613,1437139328667,0.0
614,1437139328685,0.0
615,1437139328702,0.0
616,1437139328723,0.0
617,1437139328746,0.0
618,1437139328767,0.0
619,1437139328815,0.0
620,1437139328816,0.0
621,1437139328823,0.0
622,1437139328843,0.0
623,1437139328863,0.0
624,1437139328888,0.0
625,1437139328903,0.0
626,1437139328923,0.0
627,1437139328943,0.0
628,1437139328963,0.0
629,1437139328983,0.0
630,1437139329002,0.0
631,1437139329023,0.0
632,1437139329042,0.0
633,1437139329062,0.0
634,1437139329082,0.0
635,1437139329102,0.0
636,1437139329122,0.0
637,1437139329142,0.0
638,1437139329162,0.0
639,1437139329182,0.0
640,1437139329202,0.0
641,1437139329222,0.0
642,1437139329242,0.0
643,1437139329262,0.0
644,1437139329303,0.0
645,1437139329304,0.0
646,1437139329325,0.0
647,1437139329343,0.0
648,1437139329366,0.0
649,1437139329383,0.0
650,1437139329404,0.0
651,1437139329423,0.0
652,1437139329445,0.0
653,1437139329467,0.0
654,1437139329487,0.0
655,1437139329507,0.0
656,1437139329528,0.0
657,1437139329546,0.0
658,1437139329565,0.0
659,1437139329587,0.0
660,1437139329604,0.0
661,1437139329627,0.0
662,1437139329660,0.0
663,1437139329668,0.0
664,1437139329692,0.0
665,1437139329739,0.0
666,1437139329750,0.0
667,1437139329751,0.0
668,1437139329779,0.0
669,1437139329784,0.0
670,1437139329815,0.0
671,1437139329828,0.0
672,1437139329846,0.0
673,1437139329869,0.0
674,1437139329887,0.0
675,1437139329907,0.0
676,1437139329927,0.0
677,1437139329945,0.0
678,1437139329967,0.0
679,1437139329986,0.0
680,1437139330008,0.0
681,1437139330027,0.0
682,1437139330049,0.0
683,1437139330066,0.0
684,1437139330087,0.0
685,1437139330107,0.0
686,1437139330127,0.0
687,1437139330145,0.0
688,1437139330278,0.0
689,1437139330279,0.0
690,1437139330280,0.0
691,1437139330281,0.0
692,1437139330282,0.0
693,1437139330283,0.0
694,1437139330295,0.0
695,1437139330441,0.0
696,1437139330442,0.0
697,1437139330443,0.0
698,1437139330444,0.0
699,1437139330445,0.0
700,1437139330446,0.0
701,1437139330447,0.0
702,1437139330448,0.0
703,1437139330465,0.0
704,1437139330485,0.0
705,1437139330508,0.0
706,1437139330565,0.0
707,1437139330566,0.0
708,1437139330567,0.0
709,1437139330584,0.0
710,1437139330605,0.0
711,1437139330641,0.0
712,1437139330644,0.0
713,1437139330665,0.0
714,1437139330685,0.0
715,1437139330704,0.0
716,1437139330724,0.0
717,1437139330744,0.0
718,1437139330764,0.0
719,1437139330784,0.0
720,1437139330804,0.0
721,1437139330824,0.0
722,1437139330844,0.0
723,1437139330864,0.0
724,1437139330884,0.0
725,1437139330904,0.0
726,1437139330924,0.0
727,1437139330944,0.0
728,1437139330970,0.0
729,1437139330986,0.0
730,1437139331006,0.0
731,1437139331041,0.0
732,1437139331045,0.0
733,1437139331066,0.0
734,1437139331085,0.0
735,1437139331107,0.0
736,1437139331127,0.0
737,1437139331146,0.0
738,1437139331169,0.0
739,1437139331190,0.0
740,1437139331211,0.0
741,1437139331231,0.0
742,1437139331248,0.0
743,1437139331269,0.0
744,1437139331286,0.0
745,1437139331305,0.0
746,1437139331328,0.0
747,1437139331347,0.0
748,1437139331371,0.0
749,1437139331386,0.0
750,1437139331406,0.0
751,1437139331432,0.0
752,1437139331466,0.0
753,1437139331467,0.0
754,1437139331495,0.0
755,1437139331507,0.0
756,1437139331527,0.0
757,1437139331547,0.0
758,1437139331568,0.0
759,1437139331587,0.0
760,1437139331607,0.0
761,1437139331631,0.0
762,1437139331649,0.0
763,1437139331671,0.0
764,1437139331691,0.0
765,1437139331711,0.0
766,1437139331729,0.0
767,1437139331748,0.0
768,1437139331767,0.0
769,1437139331787,0.0
770,1437139331811,0.0
771,1437139331831,0.0
772,1437139331852,0.0
773,1437139331869,0.0
774,1437139331975,0.0
775,1437139331991,0.0
776,1437139331992,0.0
777,1437139331993,0.0
778,1437139331994,0.0
779,1437139331995,0.0
780,1437139332027,0.0
781,1437139332028,0.0
782,1437139332046,0.0
783,1437139332069,0.0
784,1437139332091,0.0
785,1437139332108,0.0
786,1437139332129,0.0
787,1437139332150,0.0
788,1437139332170,0.0
789,1437139332196,0.0
790,1437139332210,0.0
791,1437139332230,0.0
792,1437139332247,0.0
793,1437139332268,0.0
794,1437139332288,0.0
795,1437139332315,0.0
796,1437139332336,0.0
797,1437139332349,0.0
798,1437139332370,0.0
799,1437139332395,0.0
800,1437139332441,0.0
801,1437139332442,0.0
802,1437139332451,0.0
803,1437139332470,0.0
804,1437139332490,0.0
805,1437139332507,0.0
806,1437139332527,0.0
807,1437139332550,0.0
808,1437139332570,0.0
809,1437139332591,0.0
810,1437139332608,0.0
811,1437139332628,0.0
812,1437139332650,0.0
813,1437139332668,0.0
814,1437139332690,0.0
815,1437139332709,0.0
816,1437139332729,0.0
817,1437139332750,0.0
818,1437139332770,0.0
819,1437139332790,0.0
820,1437139332808,0.0
821,1437139332828,0.0
822,1437139332849,0.0
823,1437139332869,0.0
824,1437139332977,0.0
825,1437139332978,0.0
826,1437139332979,0.0
827,1437139332980,0.0
828,1437139332981,0.0
829,1437139333019,0.0
830,1437139333020,0.0
831,1437139333029,0.0
832,1437139333056,0.0
833,1437139333069,0.0
834,1437139333088,0.0
835,1437139333108,0.0
836,1437139333129,0.0
837,1437139333148,0.0
838,1437139333169,0.0
839,1437139333187,0.0
840,1437139333208,0.0
841,1437139333228,0.0
842,1437139333249,0.0
843,1437139333273,0.0
844,1437139333293,0.0
845,1437139333310,0.0
846,1437139333327,0.0
847,1437139333348,0.0
848,1437139333368,0.0
849,1437139333389,0.0
850,1437139333413,0.0
851,1437139333494,0.0
852,1437139333495,0.0
853,1437139333496,0.0
854,1437139333497,0.0
855,1437139333531,0.0
856,1437139333532,0.0
857,1437139333569,0.0
858,1437139333570,0.0
859,1437139333588,0.0
860,1437139333610,0.0
861,1437139333628,0.0
862,1437139333649,0.0
863,1437139333668,0.0
864,1437139333688,0.0
865,1437139333709,0.0
866,1437139333732,0.0
867,1437139333754,0.0
868,1437139333772,0.0
869,1437139333791,0.0
870,1437139333809,0.0
871,1437139333829,0.0
872,1437139333851,0.0
873,1437139333869,0.0
874,1437139333890,0.0
875,1437139333962,0.0
876,1437139333963,0.0
877,1437139333964,0.0
878,1437139334016,0.0
879,1437139334017,0.0
880,1437139334018,0.0
881,1437139334030,0.0
882,1437139334071,0.0
883,1437139334072,0.0
884,1437139334095,0.0
885,1437139334113,0.0
886,1437139334146,0.0
887,1437139334168,0.0
888,1437139334169,0.0
889,1437139334189,0.0
890,1437139334208,0.0
891,1437139334229,0.0
892,1437139334249,0.0
893,1437139334271,0.0
894,1437139334289,0.0
895,1437139334309,0.0
896,1437139334336,0.0
897,1437139334352,0.0
898,1437139334419,0.0
899,1437139334420,0.0
900,1437139334421,0.0
901,1437139334435,0.0
902,1437139334451,0.0
903,1437139334469,0.0
904,1437139334489,0.0
905,1437139334515,0.0
906,1437139334531,0.0
907,1437139334549,0.0
908,1437139334568,0.0
909,1437139334588,0.0
910,1437139334630,0.0
911,1437139334631,0.0
912,1437139334649,0.0
