id,attr_time,attr_x,attr_y,attr_z
1,1436964110431,45.5078,-1.84174,10.3058
2,1436964110451,44.281,-0.96283,9.80072
3,1436964110468,44.281,-0.96283,9.80072
4,1436964110488,46.5591,-1.84174,10.9787
5,1436964110510,45.5078,-1.84174,10.9787
6,1436964110528,45.5078,-1.84174,10.9787
7,1436964110553,46.0327,-2.72064,9.46503
8,1436964110568,45.3323,-2.72064,10.4736
9,1436964110589,45.3323,-2.72064,10.4736
10,1436964110610,44.8059,-0.436401,12.3245
11,1436964110628,44.632,-2.01874,11.1465
12,1436964110648,44.632,-2.01874,11.1465
13,1436964110666,46.2082,-1.13983,10.9787
14,1436964110688,45.3323,-2.01874,11.8195
15,1436964110705,45.3323,-2.01874,11.8195
16,1436964110727,45.8572,-1.49078,10.6415
17,1436964110746,44.632,-1.66626,9.46503
18,1436964110766,44.632,-1.66626,9.46503
19,1436964110786,47.435,-1.66626,10.1379
20,1436964110806,45.8572,-1.84174,7.61566
21,1436964110826,45.8572,-1.84174,7.61566
22,1436964110845,43.2297,-1.66626,9.12933
23,1436964110865,45.6818,-3.07312,9.80072
24,1436964110885,45.6818,-3.07312,9.80072
25,1436964110903,45.1569,-2.19421,8.62427
26,1436964110925,45.3323,-3.77655,7.78351
27,1436964110944,45.3323,-3.77655,7.78351
28,1436964110962,47.2595,-2.54517,9.63287
29,1436964110984,45.6818,-2.36969,8.79211
30,1436964111002,45.6818,-2.36969,8.79211
31,1436964111021,46.9086,-1.84174,8.95996
32,1436964111041,45.3323,-2.01874,8.1192
33,1436964111061,45.3323,-2.01874,8.1192
34,1436964111081,46.0327,-0.260925,9.12933
35,1436964111101,45.6818,-1.66626,7.78351
36,1436964111121,45.6818,-1.66626,7.78351
37,1436964111140,45.3323,-2.01874,11.1465
38,1436964111160,46.5591,-1.49078,8.95996
39,1436964111179,46.5591,-1.49078,8.95996
40,1436964111199,45.8572,-0.787354,9.63287
41,1436964111219,46.9086,0.617981,7.61566
42,1436964111239,46.9086,0.617981,7.61566
43,1436964111258,44.4565,-0.436401,8.95996
44,1436964111279,46.0327,-2.01874,9.46503
45,1436964111298,46.0327,-2.01874,9.46503
46,1436964111318,46.0327,-1.31531,8.79211
47,1436964111338,45.6818,-0.611877,8.45642
48,1436964111357,45.6818,-0.611877,8.45642
49,1436964111377,46.0327,-1.66626,8.45642
50,1436964111397,44.9814,-0.96283,9.12933
51,1436964111416,44.9814,-0.96283,9.12933
52,1436964111436,45.6818,-0.611877,9.12933
53,1436964111456,45.5078,-1.84174,9.29718
54,1436964111476,45.5078,-1.84174,9.29718
55,1436964111495,45.3323,-0.611877,7.44629
56,1436964111516,46.5591,-2.19421,9.63287
57,1436964111535,46.5591,-2.19421,9.63287
58,1436964111555,45.1569,0.267029,8.62427
59,1436964111576,45.5078,-1.84174,8.95996
60,1436964111594,45.5078,-1.84174,8.95996
61,1436964111614,45.5078,-0.787354,9.29718
62,1436964111634,45.8572,-0.436401,8.95996
63,1436964111654,45.8572,-0.436401,8.95996
64,1436964111673,46.2082,-0.0839233,9.97009
65,1436964111693,46.9086,-2.19421,9.29718
66,1436964111713,46.9086,-2.19421,9.29718
67,1436964111733,45.5078,-2.19421,7.61566
68,1436964111753,46.2082,-2.19421,9.29718
69,1436964111772,46.2082,-2.19421,9.29718
70,1436964111792,45.6818,-1.31531,9.12933
71,1436964111812,45.3323,1.14593,7.1106
72,1436964111831,45.3323,1.14593,7.1106
73,1436964111851,45.8572,-0.0839233,7.61566
74,1436964111871,46.2082,-0.436401,8.62427
75,1436964111891,46.2082,-0.436401,8.62427
76,1436964111911,46.5591,-0.0839233,8.28857
77,1436964111931,46.7331,-0.260925,10.1379
78,1436964111950,46.7331,-0.260925,10.1379
79,1436964111970,46.0327,-0.611877,9.12933
80,1436964111990,45.3323,-0.260925,9.46503
81,1436964112009,45.3323,-0.260925,9.46503
82,1436964112029,45.5078,-0.787354,8.62427
83,1436964112049,46.3837,-0.96283,8.45642
84,1436964112069,46.3837,-0.96283,8.45642
85,1436964112088,44.9814,-1.66626,9.46503
86,1436964112108,46.2082,0.267029,8.28857
87,1436964112128,46.2082,0.267029,8.28857
88,1436964112148,45.3323,-1.31531,9.46503
89,1436964112168,46.5591,-1.84174,8.28857
90,1436964112187,46.5591,-1.84174,8.28857
91,1436964112207,45.1569,-1.84174,8.95996
92,1436964112227,44.4565,0.617981,8.62427
93,1436964112246,44.4565,0.617981,8.62427
94,1436964112266,46.7331,-1.31531,9.80072
95,1436964112286,45.6818,-0.611877,9.12933
96,1436964112306,45.6818,-0.611877,9.12933
97,1436964112326,45.1569,0.617981,8.95996
98,1436964112346,45.5078,-1.13983,8.62427
99,1436964112365,45.5078,-1.13983,8.62427
100,1436964112385,45.5078,-0.436401,8.95996
101,1436964112405,46.5591,-1.13983,7.27844
102,1436964112424,46.5591,-1.13983,7.27844
103,1436964112444,46.0327,-1.66626,7.78351
104,1436964112464,46.0327,-0.611877,7.78351
105,1436964112484,46.0327,-0.611877,7.78351
106,1436964112503,45.5078,-1.84174,8.28857
107,1436964112523,46.0327,-3.77655,7.44629
108,1436964112543,46.0327,-3.77655,7.44629
109,1436964112562,46.9086,-3.59955,9.29718
110,1436964112583,46.3837,-2.72064,7.1106
111,1436964112603,46.3837,-2.72064,7.1106
112,1436964112622,49.0112,-2.89764,9.97009
113,1436964112643,49.3622,-3.59955,8.28857
114,1436964112661,49.3622,-3.59955,8.28857
115,1436964112681,47.6089,-5.35736,7.61566
116,1436964112701,50.238,-6.9397,5.42908
117,1436964112721,50.238,-6.9397,5.42908
118,1436964112740,48.8358,-8.34656,4.42047
119,1436964112761,49.8871,-9.40094,5.76477
120,1436964112780,49.8871,-9.40094,5.76477
121,1436964112800,48.4848,-9.75189,5.76477
122,1436964112820,46.9086,-9.22546,6.26984
123,1436964112840,46.9086,-9.22546,6.26984
124,1436964112859,47.7844,-9.04999,9.12933
125,1436964112879,47.435,-9.40094,8.45642
126,1436964112898,47.435,-9.40094,8.45642
127,1436964112917,48.4848,-10.1044,9.46503
128,1436964112938,46.9086,-12.0377,9.29718
129,1436964112957,46.9086,-12.0377,9.29718
130,1436964112977,46.9086,-13.092,9.29718
131,1436964112998,47.2595,-16.2567,8.28857
132,1436964113017,47.2595,-16.2567,8.28857
133,1436964113037,45.8572,-13.7955,8.95996
134,1436964113057,46.3837,-16.7831,9.80072
135,1436964113076,46.3837,-16.7831,9.80072
136,1436964113096,45.1569,-15.5533,8.28857
137,1436964113116,43.2297,-16.7831,9.80072
138,1436964113136,43.2297,-16.7831,9.80072
139,1436964113155,43.2297,-17.4866,9.80072
140,1436964113175,44.281,-16.7831,11.4822
141,1436964113195,44.281,-16.7831,11.4822
142,1436964113214,42.8787,-18.19,10.1379
143,1436964113235,42.7048,-18.3655,9.63287
144,1436964113254,42.7048,-18.3655,9.63287
145,1436964113274,42.8787,-16.4322,7.44629
146,1436964113294,42.8787,-16.0812,8.1192
147,1436964113313,42.8787,-16.0812,8.1192
148,1436964113333,43.9301,-16.4322,5.42908
149,1436964113353,45.5078,-12.7411,4.25262
150,1436964113372,45.5078,-12.7411,4.25262
151,1436964113392,45.8572,-9.22546,2.56958
152,1436964113412,47.9599,-6.76422,0.552368
153,1436964113432,47.9599,-6.76422,0.552368
154,1436964113451,46.9086,0.970459,1.56097
155,1436964113472,47.084,3.60718,0.384521
156,1436964113491,47.084,3.60718,0.384521
157,1436964113511,47.7844,8.88062,-2.64282
158,1436964113531,46.0327,9.935,-3.65143
159,1436964113550,46.0327,9.935,-3.65143
160,1436964113570,44.281,10.9894,-1.63422
161,1436964113590,46.3837,10.2859,-1.63422
162,1436964113610,46.3837,10.2859,-1.63422
163,1436964113629,46.9086,10.1105,-0.456238
164,1436964113649,46.9086,6.94733,0.552368
165,1436964113669,46.9086,6.94733,0.552368
166,1436964113689,48.6603,4.83704,-0.456238
167,1436964113709,50.5875,1.84937,-0.961304
168,1436964113728,50.5875,1.84937,-0.961304
169,1436964113748,51.1139,-1.49078,-3.81928
170,1436964113768,49.7116,-3.2486,-5.50232
171,1436964113787,49.7116,-3.2486,-5.50232
172,1436964113808,48.6603,-2.19421,-5.83801
173,1436964113827,48.4848,-3.77655,-6.34308
174,1436964113846,48.4848,-3.77655,-6.34308
175,1436964113867,47.7844,-4.1275,-3.65143
176,1436964113886,47.2595,-6.06079,-2.13776
177,1436964113906,47.2595,-6.06079,-2.13776
178,1436964113926,46.5591,-7.11517,-1.46637
179,1436964113946,47.9599,-6.76422,-0.793457
180,1436964113965,47.9599,-6.76422,-0.793457
181,1436964113985,46.0327,-7.64313,0.0473022
182,1436964114005,47.2595,-6.06079,-0.120544
183,1436964114024,47.2595,-6.06079,-0.120544
184,1436964114044,45.8572,-6.41327,0.552368
185,1436964114064,46.3837,-5.53436,0.0473022
186,1436964114084,46.3837,-5.53436,0.0473022
187,1436964114103,45.5078,-4.30298,2.9068
188,1436964114124,45.8572,-3.95203,1.89819
189,1436964114143,45.8572,-3.95203,1.89819
190,1436964114163,46.2082,-2.19421,0.216675
191,1436964114183,45.5078,-1.13983,1.56097
192,1436964114202,45.5078,-1.13983,1.56097
193,1436964114222,46.3837,-1.66626,2.73895
194,1436964114243,46.3837,0.0915527,3.41034
195,1436964114263,46.3837,0.0915527,3.41034
196,1436964114283,47.6089,-3.59955,0.552368
197,1436964114304,46.7331,-2.72064,1.39313
198,1436964114321,46.7331,-2.72064,1.39313
199,1436964114341,45.3323,-7.29218,1.05743
200,1436964114363,47.084,-10.4553,1.39313
201,1436964114382,47.084,-10.4553,1.39313
202,1436964114402,46.2082,-13.4445,1.22528
203,1436964114422,45.6818,-15.7288,2.73895
204,1436964114441,45.6818,-15.7288,2.73895
205,1436964114462,43.0542,-16.9601,1.56097
206,1436964114480,45.5078,-17.3111,1.22528
207,1436964114500,45.5078,-17.3111,1.22528
208,1436964114520,43.5806,-15.7288,1.39313
209,1436964114540,44.9814,-13.62,1.72882
210,1436964114560,44.9814,-13.62,1.72882
211,1436964114580,46.3837,-11.8622,1.05743
212,1436964114600,46.7331,-7.99408,-2.64282
213,1436964114617,46.7331,-7.99408,-2.64282
214,1436964114639,46.7331,-4.47845,-1.63422
215,1436964114659,47.2595,-2.89764,-1.12915
216,1436964114678,47.2595,-2.89764,-1.12915
217,1436964114698,47.2595,2.72827,-2.81067
218,1436964114718,48.1354,1.49689,-5.33295
219,1436964114737,48.1354,1.49689,-5.33295
220,1436964114757,47.6089,3.78265,-5.1651
221,1436964114777,46.9086,6.59485,-4.15649
222,1436964114797,46.9086,6.59485,-4.15649
223,1436964114817,45.8572,6.59485,-3.48358
224,1436964114836,46.2082,7.29828,-3.14789
225,1436964114856,46.2082,7.29828,-3.14789
226,1436964114876,46.5591,9.05609,-2.81067
227,1436964114895,45.3323,9.58404,-1.297
228,1436964114914,45.3323,9.58404,-1.297
229,1436964114935,46.7331,12.0438,0.0473022
230,1436964114955,44.9814,12.7472,1.39313
231,1436964114975,44.9814,12.7472,1.39313
232,1436964114994,43.4051,17.4942,0.888061
233,1436964115015,40.7776,19.075,3.41034
234,1436964115034,40.7776,19.075,3.41034
235,1436964115053,40.2512,23.4695,3.91541
236,1436964115074,37.9746,25.7553,5.42908
237,1436964115093,37.9746,25.7553,5.42908
238,1436964115112,36.3968,29.7989,5.59692
239,1436964115133,32.8934,30.8533,4.92401
240,1436964115151,32.8934,30.8533,4.92401
241,1436964115172,30.7907,33.6655,5.26123
242,1436964115192,27.4628,35.5988,6.43768
243,1436964115210,27.4628,35.5988,6.43768
244,1436964115229,24.8337,39.2899,4.25262
245,1436964115249,21.6812,41.4001,-3.14789
246,1436964115269,21.6812,41.4001,-3.14789
247,1436964115289,21.6812,43.158,-8.19244
248,1436964115309,19.4031,41.5756,-12.3962
249,1436964115329,19.4031,41.5756,-12.3962
250,1436964115348,18.1763,39.6423,-17.6102
251,1436964115368,18.8782,38.2355,-21.3089
252,1436964115387,18.8782,38.2355,-21.3089
253,1436964115407,18.7027,36.6531,-22.4869
254,1436964115427,17.6514,33.49,-26.5228
255,1436964115447,17.6514,33.49,-26.5228
256,1436964115466,15.1978,30.6778,-28.8757
257,1436964115486,16.951,28.5675,-31.9031
258,1436964115506,16.951,28.5675,-31.9031
259,1436964115526,16.0751,29.4464,-32.7438
260,1436964115546,14.4974,26.1063,-35.6033
261,1436964115565,14.4974,26.1063,-35.6033
262,1436964115585,14.4974,25.0519,-35.6033
263,1436964115605,12.5702,22.4152,-37.4527
264,1436964115625,12.5702,22.4152,-37.4527
265,1436964115644,12.9211,24.173,-37.7884
266,1436964115664,12.9211,24.173,-38.1256
267,1436964115684,12.9211,24.173,-38.1256
268,1436964115703,12.7457,22.2397,-39.6393
269,1436964115724,12.3947,22.2397,-42.3294
270,1436964115743,12.3947,22.2397,-42.3294
271,1436964115763,12.9211,21.3608,-39.8071
272,1436964115783,10.8185,20.6573,-40.1428
273,1436964115802,10.8185,20.6573,-40.1428
274,1436964115822,11.1694,21.0098,-41.4886
275,1436964115843,11.8698,20.3064,-42.1616
276,1436964115863,11.8698,20.3064,-42.1616
277,1436964115883,11.3434,21.1853,-42.6651
278,1436964115902,10.2936,19.4275,-39.975
279,1436964115922,10.2936,19.4275,-39.975
280,1436964115942,12.0453,19.4275,-39.975
281,1436964115961,10.8185,16.7908,-42.4973
282,1436964115982,10.8185,16.7908,-42.4973
283,1436964116002,11.1694,18.8995,-41.8243
284,1436964116021,10.2936,18.3731,-41.6565
285,1436964116041,10.2936,18.3731,-41.6565
286,1436964116061,10.8185,18.5486,-40.8157
287,1436964116081,10.643,18.3731,-40.3122
288,1436964116101,10.643,18.3731,-40.3122
289,1436964116121,9.76715,20.6573,-39.8071
290,1436964116140,9.41773,19.9539,-40.8157
291,1436964116160,9.41773,19.9539,-40.8157
292,1436964116179,8.71582,19.603,-39.4714
293,1436964116200,6.26373,19.603,-40.8157
294,1436964116218,6.26373,19.603,-40.8157
295,1436964116238,6.26373,19.9539,-40.8157
296,1436964116259,5.56335,19.9539,-40.1428
297,1436964116278,5.56335,19.9539,-40.1428
298,1436964116299,5.2124,19.9539,-42.8345
299,1436964116319,4.33655,19.7784,-41.6565
300,1436964116337,4.33655,19.7784,-41.6565
301,1436964116358,2.93427,21.1853,-41.9937
302,1436964116377,3.28522,17.6697,-41.9937
303,1436964116397,3.28522,17.6697,-41.9937
304,1436964116416,2.40936,19.252,-43.1702
305,1436964116436,2.40936,17.8452,-41.8243
306,1436964116456,2.40936,17.8452,-41.8243
307,1436964116475,3.28522,19.075,-41.6565
308,1436964116496,2.58484,18.3731,-43.6752
309,1436964116515,2.58484,18.3731,-43.6752
310,1436964116535,1.18256,18.0206,-42.3294
311,1436964116555,1.35803,17.4942,-42.8345
312,1436964116574,1.35803,17.4942,-42.8345
313,1436964116594,4.33655,18.7241,-44.3481
314,1436964116614,3.46069,16.0873,-43.5074
315,1436964116633,3.46069,16.0873,-43.5074
316,1436964116654,2.76031,18.1961,-42.8345
317,1436964116673,5.7373,17.3172,-44.6838
318,1436964116693,5.7373,17.3172,-44.6838
319,1436964116712,5.38788,18.7241,-43.6752
320,1436964116733,7.66449,17.8452,-42.1616
321,1436964116753,7.66449,17.8452,-42.1616
322,1436964116770,9.06677,18.5486,-43.8431
323,1436964116792,8.8913,15.5594,-42.3294
324,1436964116811,8.8913,15.5594,-42.3294
325,1436964116829,9.76715,19.603,-42.8345
326,1436964116850,10.4675,20.3064,-41.153
327,1436964116868,10.4675,20.3064,-41.153
328,1436964116889,10.994,21.1853,-42.6651
329,1436964116910,10.643,19.7784,-42.3294
330,1436964116930,10.643,19.7784,-42.3294
331,1436964116949,11.8698,19.252,-41.8243
332,1436964116969,10.643,18.3731,-41.9937
333,1436964116989,10.643,18.3731,-41.9937
334,1436964117009,9.94263,20.8328,-41.3208
335,1436964117029,10.8185,17.4942,-41.153
336,1436964117048,10.8185,17.4942,-41.153
337,1436964117068,11.5189,18.1961,-42.1616
338,1436964117088,11.5189,17.8452,-42.1616
339,1436964117108,11.5189,17.8452,-42.1616
340,1436964117128,10.4675,18.5486,-42.1616
341,1436964117148,9.94263,18.3731,-40.3122
342,1436964117167,9.94263,18.3731,-40.3122
343,1436964117187,10.8185,19.603,-42.1616
344,1436964117207,11.3434,18.3731,-39.6393
345,1436964117228,11.3434,18.3731,-39.6393
346,1436964117246,10.1181,20.3064,-39.4714
347,1436964117266,10.2936,18.0206,-38.2935
348,1436964117286,10.2936,18.0206,-38.2935
349,1436964117305,8.71582,21.3608,-40.1428
350,1436964117325,6.96411,21.0098,-42.1616
351,1436964117345,6.96411,21.0098,-42.1616
352,1436964117364,7.49054,21.8887,-41.9937
353,1436964117385,6.43921,19.7784,-41.6565
354,1436964117404,6.43921,19.7784,-41.6565
355,1436964117424,7.31506,21.7117,-43.1702
356,1436964117444,7.13959,19.7784,-41.3208
357,1436964117463,7.13959,19.7784,-41.3208
358,1436964117483,7.66449,22.4152,-41.8243
359,1436964117503,8.36639,20.6573,-41.153
360,1436964117523,8.36639,20.6573,-41.153
361,1436964117542,8.36639,21.7117,-41.8243
362,1436964117562,10.643,18.3731,-41.6565
363,1436964117582,10.643,18.3731,-41.6565
364,1436964117601,9.76715,18.8995,-42.4973
365,1436964117622,10.2936,16.9662,-41.3208
366,1436964117641,10.2936,16.9662,-41.3208
367,1436964117661,9.76715,19.603,-40.1428
368,1436964117681,9.76715,19.252,-40.1428
369,1436964117700,9.76715,19.252,-40.1428
370,1436964117720,13.446,22.5906,-40.3122
371,1436964117740,14.8483,21.5363,-37.9578
372,1436964117759,14.8483,21.5363,-37.9578
373,1436964117780,15.3732,21.7117,-38.4613
374,1436964117799,17.1249,21.3608,-36.4441
375,1436964117819,17.1249,21.3608,-36.4441
376,1436964117838,17.8268,22.4152,-35.4355
377,1436964117860,19.5786,22.0642,-34.4254
378,1436964117880,19.5786,22.0642,-34.4254
379,1436964117898,19.2276,20.6573,-32.7438
380,1436964117919,18.0023,19.4275,-32.9117
381,1436964117936,18.0023,19.4275,-32.9117
382,1436964117959,20.6299,22.4152,-31.3995
383,1436964117979,21.5057,21.1853,-28.2043
384,1436964118001,21.5057,21.1853,-28.2043
385,1436964118018,22.9065,20.4819,-27.8671
386,1436964118038,22.9065,22.2397,-26.1856
387,1436964118058,22.9065,22.2397,-26.1856
388,1436964118077,24.4843,22.0642,-26.6907
389,1436964118098,25.5356,22.0642,-23.3276
390,1436964118115,25.5356,22.0642,-23.3276
391,1436964118136,25.7095,24.7009,-22.4869
392,1436964118158,26.0605,25.7553,-20.8038
393,1436964118176,26.0605,25.7553,-20.8038
394,1436964118197,26.5854,28.392,-20.3003
395,1436964118215,27.2873,28.743,-20.636
396,1436964118235,27.2873,28.743,-20.636
397,1436964118255,25.0092,30.6778,-20.1324
398,1436964118275,25.3601,30.6778,-21.1411
399,1436964118298,25.3601,30.6778,-21.1411
400,1436964118314,24.3088,32.7866,-20.4681
401,1436964118336,23.9578,34.1934,-17.778
402,1436964118354,23.9578,34.1934,-17.778
403,1436964118374,24.4843,34.0164,-19.9631
404,1436964118396,23.082,34.0164,-19.6274
405,1436964118414,23.082,34.0164,-19.6274
406,1436964118432,22.9065,34.5444,-20.4681
407,1436964118453,23.2574,34.1934,-20.4681
408,1436964118473,23.2574,34.1934,-20.4681
409,1436964118495,22.5571,37.0056,-18.4509
410,1436964118513,22.0306,38.2355,-14.9185
411,1436964118531,22.0306,38.2355,-14.9185
412,1436964118551,25.0092,38.7634,-12.3962
413,1436964118571,26.236,35.4233,-12.9013
414,1436964118594,26.236,35.4233,-12.9013
415,1436964118611,30.2658,35.2478,-12.7319
416,1436964118631,30.7907,31.5567,-11.8912
417,1436964118649,30.7907,31.5567,-11.8912
418,1436964118668,36.2213,28.92,-9.70612
419,1436964118689,39.3753,25.7553,-6.00586
420,1436964118706,39.3753,25.7553,-6.00586
421,1436964118727,41.6534,21.7117,-1.80206
422,1436964118748,43.9301,14.1541,5.42908
423,1436964118766,43.9301,14.1541,5.42908
424,1436964118787,46.5591,8.00171,7.27844
425,1436964118807,45.5078,-0.0839233,8.95996
426,1436964118826,45.5078,-0.0839233,8.95996
427,1436964118847,44.632,-6.9397,10.8109
428,1436964118866,45.5078,-14.4989,10.3058
429,1436964118886,45.5078,-14.4989,10.3058
430,1436964118906,45.8572,-14.8499,9.29718
431,1436964118926,43.7546,-19.0689,9.29718
432,1436964118945,43.7546,-19.0689,9.29718
433,1436964118964,43.9301,-15.3778,9.46503
434,1436964118985,43.7546,-16.2567,8.95996
435,1436964119004,43.7546,-16.2567,8.95996
436,1436964119024,45.8572,-14.4989,7.61566
437,1436964119044,44.9814,-15.3778,6.10199
438,1436964119063,44.9814,-15.3778,6.10199
439,1436964119084,45.3323,-14.3234,3.74756
440,1436964119103,45.5078,-15.5533,4.92401
441,1436964119123,45.5078,-15.5533,4.92401
442,1436964119142,45.8572,-16.6077,4.92401
443,1436964119162,44.9814,-15.7288,4.42047
444,1436964119182,44.9814,-15.7288,4.42047
445,1436964119201,45.5078,-18.0145,4.92401
446,1436964119237,43.7546,-18.718,4.92401
447,1436964119240,43.7546,-18.718,4.92401
448,1436964119261,44.281,-17.8391,5.76477
449,1436964119282,43.4051,-16.6077,7.95136
450,1436964119300,43.4051,-16.6077,7.95136
451,1436964119321,44.9814,-15.0253,6.7749
452,1436964119340,44.5328,-15.2634,7.99713
453,1436964119360,44.5328,-15.2634,7.99713
454,1436964119380,46.6339,-9.98993,9.00726
455,1436964119400,48.0362,-7.87964,9.67865
456,1436964119419,48.0362,-7.87964,9.67865
457,1436964119439,47.3358,-5.06744,8.33435
458,1436964119459,47.8607,-0.672913,6.48346
459,1436964119484,47.8607,-0.672913,6.48346
460,1436964119499,45.5826,6.53381,7.32422
461,1436964119518,46.2845,7.94067,8.33435
462,1436964119538,46.2845,7.94067,8.33435
463,1436964119557,45.7581,11.2793,7.49359
464,1436964119580,43.6554,12.6862,8.83789
465,1436964119595,43.6554,12.6862,8.83789
466,1436964119617,44.1818,13.5651,6.98853
467,1436964119637,42.0792,17.4316,8.33435
468,1436964119656,42.0792,17.4316,8.33435
