id,attr_time,attr_db
1,1436986568801,26.865085613738
2,1436986569333,24.2527589324512
3,1436986569794,25.1289575757683
4,1436986570357,28.8615348428494
5,1436986570899,24.352827439613
6,1436986571508,25.2654976816494
7,1436986571980,39.3360487743927
8,1436986572398,29.8989141926107
9,1436986572877,43.3442072602895
10,1436986573400,37.4660602886781
11,1436986573854,61.9394237578003
12,1436986574379,67.6024873989642
13,1436986574945,58.9183185948289
14,1436986575547,36.7709865495492
15,1436986576082,56.1371003357885
16,1436986576460,43.2433209341935
17,1436986576896,34.8952838371764
18,1436986577377,33.942663626095
19,1436986577864,50.3815943687011
20,1436986578273,35.1700208653232
21,1436986578765,38.0116772251329
22,1436986579161,38.2181130521521
23,1436986579634,42.9373406842122
24,1436986580195,46.8656745757978
25,1436986580755,55.2707407522154
26,1436986581308,57.7295281452055
27,1436986581827,48.8284451734963
28,1436986583110,44.0868784093102
29,1436986583490,51.2086658428668
30,1436986583913,42.8042498018052
31,1436986584445,37.0540897290965
32,1436986585017,42.5457824942371
33,1436986585621,64.1745162441979
34,1436986586179,48.7765088172211
35,1436986586737,58.2362308544109
36,1436986587316,55.9327139834593
37,1436986587851,47.0984977458057
38,1436986588422,53.695770558381
39,1436986588968,47.6946919597697
40,1436986589550,44.3932883443946
41,1436986590132,57.5579498346608
42,1436986590681,53.6198316954264
43,1436986591076,40.16508704286
44,1436986591537,53.6030027585193
45,1436986592057,44.8557868634431
46,1436986593380,51.6295575461777
47,1436986593755,53.7193143301455
48,1436986594273,41.1636867612735
49,1436986594824,57.7995929702293
50,1436986595413,57.7055146760811
51,1436986595887,45.4857120451434
52,1436986596478,58.153512276296
53,1436986597043,41.8702775794439
54,1436986597469,43.7328984275695
55,1436986597893,44.1893220786562
56,1436986598382,39.1191230176315
57,1436986598976,40.6421914060442
58,1436986599464,51.3458445036432
59,1436986599899,45.1053273012325
60,1436986600421,43.4721584252834
61,1436986600890,44.4130966985044
62,1436986601330,43.7011474893146
63,1436986601836,51.7776344508688
64,1436986602440,44.6654041820112
65,1436986602944,61.4944954006545
66,1436986603413,50.5212867145615
67,1436986603923,47.6361234485354
68,1436986604506,48.0902957978029
69,1436986605084,35.4712580153095
70,1436986605707,37.3564162368479
71,1436986606048,34.5335191087938
72,1436986606479,38.0016809102661
73,1436986606933,40.8550840505485
74,1436986608756,36.991159520872
75,1436986609166,39.3853585723485
76,1436986609727,33.8037458481457
77,1436986610322,38.226437682492
78,1436986610881,40.2623842512592
79,1436986611418,38.6829956959205
80,1436986611886,37.1283639957169
81,1436986612447,40.3930653734799
82,1436986613000,43.1027362298249
83,1436986613573,43.3229338264257
84,1436986614163,39.6572116372369
85,1436986614700,52.4315812335627
86,1436986615253,44.5915361051406
87,1436986615792,46.1239039336276
88,1436986616898,52.2908305735598
89,1436986617311,37.4588085407418
90,1436986617852,40.7872615744056
91,1436986618424,39.5698935081607
92,1436986618983,67.2711433359193
93,1436986619451,59.22646250662
94,1436986619801,39.7013738801874
95,1436986620329,54.030986116112
96,1436986620874,43.8807330128316
97,1436986621421,35.6723193652691
98,1436986621885,42.9979419444979
99,1436986622374,41.9169817990868
100,1436986622860,56.3265761114002
101,1436986623455,46.9912465958873
102,1436986624026,44.6190104716802
103,1436986624586,53.3179966260497
104,1436986625167,41.6776032794335
105,1436986625722,56.1330337647228
106,1436986626284,40.990232770134
107,1436986626824,70.0270315503578
108,1436986627477,32.12668451595
109,1436986628041,44.7657335189881
110,1436986628602,67.8194767381309
111,1436986629235,64.1536963050987
112,1436986629695,48.0762967008053
113,1436986630282,66.7506883213906
114,1436986630858,57.6785811858707
115,1436986631423,54.6511765920596
116,1436986631999,47.6665257780393
117,1436986632575,55.9848775719494
118,1436986633040,36.7068306303511
119,1436986633519,45.4056238180454
120,1436986634044,59.472115941352
121,1436986634613,52.1935218720086
122,1436986635151,48.1624234733026
123,1436986635722,61.8752076090051
124,1436986636288,60.0749452115297
125,1436986636845,41.4771019613706
126,1436986637434,37.8639495299999
127,1436986638053,35.4553033853661
128,1436986638511,40.5231045796547
129,1436986638995,41.3017336004093
130,1436986639518,31.043115968145
131,1436986639935,33.8292138272501
132,1436986640387,38.1579219642247
133,1436986640851,32.9283789018345
134,1436986641198,40.9810368448517
135,1436986641644,34.1979770111478
136,1436986642163,27.4324367736226
137,1436986642691,22.4042389245889
138,1436986643095,50.2609422799985
139,1436986643550,51.7808387802134
140,1436986644039,51.4937563638574
141,1436986644585,39.4880445743176
142,1436986645146,56.6827206434641
143,1436986645694,35.186618528766
144,1436986646242,45.9951778763312
145,1436986646801,41.3159106350394
146,1436986647216,30.3027910065958
147,1436986647726,39.0803356132812
148,1436986648278,28.9033362573285
149,1436986648845,28.6313439215745
150,1436986649319,44.4360471608248
151,1436986649876,41.9451209147608
152,1436986650467,49.1595993215073
153,1436986651003,32.6331462547486
154,1436986651575,48.5643781036635
155,1436986651962,42.3350166630672
156,1436986652366,41.3756896186127
157,1436986652828,42.9770596071688
158,1436986653326,36.590988977087
159,1436986653871,29.1557730592279
160,1436986654483,36.1862120903929
161,1436986655048,42.5133824264937
162,1436986655607,59.9245689369147
163,1436986656156,41.5011565192752
164,1436986656697,39.2969035391447
165,1436986657233,39.9149484673039
166,1436986657789,41.9787043615197
167,1436986658339,39.417022392204
168,1436986658818,39.6697483773838
169,1436986659506,43.6983785545315
170,1436986659951,42.591782201914
171,1436986660387,32.0844912043327
172,1436986660882,36.225777536832
173,1436986661462,38.168671084115
174,1436986662012,34.5618297441258
175,1436986662602,36.4063851727079
176,1436986663115,35.401964437705
177,1436986663518,35.0845952935924
178,1436986663936,36.1829004758127
179,1436986664439,40.9835620438835
180,1436986665026,38.7771394230872
181,1436986665596,53.3911505999472
182,1436986666047,30.6318166682173
183,1436986666534,37.377631658194
184,1436986667079,44.0262999203615
185,1436986667650,43.1335117561635
186,1436986668060,47.48906155277
187,1436986668480,29.4973108775015
188,1436986668952,34.9265328186546
189,1436986669490,52.3171446336684
190,1436986670046,43.5939266843276
191,1436986670526,31.0899300827701
192,1436986670999,34.7134806128668
193,1436986671547,41.1075668331155
194,1436986672103,37.6421144972711
195,1436986672694,37.8223292922773
196,1436986673093,39.5782894070789
197,1436986673579,50.3337323220743
198,1436986674144,43.7947729260725
199,1436986674743,45.1128058537517
200,1436986675307,49.3875489756905
201,1436986675848,42.083879303013
202,1436986676398,39.4652194384228
203,1436986676945,40.7196485624175
204,1436986677503,43.5909218844213
205,1436986678095,40.6796206350626
206,1436986678503,45.0607084873152
207,1436986678914,41.1716601043782
208,1436986679373,43.7766931322835
209,1436986679844,40.5887437992333
210,1436986680418,41.9147207549522
211,1436986681019,43.025578994006
212,1436986681596,42.7029186045068
213,1436986682176,43.2016087929176
214,1436986682773,43.1263518073511
215,1436986683194,44.5081677007722
216,1436986683674,48.4849427651906
217,1436986684230,44.5079575140953
218,1436986684798,43.9684239049059
219,1436986685352,43.4420279128534
220,1436986685900,42.3435268397819
221,1436986686441,44.2991303915683
222,1436986686938,42.141206530353
223,1436986687482,42.9195238875299
224,1436986688081,41.9794234086359
225,1436986688652,43.3161290192483
226,1436986689178,43.6697919032694
227,1436986689584,37.3323735377289
228,1436986690040,39.3988354542857
229,1436986690598,36.9947518040601
230,1436986691158,39.7852550941157
231,1436986691567,35.690433676108
232,1436986692043,39.7616163339017
233,1436986692585,36.2752795856416
234,1436986693183,47.8972641441483
235,1436986693743,41.1566702503629
236,1436986694167,40.4921741855089
237,1436986694572,47.8458390832376
238,1436986695068,44.6535198143378
239,1436986695620,44.6164910154552
240,1436986696202,41.723565514101
241,1436986696768,34.8675388306568
242,1436986697253,44.7714399186925
243,1436986697822,42.6607273599985
244,1436986698274,42.8244072971322
245,1436986698698,36.700904471021
246,1436986699243,38.6401639519293
247,1436986699751,30.2837134422125
248,1436986700125,35.2117793652074
249,1436986700545,43.3780965506216
250,1436986701023,42.0208287962554
251,1436986701572,39.6201919881028
252,1436986702005,30.8521325805724
253,1436986702442,23.6131730381645
254,1436986702920,39.1360591161829
255,1436986703492,37.9274287368763
256,1436986703948,32.4117083632511
257,1436986704289,30.7406892129189
258,1436986704750,41.9741665676971
259,1436986705297,34.9315106505584
260,1436986705849,26.4970506365594
261,1436986706389,31.7549801914171
262,1436986706930,31.4069258698213
263,1436986707491,30.6343033276519
264,1436986708037,28.20282380291
265,1436986708469,26.7724993596463
266,1436986708912,29.431991109415
267,1436986709391,25.9096642178278
268,1436986709919,52.0501632511874
269,1436986710472,59.5130339980738
270,1436986710941,35.6391212588726
271,1436986711382,31.5736982934471
272,1436986711860,40.4687605886456
273,1436986712445,31.7367470010219
274,1436986713059,32.597312720078
275,1436986713678,40.2539153616493
276,1436986714068,33.6547832557108
277,1436986714549,35.7569517620249
278,1436986715104,38.7255286269714
279,1436986715655,38.5159804307772
280,1436986716218,39.6217164157111
281,1436986716772,37.0180040633058
282,1436986717320,40.3183435180826
283,1436986717922,34.4879549741864
284,1436986718478,36.7748374116838
285,1436986719035,33.6744850626249
286,1436986719581,36.394473439961
287,1436986720195,43.764965414018
288,1436986720586,30.4748725052366
289,1436986721025,35.8059026007316
290,1436986721478,37.8748362504179
291,1436986721958,33.5286408697873
292,1436986722551,38.6006682031528
293,1436986723141,38.8578064657361
294,1436986723741,32.1453416684088
295,1436986724088,32.2005867032133
296,1436986724541,37.4526247712318
297,1436986725068,35.0836270249709
298,1436986725626,32.6921948160328
299,1436986726203,27.2212925769379
300,1436986726749,26.3827094957485
301,1436986727268,25.2331906105809
302,1436986727719,33.5365493531621
303,1436986728211,43.7185396293703
304,1436986728777,32.525060230823
305,1436986729342,38.2942793950385
306,1436986729825,30.2142698452747
307,1436986730375,31.9459053925698
308,1436986730938,40.5468463321799
309,1436986731507,36.8543462277244
310,1436986731960,33.1939575612479
311,1436986732400,36.2611554159959
312,1436986732876,43.1186483469859
313,1436986733547,31.7757894615044
314,1436986734103,33.1448131127752
315,1436986734678,31.4897964598297
316,1436986735238,20.5586005582229
317,1436986735692,29.1260190421675
318,1436986736169,36.9233188371473
319,1436986736731,31.5917063327048
320,1436986737284,30.769996907161
321,1436986737841,33.7705889832964
322,1436986738436,29.2789215489131
323,1436986738978,33.7258841440472
324,1436986739871,28.8519773193012
325,1436986740292,36.6809827761328
326,1436986740703,38.2926249041518
327,1436986741195,42.0791687639508
328,1436986741736,42.8824528207529
329,1436986742249,42.6954243797533
330,1436986742648,30.1390793684997
331,1436986743139,30.5704577706559
332,1436986743691,32.5681448954654
333,1436986744241,33.1956838380981
334,1436986744809,31.5922886872679
335,1436986745224,32.9924062326036
336,1436986745727,33.8310390552477
337,1436986746314,30.5851800522771
338,1436986746875,29.3397799432309
339,1436986747433,35.5895760322851
340,1436986747986,35.0014858105191
341,1436986748591,31.1745086256719
342,1436986749133,26.3471383906656
343,1436986749723,38.3929167468674
344,1436986750288,29.4987095426798
345,1436986750682,33.2172301826293
346,1436986751101,33.4286817896819
347,1436986751574,29.2049256003667
348,1436986752128,36.5882639296103
349,1436986752696,28.5142909681032
350,1436986753095,35.8475890695217
351,1436986753562,31.0882656090493
352,1436986754099,42.7690072402927
353,1436986754649,44.8413893360929
354,1436986755194,41.549388425922
355,1436986755599,41.8521711794403
356,1436986755965,29.8235740745684
357,1436986756359,45.0065984409253
358,1436986756842,41.6391614118248
359,1436986757402,38.144623371695
360,1436986757958,36.8823498574589
361,1436986758647,37.5580388601419
362,1436986759190,35.8254269135808
363,1436986759735,40.2537075749335
364,1436986760246,36.5910641906408
365,1436986760707,37.8690720398673
366,1436986761104,36.7318547791054
367,1436986761598,46.6841692661055
368,1436986762142,43.1176646670314
369,1436986762688,39.366156439874
370,1436986763213,35.3701084628487
371,1436986763609,36.4245403656724
372,1436986764077,32.865656578117
373,1436986764545,33.496970956465
374,1436986765112,33.7650541738901
375,1436986765677,33.2046611696123
376,1436986766221,41.2299080715762
377,1436986766667,38.1880532239898
378,1436986767239,35.0962671340437
379,1436986767778,31.9760076695021
380,1436986768336,41.3843519243039
381,1436986768817,45.4913049913768
382,1436986769254,40.2944970601103
383,1436986769814,40.2636962318136
384,1436986770374,46.4417774776477
385,1436986770932,51.1911099535202
386,1436986771499,39.8094794056724
387,1436986772048,40.5383727488789
388,1436986772647,50.3689245977887
389,1436986773191,38.1754149471343
390,1436986773765,32.3436514282971
391,1436986774360,38.7154307943722
392,1436986774817,38.0561799391902
393,1436986775306,44.1404713088578
394,1436986775846,32.7142663727943
395,1436986776423,40.0684384240404
396,1436986777027,40.567863189323
397,1436986777464,35.5445542832876
398,1436986777901,36.5959125983697
399,1436986778392,46.3531909703428
400,1436986778936,43.9434976249624
401,1436986779529,38.6069841116392
402,1436986780109,32.6518635896956
403,1436986780848,50.2754240614888
404,1436986781252,39.0810865126155
405,1436986781732,31.8595212320352
406,1436986782317,33.6384360425712
407,1436986782843,36.1736898007529
408,1436986783315,34.8490870869306
409,1436986783858,29.6805975457687
410,1436986784389,45.2356074721252
411,1436986784762,53.5125036659711
412,1436986785246,40.9158369731155
413,1436986785821,41.9152709705975
414,1436986786368,40.1075704074103
415,1436986787838,47.6404924880438
416,1436986788280,40.2250421781648
417,1436986788750,45.1374207655343
418,1436986789244,48.9700493832879
419,1436986789797,47.0313570605468
420,1436986790349,39.8637661149722
421,1436986790915,36.7384869323567
422,1436986791467,35.556976425825
423,1436986792033,35.161816274065
424,1436986792638,35.2400390938417
425,1436986793202,34.8039481302229
426,1436986793678,42.0719162690812
427,1436986794221,37.9726220575077
428,1436986794774,46.8093769375557
429,1436986795356,42.6210812009155
430,1436986795805,45.2040551741293
431,1436986796287,44.2693136630493
432,1436986796841,33.7807211002306
433,1436986797475,33.2046147107637
434,1436986798032,33.1560864071543
435,1436986798568,36.4782316369988
436,1436986799027,39.4895137012789
437,1436986799488,46.0481241585363
438,1436986799997,35.7401193329674
439,1436986801881,35.6764201338552
440,1436986802360,38.6674270049558
441,1436986802864,37.8978053883015
442,1436986803438,36.2250825123702
443,1436986803966,33.47766343256
444,1436986804465,35.8155575647031
445,1436986804913,37.0070591914627
446,1436986805400,33.9682844114353
447,1436986805863,41.7322891504867
448,1436986806316,40.880470520341
449,1436986806827,29.0755831726719
450,1436986807465,29.7865070871878
451,1436986808039,35.4013325597639
452,1436986808598,38.5442590031152
453,1436986809154,40.4544822246805
454,1436986809710,43.5024918444467
455,1436986810108,42.7238029457834
456,1436986810659,42.4619244681841
457,1436986811207,42.5769669283721
458,1436986811777,41.3180402384886
459,1436986812332,40.9170423805295
460,1436986812943,41.8583249268354
461,1436986813507,40.6696440041406
462,1436986814048,48.250717694971
463,1436986814606,43.5388523211552
464,1436986815178,47.5061561819051
465,1436986815689,41.4238323189246
466,1436986816052,45.1680174124902
467,1436986816498,43.2754819280933
468,1436986816956,42.1708518912644
469,1436986817502,43.4831968338204
470,1436986818098,43.6533780552198
471,1436986818736,41.7576344596208
472,1436986819284,41.5958468418009
473,1436986819830,42.9870725694223
474,1436986820252,40.5306349282986
475,1436986820819,45.4092895791125
476,1436986821209,58.3412565660343
477,1436986821621,39.4275611717338
478,1436986822159,41.3483095294282
479,1436986822727,43.0968083244915
480,1436986823249,41.5212446724901
481,1436986824667,50.1310764774489
482,1436986825156,43.6870702362416
483,1436986825733,47.1431744431352
484,1436986826282,42.6075548959279
485,1436986826679,48.2639599950186
486,1436986827109,43.2927964262323
487,1436986827608,43.0698517499447
488,1436986828193,41.9301919538675
489,1436986828673,43.5680275363366
490,1436986829199,40.4049608110314
491,1436986829729,41.1377685271685
492,1436986830153,39.2499443313348
493,1436986830716,42.1158058561027
494,1436986831276,45.0398602476049
495,1436986831822,48.1826065604722
496,1436986832291,48.7148018507073
497,1436986832852,47.4056629235045
498,1436986833403,46.5708628646366
499,1436986833947,40.492828906424
500,1436986834476,40.5534691352516
501,1436986835047,42.3628166079887
502,1436986835597,39.3671971636733
503,1436986836122,41.4441052655696
504,1436986837247,44.4000470276394
505,1436986837635,39.3670976873063
506,1436986838062,44.1957695611711
507,1436986838502,49.9345972991534
508,1436986839034,50.976071048295
509,1436986839593,41.8081808488638
510,1436986840155,42.9479101928132
511,1436986840732,42.5020379210769
512,1436986841270,41.64329735363
513,1436986841643,42.1861824207333
514,1436986842140,41.8025505680041
515,1436986842704,40.1646975440501
516,1436986843313,40.0832420153374
517,1436986843841,43.1630107205631
518,1436986844366,42.7192587599459
519,1436986844800,44.6960944289473
520,1436986845253,47.1507640066614
521,1436986845845,45.4163698912054
522,1436986846403,41.4480048495399
523,1436986846956,41.0912118972745
524,1436986847508,42.9647280169771
525,1436986847943,53.9253613935643
526,1436986848362,41.0812606131604
527,1436986848828,42.6394265421052
528,1436986849409,41.2735375145294
529,1436986849982,42.263275305214
530,1436986850554,41.7429727994801
531,1436986851140,42.733208687086
532,1436986851695,42.1950322937469
533,1436986852231,43.3916269177672
534,1436986852681,40.6321079865041
535,1436986853180,40.153710747687
536,1436986853738,41.4266818882596
537,1436986854303,39.8704200201915
538,1436986854855,41.7144487209282
539,1436986855405,46.1506946154402
540,1436986855966,45.1465846822567
541,1436986856570,40.2136745991303
542,1436986857112,41.711417518176
543,1436986857663,40.3242816969406
544,1436986858038,43.6657878883935
545,1436986858475,39.9905775559773
546,1436986858927,38.5706471317917
547,1436986859441,38.3147946062441
548,1436986860015,47.51833889905
549,1436986860588,40.1727760747347
550,1436986861118,41.0359894507102
551,1436986861513,40.2062709117272
552,1436986861920,48.5056424191932
553,1436986862390,42.9042239021392
554,1436986862972,50.0693103421746
555,1436986863469,41.4973687937772
556,1436986863926,38.250174378341
557,1436986864425,36.7034680610118
558,1436986864989,37.8062728782758
559,1436986865552,40.5750178579111
560,1436986866113,36.7023283592466
561,1436986866668,38.3429346525102
562,1436986867236,44.0295416249343
563,1436986867771,37.8319597853151
564,1436986868372,38.5973060960193
565,1436986868848,38.8578228464107
566,1436986869252,37.8245466297352
567,1436986869748,40.0161602664804
568,1436986870323,35.7201467254779
569,1436986870909,39.6900962982276
570,1436986871547,40.1048456774907
571,1436986872114,40.4035724724409
572,1436986872705,44.9146194450958
573,1436986873049,40.3845590014997
574,1436986873502,44.5172882108209
575,1436986873966,42.0936378932532
