id,attr_time,attr_light
1,1436181038074,0.0
2,1436181038094,0.0
3,1436181038114,0.0
4,1436181038135,0.0
5,1436181038152,0.0
6,1436181038172,0.0
7,1436181038194,0.0
8,1436181038214,0.0
9,1436181038232,0.0
10,1436181038252,0.0
11,1436181038271,0.0
12,1436181038291,0.0
13,1436181038311,0.0
14,1436181038331,0.0
15,1436181038351,0.0
16,1436181038374,0.0
17,1436181038392,0.0
18,1436181038414,0.0
19,1436181038493,0.0
20,1436181038494,0.0
21,1436181038495,0.0
22,1436181038496,0.0
23,1436181038514,0.0
24,1436181038531,0.0
25,1436181038552,0.0
26,1436181038575,0.0
27,1436181038592,0.0
28,1436181038612,0.0
29,1436181038632,0.0
30,1436181038654,0.0
31,1436181038675,0.0
32,1436181038692,0.0
33,1436181038713,0.0
34,1436181038735,0.0
35,1436181038752,0.0
36,1436181038772,0.0
37,1436181038791,0.0
38,1436181038811,0.0
39,1436181038832,0.0
40,1436181038852,0.0
41,1436181038872,0.0
42,1436181038893,0.0
43,1436181038913,0.0
44,1436181038933,0.0
45,1436181038953,0.0
46,1436181038972,0.0
47,1436181038993,0.0
48,1436181039013,0.0
49,1436181039033,0.0
50,1436181039054,0.0
51,1436181039073,0.0
52,1436181039093,0.0
53,1436181039162,0.0
54,1436181039163,0.0
55,1436181039164,0.0
56,1436181039172,0.0
57,1436181039194,0.0
58,1436181039214,0.0
59,1436181039232,0.0
60,1436181039266,0.0
61,1436181039271,0.0
62,1436181039291,0.0
63,1436181039311,0.0
64,1436181039331,0.0
65,1436181039352,0.0
66,1436181039375,0.0
67,1436181039393,0.0
68,1436181039415,0.0
69,1436181039433,0.0
70,1436181039455,0.0
71,1436181039473,0.0
72,1436181039494,0.0
73,1436181039519,0.0
74,1436181039534,0.0
75,1436181039555,0.0
76,1436181039573,0.0
77,1436181039593,0.0
78,1436181039615,0.0
79,1436181039632,0.0
80,1436181039653,0.0
81,1436181039675,0.0
82,1436181039693,0.0
83,1436181039715,0.0
84,1436181039733,0.0
85,1436181039757,0.0
86,1436181039775,0.0
87,1436181039807,0.0
88,1436181039818,0.0
89,1436181039836,0.0
90,1436181039852,0.0
91,1436181039873,0.0
92,1436181039892,0.0
93,1436181039913,0.0
94,1436181039936,0.0
95,1436181039955,0.0
96,1436181039976,0.0
97,1436181039994,0.0
98,1436181040013,0.0
99,1436181040036,0.0
100,1436181040055,0.0
101,1436181040076,0.0
102,1436181040094,0.0
103,1436181040115,0.0
104,1436181040134,0.0
105,1436181040154,0.0
106,1436181040174,0.0
107,1436181040194,0.0
108,1436181040215,0.0
109,1436181040234,0.0
110,1436181040257,0.0
111,1436181040273,0.0
112,1436181040293,0.0
113,1436181040313,0.0
114,1436181040333,0.0
115,1436181040356,0.0
116,1436181040375,0.0
117,1436181040395,0.0
118,1436181040419,0.0
119,1436181040481,0.0
120,1436181040482,0.0
121,1436181040483,0.0
122,1436181040495,0.0
123,1436181040515,0.0
124,1436181040534,0.0
125,1436181040558,0.0
126,1436181040576,0.0
127,1436181040593,0.0
128,1436181040617,0.0
129,1436181040639,0.0
130,1436181040655,0.0
131,1436181040673,0.0
132,1436181040694,0.0
133,1436181040716,0.0
134,1436181040741,0.0
135,1436181040756,0.0
136,1436181040773,0.0
137,1436181040795,0.0
138,1436181040813,0.0
139,1436181040833,0.0
140,1436181040854,0.0
141,1436181040874,0.0
142,1436181040893,0.0
143,1436181040914,0.0
144,1436181040934,0.0
145,1436181040959,0.0
146,1436181040977,0.0
147,1436181040993,0.0
148,1436181041015,0.0
149,1436181041035,0.0
150,1436181041055,0.0
151,1436181041112,0.0
152,1436181041113,0.0
153,1436181041123,0.0
154,1436181041139,0.0
155,1436181041153,0.0
156,1436181041174,0.0
157,1436181041195,0.0
158,1436181041214,0.0
159,1436181041236,0.0
160,1436181041254,0.0
161,1436181041274,0.0
162,1436181041294,0.0
163,1436181041314,0.0
164,1436181041334,0.0
165,1436181041358,0.0
166,1436181041377,0.0
167,1436181041394,0.0
168,1436181041417,0.0
169,1436181041435,0.0
170,1436181041456,0.0
171,1436181041475,0.0
172,1436181041494,0.0
173,1436181041514,0.0
174,1436181041535,0.0
175,1436181041555,0.0
176,1436181041573,0.0
177,1436181041595,0.0
178,1436181041613,0.0
179,1436181041633,0.0
180,1436181041653,0.0
181,1436181041673,0.0
182,1436181041696,0.0
183,1436181041714,0.0
184,1436181041733,0.0
185,1436181041753,0.0
186,1436181041774,0.0
187,1436181041794,0.0
188,1436181041814,0.0
189,1436181041834,0.0
190,1436181041854,0.0
191,1436181041874,0.0
192,1436181041894,0.0
193,1436181041914,0.0
194,1436181041934,0.0
195,1436181041954,0.0
196,1436181041975,0.0
197,1436181041998,0.0
198,1436181042016,0.0
199,1436181042037,0.0
200,1436181042059,0.0
201,1436181042077,0.0
202,1436181042097,0.0
203,1436181042115,0.0
204,1436181042138,0.0
205,1436181042158,0.0
206,1436181042178,0.0
207,1436181042199,0.0
208,1436181042225,0.0
209,1436181042236,0.0
210,1436181042255,0.0
211,1436181042319,0.0
212,1436181042331,0.0
213,1436181042332,0.0
214,1436181042335,0.0
215,1436181042354,0.0
216,1436181042375,0.0
217,1436181042398,0.0
218,1436181042415,0.0
219,1436181042438,0.0
220,1436181042456,0.0
221,1436181042479,0.0
222,1436181042499,0.0
223,1436181042521,0.0
224,1436181042537,0.0
225,1436181042558,0.0
226,1436181042578,0.0
227,1436181042598,0.0
228,1436181042618,0.0
229,1436181042638,0.0
230,1436181042658,0.0
231,1436181042676,0.0
232,1436181042696,0.0
233,1436181042716,0.0
234,1436181042740,0.0
235,1436181042755,0.0
236,1436181042775,0.0
237,1436181042795,0.0
238,1436181042815,0.0
239,1436181042835,0.0
240,1436181042858,0.0
241,1436181042876,0.0
242,1436181042895,0.0
243,1436181042917,0.0
244,1436181042938,0.0
245,1436181042956,0.0
246,1436181043003,0.0
247,1436181043004,0.0
248,1436181043015,0.0
249,1436181043037,0.0
250,1436181043060,0.0
251,1436181043076,0.0
252,1436181043097,0.0
253,1436181043117,0.0
254,1436181043139,0.0
255,1436181043158,0.0
256,1436181043178,0.0
257,1436181043197,0.0
258,1436181043216,0.0
259,1436181043238,0.0
260,1436181043256,0.0
261,1436181043276,0.0
262,1436181043296,0.0
263,1436181043316,0.0
264,1436181043339,0.0
265,1436181043359,0.0
266,1436181043379,0.0
267,1436181043396,0.0
268,1436181043418,0.0
269,1436181043437,0.0
270,1436181043457,0.0
271,1436181043479,0.0
272,1436181043499,0.0
273,1436181043519,0.0
274,1436181043538,0.0
275,1436181043560,0.0
276,1436181043577,0.0
277,1436181043605,0.0
278,1436181043653,0.0
279,1436181043654,0.0
280,1436181043657,0.0
281,1436181043681,0.0
282,1436181043700,0.0
283,1436181043716,0.0
284,1436181043738,0.0
285,1436181043757,0.0
286,1436181043776,0.0
287,1436181043796,0.0
288,1436181043816,0.0
289,1436181043836,0.0
290,1436181043860,0.0
291,1436181043884,0.0
292,1436181043898,0.0
293,1436181043919,0.0
294,1436181043939,0.0
295,1436181043958,0.0
296,1436181043980,0.0
297,1436181043996,0.0
298,1436181044019,0.0
299,1436181044039,0.0
300,1436181044060,0.0
301,1436181044079,0.0
302,1436181044194,0.0
303,1436181044195,0.0
304,1436181044196,0.0
305,1436181044197,0.0
306,1436181044198,0.0
307,1436181044199,0.0
308,1436181044216,0.0
309,1436181044236,0.0
310,1436181044256,0.0
311,1436181044276,0.0
312,1436181044296,0.0
313,1436181044316,0.0
314,1436181044336,0.0
315,1436181044356,0.0
316,1436181044376,0.0
317,1436181044396,0.0
318,1436181044416,0.0
319,1436181044436,0.0
320,1436181044456,0.0
321,1436181044476,0.0
322,1436181044496,0.0
323,1436181044517,0.0
324,1436181044541,0.0
325,1436181044558,0.0
326,1436181044579,0.0
327,1436181044600,0.0
328,1436181044620,0.0
329,1436181044669,0.0
330,1436181044670,0.0
331,1436181044680,0.0
332,1436181044698,0.0
333,1436181044722,0.0
334,1436181044746,0.0
335,1436181044761,0.0
336,1436181044778,0.0
337,1436181044798,0.0
338,1436181044822,0.0
339,1436181044870,0.0
340,1436181044871,0.0
341,1436181044882,0.0
342,1436181044899,0.0
343,1436181044917,0.0
344,1436181044938,0.0
345,1436181044958,0.0
346,1436181044979,0.0
347,1436181044998,0.0
348,1436181045020,0.0
349,1436181045040,0.0
350,1436181045060,0.0
351,1436181045080,0.0
352,1436181045099,0.0
353,1436181045120,0.0
354,1436181045140,0.0
355,1436181045160,0.0
356,1436181045181,0.0
357,1436181045200,0.0
358,1436181045218,0.0
359,1436181045244,0.0
360,1436181045262,0.0
361,1436181045278,0.0
362,1436181045298,0.0
363,1436181045318,0.0
364,1436181045338,0.0
365,1436181045361,0.0
366,1436181045378,0.0
367,1436181045403,0.0
368,1436181045426,0.0
369,1436181045441,0.0
370,1436181045459,0.0
371,1436181045544,0.0
372,1436181045545,0.0
373,1436181045546,0.0
374,1436181045547,0.0
375,1436181045571,0.0
376,1436181045577,0.0
377,1436181045600,0.0
378,1436181045617,0.0
379,1436181045637,0.0
380,1436181045657,0.0
381,1436181045677,0.0
382,1436181045697,0.0
383,1436181045717,0.0
384,1436181045737,0.0
385,1436181045757,0.0
386,1436181045777,0.0
387,1436181045797,0.0
388,1436181045817,0.0
389,1436181045837,0.0
390,1436181045857,0.0
391,1436181045877,0.0
392,1436181045897,0.0
393,1436181045920,0.0
394,1436181045939,0.0
395,1436181045962,0.0
396,1436181045982,0.0
397,1436181046000,0.0
398,1436181046022,0.0
399,1436181046040,0.0
400,1436181046060,0.0
401,1436181046080,0.0
402,1436181046111,0.0
403,1436181046170,0.0
404,1436181046171,0.0
405,1436181046172,0.0
406,1436181046183,0.0
407,1436181046198,0.0
408,1436181046218,0.0
409,1436181046244,0.0
410,1436181046263,0.0
411,1436181046279,0.0
412,1436181046299,0.0
413,1436181046322,0.0
414,1436181046341,0.0
415,1436181046360,0.0
416,1436181046381,0.0
417,1436181046399,0.0
418,1436181046422,0.0
419,1436181046442,0.0
420,1436181046462,0.0
421,1436181046481,0.0
422,1436181046501,0.0
423,1436181046522,0.0
424,1436181046542,0.0
425,1436181046562,0.0
426,1436181046582,0.0
427,1436181046602,0.0
428,1436181046622,0.0
429,1436181046641,0.0
430,1436181046662,0.0
431,1436181046682,0.0
432,1436181046702,0.0
433,1436181046721,0.0
434,1436181046741,0.0
435,1436181046759,0.0
436,1436181046779,0.0
437,1436181046829,0.0
438,1436181046830,0.0
439,1436181046847,0.0
440,1436181046859,0.0
441,1436181046881,0.0
442,1436181046900,0.0
443,1436181046920,0.0
444,1436181046941,0.0
445,1436181046962,0.0
446,1436181046982,0.0
447,1436181047002,0.0
448,1436181047022,0.0
449,1436181047042,0.0
450,1436181047062,0.0
451,1436181047082,0.0
452,1436181047102,0.0
453,1436181047121,0.0
454,1436181047142,0.0
455,1436181047161,0.0
456,1436181047180,0.0
457,1436181047201,0.0
458,1436181047220,0.0
459,1436181047239,0.0
460,1436181047259,0.0
461,1436181047279,0.0
462,1436181047304,0.0
463,1436181047320,0.0
464,1436181047342,0.0
465,1436181047361,0.0
466,1436181047380,0.0
467,1436181047400,0.0
468,1436181047429,0.0
469,1436181047525,0.0
470,1436181047526,0.0
471,1436181047527,0.0
472,1436181047528,0.0
473,1436181047529,0.0
474,1436181047539,0.0
475,1436181047560,0.0
476,1436181047579,0.0
477,1436181047601,0.0
478,1436181047625,0.0
479,1436181047646,0.0
480,1436181047660,0.0
481,1436181047682,0.0
482,1436181047702,0.0
483,1436181047723,0.0
484,1436181047741,0.0
485,1436181047763,0.0
486,1436181047783,0.0
487,1436181047803,0.0
488,1436181047821,0.0
489,1436181047841,0.0
490,1436181047862,0.0
491,1436181047882,0.0
492,1436181047903,0.0
493,1436181047922,0.0
494,1436181047942,0.0
495,1436181047963,0.0
496,1436181047982,0.0
497,1436181048003,0.0
498,1436181048022,0.0
499,1436181048043,0.0
500,1436181048061,0.0
501,1436181048086,0.0
502,1436181048142,0.0
503,1436181048143,0.0
504,1436181048154,0.0
505,1436181048163,0.0
506,1436181048183,0.0
507,1436181048200,0.0
508,1436181048220,0.0
509,1436181048241,0.0
510,1436181048261,0.0
511,1436181048282,0.0
512,1436181048303,0.0
513,1436181048323,0.0
514,1436181048342,0.0
515,1436181048363,0.0
516,1436181048383,0.0
517,1436181048403,0.0
518,1436181048423,0.0
519,1436181048444,0.0
520,1436181048462,0.0
521,1436181048482,0.0
522,1436181048502,0.0
523,1436181048522,0.0
524,1436181048544,0.0
525,1436181048562,0.0
526,1436181048582,0.0
527,1436181048604,0.0
528,1436181048623,0.0
529,1436181048643,0.0
530,1436181048720,0.0
531,1436181048721,0.0
532,1436181048722,0.0
533,1436181048723,0.0
534,1436181048740,0.0
535,1436181048761,0.0
536,1436181048780,0.0
537,1436181048802,0.0
538,1436181048820,0.0
539,1436181048840,0.0
540,1436181048860,0.0
541,1436181048880,0.0
542,1436181048900,0.0
543,1436181048921,0.0
544,1436181048941,0.0
545,1436181048961,0.0
546,1436181048981,0.0
547,1436181049001,0.0
548,1436181049021,0.0
549,1436181049041,0.0
550,1436181049067,0.0
551,1436181049083,0.0
552,1436181049108,0.0
553,1436181049122,0.0
554,1436181049144,0.0
555,1436181049162,0.0
556,1436181049183,0.0
557,1436181049204,0.0
558,1436181049222,0.0
559,1436181049242,0.0
560,1436181049263,0.0
561,1436181049282,0.0
562,1436181049304,0.0
563,1436181049329,0.0
564,1436181049341,0.0
565,1436181049363,0.0
566,1436181049392,0.0
567,1436181049402,0.0
568,1436181049421,0.0
569,1436181049441,0.0
570,1436181049461,0.0
571,1436181049484,0.0
572,1436181049504,0.0
573,1436181049523,0.0
574,1436181049545,0.0
575,1436181049565,0.0
576,1436181049582,0.0
577,1436181049604,0.0
578,1436181049625,0.0
579,1436181049645,0.0
580,1436181049697,0.0
581,1436181049698,0.0
582,1436181049718,0.0
583,1436181049739,0.0
584,1436181049741,0.0
585,1436181049761,0.0
586,1436181049781,0.0
587,1436181049801,0.0
588,1436181049821,0.0
589,1436181049841,0.0
590,1436181049863,0.0
591,1436181049885,0.0
592,1436181049903,0.0
593,1436181049925,0.0
594,1436181049945,0.0
595,1436181049964,0.0
596,1436181049985,0.0
597,1436181050004,0.0
598,1436181050051,0.0
599,1436181050052,0.0
600,1436181050064,0.0
601,1436181050084,0.0
602,1436181050102,0.0
603,1436181050123,0.0
604,1436181050143,0.0
605,1436181050163,0.0
606,1436181050183,0.0
607,1436181050214,0.0
608,1436181050225,0.0
609,1436181050247,0.0
610,1436181050263,0.0
611,1436181050284,0.0
612,1436181050304,0.0
613,1436181050324,0.0
614,1436181050345,0.0
615,1436181050365,0.0
616,1436181050385,0.0
617,1436181050404,0.0
618,1436181050426,0.0
619,1436181050445,0.0
620,1436181050465,0.0
621,1436181050485,0.0
622,1436181050505,0.0
623,1436181050527,0.0
624,1436181050547,0.0
625,1436181050567,0.0
626,1436181050585,0.0
627,1436181050606,0.0
628,1436181050623,0.0
629,1436181050646,0.0
630,1436181050755,0.0
631,1436181050756,0.0
632,1436181050757,0.0
633,1436181050758,0.0
634,1436181050759,0.0
635,1436181050769,0.0
636,1436181050782,0.0
637,1436181050804,0.0
638,1436181050822,0.0
639,1436181050842,0.0
640,1436181050862,0.0
641,1436181050882,0.0
642,1436181050902,0.0
643,1436181050922,0.0
644,1436181050942,0.0
645,1436181050962,0.0
646,1436181050982,0.0
647,1436181051002,0.0
648,1436181051022,0.0
649,1436181051042,0.0
650,1436181051062,0.0
651,1436181051082,0.0
652,1436181051103,0.0
653,1436181051124,0.0
654,1436181051146,0.0
655,1436181051166,0.0
656,1436181051186,0.0
657,1436181051208,0.0
658,1436181051226,0.0
659,1436181051246,0.0
660,1436181051266,0.0
661,1436181051286,0.0
662,1436181051304,0.0
663,1436181051361,0.0
664,1436181051362,0.0
665,1436181051363,0.0
666,1436181051387,0.0
667,1436181051403,0.0
668,1436181051423,0.0
669,1436181051447,0.0
670,1436181051463,0.0
671,1436181051485,0.0
672,1436181051507,0.0
673,1436181051525,0.0
674,1436181051546,0.0
675,1436181051569,0.0
676,1436181051587,0.0
677,1436181051607,0.0
678,1436181051624,0.0
679,1436181051646,0.0
680,1436181051666,0.0
681,1436181051686,0.0
682,1436181051704,0.0
683,1436181051727,0.0
684,1436181051746,0.0
685,1436181051766,0.0
686,1436181051785,0.0
687,1436181051808,0.0
688,1436181051824,0.0
689,1436181051843,0.0
690,1436181051863,0.0
691,1436181051886,0.0
692,1436181051907,0.0
693,1436181051925,0.0
694,1436181051946,0.0
695,1436181051967,0.0
696,1436181052021,0.0
697,1436181052033,0.0
698,1436181052034,0.0
699,1436181052044,0.0
700,1436181052067,0.0
701,1436181052088,0.0
702,1436181052105,0.0
703,1436181052124,0.0
704,1436181052146,0.0
705,1436181052167,0.0
706,1436181052187,0.0
707,1436181052207,0.0
708,1436181052224,0.0
709,1436181052247,0.0
710,1436181052267,0.0
711,1436181052287,0.0
712,1436181052307,0.0
713,1436181052327,0.0
714,1436181052347,0.0
715,1436181052365,0.0
716,1436181052388,0.0
717,1436181052404,0.0
718,1436181052427,0.0
719,1436181052446,0.0
720,1436181052488,0.0
721,1436181052489,0.0
722,1436181052568,0.0
723,1436181052569,0.0
724,1436181052570,0.0
725,1436181052571,0.0
726,1436181052585,0.0
727,1436181052604,0.0
728,1436181052624,0.0
729,1436181052648,0.0
730,1436181052664,0.0
731,1436181052684,0.0
732,1436181052704,0.0
733,1436181052724,0.0
734,1436181052744,0.0
735,1436181052764,0.0
736,1436181052784,0.0
737,1436181052804,0.0
738,1436181052824,0.0
739,1436181052844,0.0
740,1436181052864,0.0
741,1436181052884,0.0
742,1436181052904,0.0
743,1436181052924,0.0
744,1436181052948,0.0
745,1436181052964,0.0
746,1436181052984,0.0
747,1436181053005,0.0
748,1436181053025,0.0
749,1436181053045,0.0
750,1436181053069,0.0
751,1436181053089,0.0
752,1436181053109,0.0
753,1436181053128,0.0
754,1436181053146,0.0
755,1436181053167,0.0
756,1436181053188,0.0
757,1436181053205,0.0
758,1436181053227,0.0
759,1436181053267,0.0
760,1436181053268,0.0
761,1436181053286,0.0
762,1436181053307,0.0
763,1436181053328,0.0
764,1436181053347,0.0
765,1436181053367,0.0
766,1436181053386,0.0
767,1436181053409,0.0
768,1436181053427,0.0
769,1436181053446,0.0
770,1436181053472,0.0
771,1436181053486,0.0
772,1436181053507,0.0
773,1436181053526,0.0
774,1436181053548,0.0
775,1436181053568,0.0
776,1436181053587,0.0
777,1436181053606,0.0
778,1436181053627,0.0
779,1436181053649,0.0
780,1436181053667,0.0
781,1436181053686,0.0
782,1436181053708,0.0
783,1436181053730,0.0
784,1436181053750,0.0
785,1436181053766,0.0
786,1436181053788,0.0
787,1436181053808,0.0
788,1436181053826,0.0
789,1436181053849,0.0
790,1436181053935,0.0
791,1436181053936,0.0
792,1436181053937,0.0
793,1436181053938,0.0
794,1436181053952,0.0
795,1436181053966,0.0
796,1436181053985,0.0
797,1436181054005,0.0
798,1436181054025,0.0
799,1436181054047,0.0
800,1436181054069,0.0
801,1436181054089,0.0
802,1436181054108,0.0
803,1436181054129,0.0
804,1436181054146,0.0
805,1436181054169,0.0
806,1436181054188,0.0
807,1436181054209,0.0
808,1436181054229,0.0
809,1436181054247,0.0
810,1436181054269,0.0
811,1436181054288,0.0
812,1436181054308,0.0
813,1436181054329,0.0
814,1436181054348,0.0
815,1436181054373,0.0
816,1436181054392,0.0
817,1436181054419,0.0
818,1436181054445,0.0
819,1436181054446,0.0
820,1436181054466,0.0
821,1436181054486,0.0
822,1436181054506,0.0
823,1436181054544,0.0
824,1436181054554,0.0
825,1436181054585,0.0
826,1436181054589,0.0
827,1436181054611,0.0
828,1436181054626,0.0
829,1436181054671,0.0
830,1436181054672,0.0
831,1436181054687,0.0
832,1436181054707,0.0
833,1436181054730,0.0
834,1436181054747,0.0
835,1436181054769,0.0
836,1436181054789,0.0
837,1436181054809,0.0
838,1436181054829,0.0
839,1436181054849,0.0
840,1436181054869,0.0
841,1436181054889,0.0
842,1436181054908,0.0
843,1436181054935,0.0
844,1436181054951,0.0
845,1436181054967,0.0
846,1436181054987,0.0
847,1436181055007,0.0
848,1436181055028,0.0
849,1436181055049,0.0
850,1436181055070,0.0
851,1436181055090,0.0
852,1436181055109,0.0
853,1436181055130,0.0
854,1436181055149,0.0
855,1436181055176,0.0
856,1436181055238,0.0
857,1436181055239,0.0
858,1436181055240,0.0
859,1436181055252,0.0
860,1436181055266,0.0
861,1436181055287,0.0
862,1436181055308,0.0
863,1436181055328,0.0
864,1436181055348,0.0
865,1436181055371,0.0
866,1436181055389,0.0
867,1436181055408,0.0
868,1436181055437,0.0
869,1436181055452,0.0
870,1436181055470,0.0
871,1436181056416,0.0
872,1436181056417,0.0
873,1436181056418,0.0
874,1436181056419,0.0
875,1436181056420,0.0
876,1436181056421,0.0
877,1436181056422,0.0
878,1436181056423,0.0
879,1436181056424,0.0
880,1436181056425,0.0
881,1436181056426,0.0
882,1436181056427,0.0
883,1436181056428,0.0
884,1436181056429,0.0
885,1436181056430,0.0
886,1436181056431,0.0
887,1436181056432,0.0
888,1436181056433,0.0
889,1436181056434,0.0
890,1436181056435,0.0
891,1436181056436,0.0
892,1436181056437,0.0
893,1436181056438,0.0
894,1436181056439,0.0
895,1436181056440,0.0
896,1436181056441,0.0
897,1436181056442,0.0
898,1436181056443,0.0
899,1436181056444,0.0
900,1436181056445,0.0
901,1436181056446,0.0
902,1436181056447,0.0
903,1436181056448,0.0
904,1436181056449,0.0
905,1436181056450,0.0
906,1436181056451,0.0
907,1436181056452,0.0
908,1436181056453,0.0
909,1436181056454,0.0
910,1436181056455,0.0
911,1436181056456,0.0
912,1436181056457,0.0
