id,attr_time,attr_x,attr_y,attr_z
1,1436166025005,-42.716,8.424,17.585
2,1436166025027,-42.716,8.424,17.585
3,1436166025047,-42.716,8.424,17.585
4,1436166025067,-42.716,8.424,17.585
5,1436166025084,-42.716,8.424,17.585
6,1436166025105,-42.716,8.424,17.585
7,1436166025128,-42.716,8.424,17.585
8,1436166025146,-42.716,8.424,17.585
9,1436166025167,-42.716,8.424,17.585
10,1436166025184,-42.716,8.424,17.585
11,1436166025205,-42.716,8.424,17.585
12,1436166025225,-42.716,8.424,17.585
13,1436166025249,-42.716,8.424,17.585
14,1436166025270,-42.716,8.424,17.585
15,1436166025290,-42.716,8.424,17.585
16,1436166025308,-42.716,8.424,17.585
17,1436166025325,-42.716,8.424,17.585
18,1436166025344,-42.716,8.424,17.585
19,1436166025364,-42.716,8.424,17.585
20,1436166025385,-42.716,8.103,17.585
21,1436166025404,-42.716,8.103,17.585
22,1436166025457,-42.716,8.103,17.585
23,1436166025458,-42.716,8.103,17.585
24,1436166025476,-42.716,8.103,17.585
25,1436166025484,-42.716,8.103,17.585
26,1436166025505,-42.716,8.103,17.585
27,1436166025526,-42.716,7.771,17.585
28,1436166025544,-42.716,7.771,17.585
29,1436166025568,-42.716,7.771,17.585
30,1436166025585,-42.716,7.771,17.585
31,1436166025605,-42.716,7.771,17.585
32,1436166025625,-42.716,7.771,17.585
33,1436166025645,-42.716,7.771,17.585
34,1436166025667,-42.716,7.455,17.585
35,1436166025688,-42.716,7.455,17.585
36,1436166025708,-42.716,7.455,17.585
37,1436166025726,-42.716,7.455,17.585
38,1436166025748,-42.716,7.455,17.585
39,1436166025768,-42.716,7.455,17.585
40,1436166025788,-42.716,7.455,17.585
41,1436166025808,-42.716,7.455,17.585
42,1436166025825,-42.716,7.455,17.585
43,1436166025845,-42.716,7.11,17.585
44,1436166025865,-42.716,7.11,17.585
45,1436166025887,-43.023,7.11,17.585
46,1436166025908,-43.023,7.11,17.585
47,1436166025925,-43.023,7.11,17.585
48,1436166025947,-43.023,7.11,17.585
49,1436166025968,-43.023,7.11,17.234
50,1436166025989,-43.023,7.11,17.234
51,1436166026009,-43.023,7.11,17.234
52,1436166026031,-43.023,7.11,17.234
53,1436166026048,-43.023,7.11,17.234
54,1436166026068,-43.023,6.8,17.234
55,1436166026085,-43.023,6.8,17.234
56,1436166026107,-43.023,6.8,17.234
57,1436166026126,-43.023,6.8,17.234
58,1436166026148,-43.023,6.8,17.234
59,1436166026200,-43.023,6.8,17.234
60,1436166026201,-43.023,6.8,17.234
61,1436166026214,-43.023,6.8,17.234
62,1436166026225,-43.023,6.488,17.234
63,1436166026249,-43.023,6.488,17.234
64,1436166026266,-43.023,6.488,17.234
65,1436166026286,-43.023,6.488,17.234
66,1436166026307,-43.023,6.488,17.234
67,1436166026326,-43.023,6.488,17.234
68,1436166026345,-43.023,6.488,17.555
69,1436166026366,-43.023,6.488,17.555
70,1436166026388,-43.023,6.488,17.555
71,1436166026405,-43.023,6.488,17.555
72,1436166026428,-43.023,6.488,17.555
73,1436166026447,-43.023,6.488,17.555
74,1436166026465,-43.023,6.488,17.555
75,1436166026486,-43.023,6.488,17.555
76,1436166026506,-43.023,6.488,17.555
77,1436166026525,-43.023,6.488,17.555
78,1436166026549,-43.023,6.488,17.555
79,1436166026569,-43.023,6.488,17.555
80,1436166026589,-43.023,6.488,17.555
81,1436166026606,-43.023,6.488,17.555
82,1436166026628,-43.023,6.488,17.555
83,1436166026645,-43.023,6.488,17.555
84,1436166026665,-43.023,6.488,17.555
85,1436166026685,-43.023,6.488,17.555
86,1436166026711,-43.023,6.488,17.555
87,1436166026731,-43.023,6.488,17.555
88,1436166026753,-43.023,6.488,17.555
89,1436166026769,-43.023,6.488,17.555
90,1436166026813,-43.023,6.488,17.555
91,1436166026814,-43.023,6.488,17.555
92,1436166026825,-43.023,6.488,17.555
93,1436166026846,-43.023,6.488,17.555
94,1436166026865,-43.023,6.793,17.555
95,1436166026920,-43.023,6.793,17.869
96,1436166026921,-43.023,6.793,17.869
97,1436166026938,-43.023,6.793,17.869
98,1436166026945,-43.023,6.793,17.869
99,1436166026966,-43.023,6.793,17.869
100,1436166026988,-43.023,6.793,17.869
101,1436166027005,-43.023,6.793,17.869
102,1436166027031,-43.023,6.793,17.869
103,1436166027047,-43.023,6.793,17.869
104,1436166027068,-43.023,6.793,17.869
105,1436166027087,-43.023,6.793,17.869
106,1436166027106,-43.023,6.793,17.869
107,1436166027129,-43.023,6.793,17.558
108,1436166027148,-43.023,6.793,17.558
109,1436166027169,-43.023,6.793,17.558
110,1436166027189,-43.023,6.793,17.558
111,1436166027209,-43.023,6.793,17.558
112,1436166027229,-43.023,6.483,17.558
113,1436166027249,-43.023,6.483,17.558
114,1436166027269,-43.023,6.483,17.558
115,1436166027289,-43.023,6.483,17.558
116,1436166027309,-43.023,6.483,17.558
117,1436166027327,-43.023,6.483,17.558
118,1436166027348,-43.023,6.483,17.558
119,1436166027369,-43.023,6.483,17.558
120,1436166027387,-43.023,6.483,17.558
121,1436166027408,-43.023,6.483,17.558
122,1436166027429,-43.023,6.483,17.558
123,1436166027449,-43.023,6.483,17.195
124,1436166027469,-43.353,6.483,17.195
125,1436166027489,-43.353,6.483,17.195
126,1436166027509,-43.353,6.483,17.195
127,1436166027530,-43.353,6.483,16.831
128,1436166027547,-43.353,6.483,16.831
129,1436166027568,-43.353,6.483,16.831
130,1436166027587,-43.353,6.483,16.831
131,1436166027606,-43.353,6.483,16.482
132,1436166027653,-43.353,6.483,16.482
133,1436166027654,-43.353,6.483,16.482
134,1436166027675,-43.658,6.483,16.482
135,1436166027686,-43.658,6.483,16.168
136,1436166027707,-43.658,6.483,16.168
137,1436166027727,-43.658,6.483,16.168
138,1436166027746,-43.658,6.483,16.168
139,1436166027768,-43.658,6.483,16.168
140,1436166027786,-43.658,6.483,16.168
141,1436166027809,-43.658,6.483,16.168
142,1436166027831,-43.658,6.483,16.168
143,1436166027847,-43.658,6.483,16.168
144,1436166027869,-43.658,6.483,16.168
145,1436166027887,-43.658,6.483,16.168
146,1436166027909,-43.658,6.483,16.168
147,1436166027930,-43.658,6.483,16.168
148,1436166027950,-43.658,6.483,16.168
149,1436166027970,-43.658,6.483,16.168
150,1436166027986,-43.658,6.483,16.168
151,1436166028009,-43.658,6.483,16.481
152,1436166028030,-43.658,6.483,16.481
153,1436166028050,-43.658,6.483,16.481
154,1436166028068,-43.658,6.483,16.481
155,1436166028089,-43.351,6.483,16.481
156,1436166028108,-43.351,6.483,16.481
157,1436166028129,-43.351,6.483,16.481
158,1436166028150,-43.351,6.483,16.859
159,1436166028169,-43.351,6.483,16.859
160,1436166028189,-43.351,6.483,16.859
161,1436166028209,-43.351,6.483,16.859
162,1436166028229,-43.351,6.483,16.859
163,1436166028250,-43.351,6.483,16.859
164,1436166028275,-43.351,6.483,16.859
165,1436166028287,-43.351,6.785,17.167
166,1436166028307,-43.351,6.785,17.167
167,1436166028327,-43.351,6.785,17.167
168,1436166028347,-43.351,6.785,17.167
169,1436166028375,-43.351,6.785,17.167
170,1436166028387,-43.351,6.785,17.167
171,1436166028407,-43.351,6.785,17.167
172,1436166028427,-43.351,6.785,17.167
173,1436166028447,-43.351,6.785,17.167
174,1436166028467,-43.351,6.785,17.167
175,1436166028488,-43.351,6.785,17.167
176,1436166028524,-43.351,6.785,17.167
177,1436166028527,-43.351,6.785,17.167
178,1436166028567,-43.351,6.785,17.167
179,1436166028568,-43.351,7.104,17.167
180,1436166028603,-43.351,7.104,17.167
181,1436166028608,-43.351,7.104,17.167
182,1436166028635,-43.351,7.104,17.167
183,1436166028648,-43.351,7.104,17.167
184,1436166028667,-43.351,7.104,17.167
185,1436166028687,-43.351,7.104,17.167
186,1436166028707,-43.351,7.104,17.167
187,1436166028727,-43.351,7.104,17.468
188,1436166028747,-43.351,7.104,17.468
189,1436166028767,-43.351,7.104,17.468
190,1436166028789,-43.351,7.104,17.468
191,1436166028809,-43.351,7.104,17.468
192,1436166028837,-43.351,7.104,17.468
193,1436166028847,-43.351,7.104,17.468
194,1436166028867,-43.351,7.104,17.468
195,1436166028887,-43.351,7.104,17.468
196,1436166028907,-43.351,7.104,17.468
197,1436166028931,-43.351,7.104,17.468
198,1436166028948,-43.351,7.104,17.468
199,1436166028967,-43.351,7.104,17.468
200,1436166028987,-43.351,7.104,17.468
201,1436166029008,-43.351,7.104,17.468
202,1436166029027,-43.351,7.104,17.468
203,1436166029048,-43.351,7.104,17.468
204,1436166029067,-43.351,7.104,17.468
205,1436166029087,-43.351,7.104,17.468
206,1436166029107,-43.351,7.104,17.468
207,1436166029138,-43.351,7.104,17.14
208,1436166029147,-43.351,6.788,17.14
209,1436166029168,-43.351,6.788,17.14
210,1436166029187,-43.351,6.788,17.14
211,1436166029208,-43.351,6.788,17.14
212,1436166029228,-43.351,6.788,17.14
213,1436166029249,-43.351,6.788,17.14
214,1436166029267,-43.351,6.788,17.14
215,1436166029291,-43.351,6.788,17.14
216,1436166029311,-43.351,6.466,17.14
217,1436166029328,-43.351,6.466,17.14
218,1436166029348,-43.351,6.466,17.14
219,1436166029371,-43.351,6.466,17.14
220,1436166029391,-43.351,6.466,17.14
221,1436166029411,-43.351,6.101,17.14
222,1436166029428,-43.351,6.101,17.14
223,1436166029449,-43.351,6.101,17.14
224,1436166029471,-43.351,6.101,17.14
225,1436166029488,-43.351,5.723,17.14
226,1436166029508,-43.351,5.723,17.14
227,1436166029529,-43.351,5.723,17.14
228,1436166029549,-43.351,5.413,17.14
229,1436166029570,-43.351,5.413,17.14
230,1436166029589,-43.351,5.413,17.14
231,1436166029609,-43.351,5.413,17.512
232,1436166029628,-43.351,5.072,17.512
233,1436166029650,-43.351,5.072,17.512
234,1436166029671,-43.351,5.072,17.512
235,1436166029690,-43.351,5.072,17.878
236,1436166029711,-43.351,5.072,17.878
237,1436166029731,-43.351,4.769,17.878
238,1436166029749,-43.351,4.769,18.249
239,1436166029771,-43.351,4.769,18.249
240,1436166029820,-43.351,4.769,18.249
241,1436166029821,-43.351,4.769,18.249
242,1436166029830,-43.351,4.769,18.603
243,1436166029850,-43.046,4.428,18.603
244,1436166029869,-43.046,4.428,18.603
245,1436166029889,-43.046,4.428,18.92
246,1436166029908,-43.046,4.428,18.92
247,1436166029928,-43.046,4.428,18.92
248,1436166029949,-43.046,4.428,18.92
249,1436166029970,-43.046,4.428,18.92
250,1436166029989,-43.046,4.428,18.92
251,1436166030009,-43.046,4.428,19.232
252,1436166030028,-43.046,4.428,19.232
253,1436166030049,-43.046,4.428,19.232
254,1436166030068,-43.046,4.428,19.232
255,1436166030092,-43.046,4.428,19.232
256,1436166030112,-43.046,4.428,19.232
257,1436166030132,-43.046,4.428,19.232
258,1436166030151,-43.046,4.428,19.232
259,1436166030169,-43.046,4.428,19.232
260,1436166030192,-43.046,4.428,19.232
261,1436166030212,-43.046,4.428,19.232
262,1436166030229,-43.046,4.428,18.85
263,1436166030251,-43.046,4.428,18.85
264,1436166030272,-43.046,4.428,18.85
265,1436166030288,-43.046,4.428,18.85
266,1436166030309,-43.046,4.428,18.531
267,1436166030329,-43.046,4.428,18.531
268,1436166030349,-43.046,4.428,18.531
269,1436166030370,-43.046,4.428,18.202
270,1436166030402,-43.371,4.428,18.202
271,1436166030409,-43.371,4.428,18.202
272,1436166030429,-43.371,4.428,17.765
273,1436166030449,-43.371,4.428,17.765
274,1436166030469,-43.371,4.428,17.457
275,1436166030489,-43.371,4.428,17.457
276,1436166030509,-43.371,4.428,17.457
277,1436166030543,-43.704,4.428,17.088
278,1436166030555,-43.704,4.428,17.088
279,1436166030570,-43.704,4.428,17.088
280,1436166030589,-43.704,4.428,16.662
281,1436166030609,-43.704,4.428,16.662
282,1436166030629,-43.704,4.428,16.662
283,1436166030654,-44.039,4.428,16.244
284,1436166030669,-44.039,4.428,16.244
285,1436166030689,-44.039,4.428,16.244
286,1436166030709,-44.039,4.428,15.797
287,1436166030729,-44.039,4.428,15.797
288,1436166030749,-44.039,4.76,15.797
289,1436166030770,-44.039,4.76,15.797
290,1436166030789,-44.039,4.76,15.415
291,1436166030809,-44.039,4.76,15.415
292,1436166030829,-44.039,4.76,15.415
293,1436166030849,-44.039,4.76,15.415
294,1436166030869,-44.351,4.76,15.078
295,1436166030889,-44.351,5.134,15.078
296,1436166030912,-44.351,5.134,15.078
297,1436166030931,-44.351,5.134,15.078
298,1436166030949,-44.351,5.134,14.723
299,1436166030970,-44.351,5.134,14.723
300,1436166030990,-44.351,5.134,14.723
301,1436166031011,-44.351,5.488,14.723
302,1436166031031,-44.351,5.488,14.419
303,1436166031051,-44.351,5.488,14.419
304,1436166031071,-44.351,5.488,14.419
305,1436166031089,-44.351,5.488,14.419
306,1436166031109,-44.351,5.821,14.419
307,1436166031130,-44.351,5.821,14.419
308,1436166031154,-44.351,5.821,14.419
309,1436166031175,-44.351,5.821,14.419
310,1436166031190,-44.351,5.821,14.419
311,1436166031233,-44.351,6.138,14.419
312,1436166031234,-44.351,6.138,14.419
313,1436166031249,-44.351,6.138,14.419
314,1436166031269,-44.351,6.138,14.419
315,1436166031289,-44.351,6.138,14.112
316,1436166031311,-44.351,6.138,14.112
317,1436166031329,-44.351,6.443,14.112
318,1436166031350,-44.351,6.443,14.112
319,1436166031370,-44.351,6.443,14.112
320,1436166031392,-44.351,6.443,14.112
321,1436166031413,-44.351,6.443,14.112
322,1436166031436,-44.351,6.443,14.112
323,1436166031452,-44.351,6.443,14.112
324,1436166031471,-44.351,6.443,14.112
325,1436166031491,-44.351,6.752,14.112
326,1436166031512,-44.351,6.752,14.112
327,1436166031536,-44.351,6.752,14.112
328,1436166031549,-44.351,6.752,14.112
329,1436166031570,-44.351,6.752,14.112
330,1436166031590,-44.351,6.752,14.112
331,1436166031611,-44.351,6.752,14.437
332,1436166031632,-44.351,6.752,14.437
333,1436166031650,-44.351,6.752,14.437
334,1436166031671,-44.351,6.752,14.437
335,1436166031690,-44.351,6.752,14.437
336,1436166031715,-44.351,6.752,14.437
337,1436166031736,-44.351,6.752,14.437
338,1436166031756,-44.351,6.752,14.765
339,1436166031773,-44.351,6.752,14.765
340,1436166031790,-44.351,6.752,14.765
341,1436166031810,-44.351,6.752,14.765
342,1436166031830,-44.351,6.752,14.765
343,1436166031854,-44.351,6.423,14.765
344,1436166031870,-44.351,6.423,15.139
345,1436166031939,-44.351,6.423,15.139
346,1436166031940,-44.351,6.423,15.139
347,1436166031941,-44.351,6.423,15.139
348,1436166031950,-44.042,6.423,15.473
349,1436166031974,-44.042,6.097,15.473
350,1436166031994,-44.042,6.097,15.473
351,1436166032010,-44.042,6.097,15.473
352,1436166032033,-44.042,6.097,15.473
353,1436166032051,-44.042,6.097,15.873
354,1436166032072,-44.042,5.718,15.873
355,1436166032091,-44.042,5.718,15.873
356,1436166032113,-44.042,5.718,16.215
357,1436166032131,-44.042,5.718,16.215
358,1436166032153,-44.042,5.337,16.215
359,1436166032174,-44.042,5.337,16.567
360,1436166032193,-43.719,5.337,16.567
361,1436166032213,-43.719,4.986,16.567
362,1436166032234,-43.719,4.986,17.018
363,1436166032254,-43.719,4.986,17.018
364,1436166032274,-43.719,4.664,17.018
365,1436166032291,-43.719,4.664,17.436
366,1436166032311,-43.719,4.664,17.436
367,1436166032332,-43.415,4.664,17.436
368,1436166032355,-43.415,4.307,17.799
369,1436166032381,-43.415,4.307,17.799
370,1436166032396,-43.415,4.307,17.799
371,1436166032417,-43.415,4.307,18.124
372,1436166032432,-43.415,4.307,18.124
373,1436166032451,-43.415,3.985,18.124
374,1436166032471,-43.415,3.985,18.124
375,1436166032492,-43.415,3.985,18.452
376,1436166032514,-43.112,3.985,18.452
377,1436166032537,-43.112,3.985,18.452
378,1436166032556,-43.112,3.985,18.452
379,1436166032574,-43.112,3.985,18.452
380,1436166032642,-43.112,3.985,18.452
381,1436166032643,-43.112,3.985,18.452
382,1436166032644,-43.112,3.985,18.452
383,1436166032659,-43.112,3.985,18.452
384,1436166032672,-43.112,3.985,18.452
385,1436166032693,-43.112,3.985,18.452
386,1436166032716,-43.112,3.985,18.452
387,1436166032731,-43.112,3.985,18.452
388,1436166032751,-43.112,3.985,18.452
389,1436166032773,-43.112,3.985,18.452
390,1436166032792,-43.112,4.319,18.452
391,1436166032812,-43.112,4.319,18.452
392,1436166032832,-43.112,4.319,18.452
393,1436166032857,-43.112,4.319,18.452
394,1436166032874,-43.112,4.319,18.452
395,1436166032894,-43.112,4.319,18.452
396,1436166032914,-43.112,4.319,18.452
397,1436166032934,-43.112,4.319,18.452
398,1436166032955,-43.112,4.319,18.452
399,1436166032974,-43.112,4.319,18.452
400,1436166032994,-43.112,4.319,18.452
401,1436166033014,-43.112,4.319,18.452
402,1436166033034,-43.112,4.319,18.452
403,1436166033052,-43.112,4.319,18.452
404,1436166033072,-43.112,4.319,18.452
405,1436166033094,-43.112,4.319,18.452
406,1436166033114,-43.112,4.319,18.452
407,1436166033135,-43.112,4.319,18.452
408,1436166033153,-43.112,4.319,18.452
409,1436166033174,-43.112,4.319,18.452
410,1436166033195,-43.112,4.319,18.452
411,1436166033214,-43.112,4.319,18.452
412,1436166033235,-43.112,4.319,18.147
413,1436166033255,-43.112,4.319,18.147
414,1436166033275,-43.112,4.319,18.147
415,1436166033295,-43.112,4.319,18.147
416,1436166033313,-43.112,4.319,18.147
417,1436166033421,-43.112,4.319,18.147
418,1436166033422,-43.112,4.319,17.753
419,1436166033423,-43.112,4.319,17.753
420,1436166033424,-43.446,4.319,17.753
421,1436166033425,-43.446,4.319,17.753
422,1436166033477,-43.446,4.319,17.387
423,1436166033478,-43.446,4.319,17.387
424,1436166033479,-43.446,4.319,17.387
425,1436166033583,-43.446,4.319,17.387
426,1436166033584,-43.446,4.319,17.387
427,1436166033585,-43.446,4.319,17.387
428,1436166033586,-43.446,4.319,17.387
429,1436166033587,-43.446,4.319,17.387
430,1436166033636,-43.446,4.319,17.387
431,1436166033637,-43.446,4.319,17.387
432,1436166033638,-43.446,4.319,17.387
433,1436166033652,-43.446,4.319,17.387
434,1436166033672,-43.446,4.319,17.387
435,1436166033692,-43.446,4.319,17.387
436,1436166033712,-43.446,4.319,17.387
437,1436166033732,-43.446,4.319,17.387
438,1436166033752,-43.446,4.319,17.387
439,1436166033774,-43.446,4.319,17.387
440,1436166033792,-43.446,4.319,17.718
441,1436166033812,-43.446,4.319,17.718
442,1436166033832,-43.446,4.319,17.718
443,1436166033856,-43.446,4.319,17.718
444,1436166033872,-43.446,4.319,17.718
445,1436166033897,-43.446,4.319,17.718
446,1436166033918,-43.446,4.319,17.718
447,1436166033935,-43.446,4.319,17.718
448,1436166033955,-43.446,4.319,17.718
449,1436166033975,-43.446,4.319,17.718
450,1436166033995,-43.446,4.319,17.718
451,1436166034015,-43.446,4.319,17.718
452,1436166034036,-43.446,4.319,17.718
453,1436166034052,-43.446,4.319,17.718
454,1436166034076,-43.446,4.319,17.718
455,1436166034094,-43.446,4.319,17.718
456,1436166034113,-43.446,4.319,17.718
457,1436166034144,-43.446,4.319,17.718
458,1436166034159,-43.446,4.319,17.718
459,1436166034175,-43.446,4.319,17.718
460,1436166034192,-43.446,4.319,17.718
461,1436166034213,-43.446,4.319,17.718
462,1436166034233,-43.446,4.319,17.718
463,1436166034254,-43.446,4.319,17.718
464,1436166034273,-43.446,4.319,18.025
465,1436166034296,-43.446,4.319,18.025
466,1436166034316,-43.446,4.319,18.025
467,1436166034333,-43.446,4.319,18.025
468,1436166034352,-43.446,4.319,18.025
469,1436166034375,-43.446,4.319,18.347
470,1436166034396,-43.446,4.319,18.347
471,1436166034416,-43.446,4.319,18.347
472,1436166034436,-43.446,4.319,18.347
473,1436166034452,-43.446,4.319,18.666
474,1436166034476,-43.446,4.319,18.666
475,1436166034493,-43.083,4.319,18.666
476,1436166034514,-43.083,4.319,18.666
477,1436166034536,-43.083,4.319,18.977
478,1436166034553,-43.083,4.319,18.977
479,1436166034575,-43.083,4.319,18.977
480,1436166034596,-43.083,4.319,19.288
481,1436166034617,-43.083,4.319,19.288
482,1436166034638,-43.083,4.319,19.288
483,1436166034659,-42.744,4.319,19.288
484,1436166034676,-42.744,4.319,19.288
485,1436166034693,-42.744,4.319,19.288
486,1436166034712,-42.744,4.319,19.288
487,1436166034736,-42.744,4.319,19.288
488,1436166034755,-42.744,4.319,19.288
489,1436166034778,-42.744,4.319,19.288
490,1436166034840,-42.744,4.319,19.288
491,1436166034841,-42.744,4.319,19.288
492,1436166034842,-42.744,4.319,19.288
493,1436166034853,-42.744,4.624,19.288
494,1436166034881,-42.744,4.624,19.288
495,1436166034894,-42.744,4.624,19.288
496,1436166034916,-42.744,4.624,19.288
497,1436166034935,-42.744,4.624,19.288
498,1436166034953,-42.744,4.624,19.288
499,1436166034975,-42.744,4.624,18.981
500,1436166034993,-42.744,4.94,18.981
501,1436166035015,-42.744,4.94,18.981
502,1436166035033,-42.744,4.94,18.981
503,1436166035056,-42.744,4.94,18.981
504,1436166035076,-42.744,4.94,18.981
505,1436166035094,-42.744,4.94,18.673
506,1436166035116,-42.744,5.261,18.673
507,1436166035136,-42.744,5.261,18.673
508,1436166035156,-42.744,5.261,18.673
509,1436166035177,-42.744,5.261,18.673
510,1436166035197,-42.744,5.261,18.673
511,1436166035216,-42.744,5.261,18.673
512,1436166035235,-42.744,5.596,18.316
513,1436166035257,-42.744,5.596,18.316
514,1436166035275,-42.744,5.596,18.316
515,1436166035295,-42.744,5.596,18.316
516,1436166035315,-42.744,5.596,18.316
