id,attr_time,attr_db
1,1436894935130,24.6219814192411
2,1436894935868,13.6404760876719
3,1436894936604,14.7892246278698
4,1436894937341,12.7066752075535
5,1436894938157,21.9752309094881
6,1436894938900,24.3074139702201
7,1436894939634,23.0693946404114
8,1436894940360,24.4147764519259
9,1436894941074,38.3707858352096
10,1436894941809,28.1169924853183
11,1436894942512,21.2492815717871
12,1436894943258,45.9521216625018
13,1436894943980,49.470923629006
14,1436894944769,52.4890651605941
15,1436894945613,49.0626056673788
16,1436894946229,55.7226438148745
17,1436894946927,52.4044443251613
18,1436894947673,45.93814408498
19,1436894948378,11.6115939326287
20,1436894949046,36.9248568310638
21,1436894949778,18.4504931119834
22,1436894950527,58.3541279349811
23,1436894951235,52.9480647518608
24,1436894951920,48.1611016303328
25,1436894952658,36.2053852558565
26,1436894953406,45.8945533900742
27,1436894954143,23.5219067434021
28,1436894954921,38.2770552608869
29,1436894955673,42.6569555919658
30,1436894956403,16.566158137881
31,1436894957129,50.7221219203572
32,1436894957858,45.5518432676601
33,1436894958581,40.7819636236382
34,1436894959323,34.3508306339162
35,1436894960121,59.8604307635996
36,1436894960878,43.2977584962474
37,1436894961579,42.08620325537
38,1436894962221,41.390650238187
39,1436894962931,49.1014357677345
40,1436894963719,47.3482581367204
41,1436894964447,45.445042983652
42,1436894965175,41.5279914209283
43,1436894965916,44.3996772188929
44,1436894966645,46.8945746979001
45,1436894967373,45.2359391510831
46,1436894968193,20.3327474449055
47,1436894968913,49.9984544783054
48,1436894969704,26.9583484167867
49,1436894970424,39.6691287295935
50,1436894971149,43.489805670349
51,1436894971802,39.6688387360398
52,1436894972509,53.7469429640767
53,1436894973249,33.773374490737
54,1436894973987,33.7842661287883
55,1436894974766,40.5950693656862
56,1436894975498,52.105707299014
57,1436894976300,53.548628634705
58,1436894976953,41.3120553787304
59,1436894977675,36.8360259260103
60,1436894978407,39.5775297534299
61,1436894979171,26.8592336570141
62,1436894979917,23.2812444918616
63,1436894980658,50.6099772551639
64,1436894981396,51.0133924064384
65,1436894982127,43.3116896980877
66,1436894982871,43.9188136114798
67,1436894983547,50.3288924133166
68,1436894984271,40.2369247446183
69,1436894985024,57.4089304646382
70,1436894985760,23.6608779152044
71,1436894986512,51.8454914338355
72,1436894987229,40.3838388970491
73,1436894987925,34.7072206215388
74,1436894988655,48.5637409129432
75,1436894989364,39.1774437665438
76,1436894990031,29.3826120735551
77,1436894990792,53.7739656950644
78,1436894991532,42.2870169037859
79,1436894992241,27.2734703719491
80,1436894992973,48.019549198479
81,1436894993705,31.5383041699948
82,1436894994440,48.4850926381979
83,1436894995218,45.20901074578
84,1436894995947,45.1684147931027
85,1436894996684,43.1741536404493
86,1436894997414,54.8562042174716
87,1436894998175,43.5469019966587
88,1436894998922,44.4512056273942
89,1436894999675,45.4316533596311
90,1436895000422,44.2997546611732
91,1436895001176,49.701360173035
92,1436895001896,41.6804096904253
93,1436895002635,53.2317731408812
94,1436895003343,23.7624002261168
95,1436895004085,33.1471249733439
96,1436895004857,47.6891168169068
97,1436895005592,22.0906815846923
98,1436895006336,51.7436122014576
99,1436895007028,22.4290148853404
100,1436895007712,17.3352413911466
101,1436895008437,43.2429002788241
102,1436895009281,30.445572312837
103,1436895009946,39.2352530178065
104,1436895010671,39.1739144290827
105,1436895011386,36.9163422811308
106,1436895012075,22.207065177939
107,1436895012759,39.73427636105
108,1436895013495,44.9631982832912
109,1436895014221,28.3320661094712
110,1436895014932,44.8458780370002
111,1436895015709,21.2903769029359
112,1436895016453,25.3096898026421
113,1436895017162,37.9103846699147
114,1436895017918,27.940089120576
115,1436895018659,21.260971872138
116,1436895019359,20.5332470309601
117,1436895020029,16.3672057880461
118,1436895020797,29.4342597630495
119,1436895021490,17.5937287306771
120,1436895022225,17.3863041116654
121,1436895022967,12.8109748457582
122,1436895023571,18.2560522569628
123,1436895024236,37.4803568691435
124,1436895024941,34.7832785067333
125,1436895025679,16.740207026358
126,1436895026432,53.7839286518985
127,1436895027184,49.8415942566846
128,1436895027909,42.6206771140116
129,1436895028630,33.4800088693008
130,1436895029262,46.8096259210826
131,1436895029907,42.7340940887383
132,1436895030629,35.002070812771
133,1436895031373,40.0974070228749
134,1436895032107,30.6016945294106
135,1436895032826,16.8360278119288
136,1436895033545,26.7263960721197
137,1436895034187,38.0096508121754
138,1436895034883,43.8178709529981
139,1436895035597,49.1364874210929
140,1436895037389,21.5031168495126
141,1436895038116,26.4032082431969
142,1436895038864,51.8462123038681
143,1436895039597,42.292624362176
144,1436895040309,11.3604440019501
145,1436895041043,8.35091065908573
146,1436895041810,42.9873253896822
147,1436895042494,45.8569290815072
148,1436895043120,17.7764777485649
149,1436895043868,52.9201467030871
150,1436895044517,44.3988870490711
151,1436895045243,42.3537399663007
152,1436895045961,46.1068241409503
153,1436895046708,39.8498938888535
154,1436895047436,26.0153794426179
155,1436895048173,38.8813617348835
156,1436895048910,39.7334717807935
157,1436895049602,31.2403122200839
158,1436895050236,42.9046644701514
159,1436895050929,38.9931672267956
160,1436895051592,14.7513508514537
161,1436895053002,57.4755399484544
162,1436895053723,62.4078264190995
163,1436895054440,48.0899354406086
164,1436895055182,53.2305338979568
165,1436895055903,38.7726923333399
166,1436895056649,14.7345290568439
167,1436895057372,14.0109345913502
168,1436895058096,58.1337281203399
169,1436895058846,43.6566865442066
170,1436895059588,42.1814503403016
171,1436895060294,47.9446386210397
172,1436895061014,53.0308289699448
173,1436895061781,46.1906023824796
174,1436895062490,61.1326749880379
175,1436895063220,56.9391762060919
176,1436895063949,54.5664659748564
177,1436895064663,60.4151128514038
178,1436895065387,43.2097898339619
179,1436895066125,33.6302018855783
180,1436895066899,40.1489932394847
181,1436895067619,53.5087640111768
182,1436895068340,26.0026535914457
183,1436895069013,47.5217049918497
184,1436895069721,41.3030279979548
185,1436895070353,53.8209827419838
186,1436895071031,47.5053535316263
187,1436895071792,47.6716464390364
188,1436895072523,57.15948124773
189,1436895074739,44.1977036476595
190,1436895075481,47.1055136950494
191,1436895076213,43.1922290793457
192,1436895076946,31.3580736183495
193,1436895077669,40.7901646944269
194,1436895078390,42.3549251734
195,1436895079115,18.0564667788335
196,1436895079844,45.9881215833577
197,1436895080586,37.1072444003546
198,1436895081322,36.0450353042576
199,1436895082041,38.027941065575
200,1436895082820,44.2393463795669
201,1436895083530,16.1347672417612
202,1436895084245,49.229204389884
203,1436895084984,30.9450572890293
204,1436895085717,41.2985522795026
205,1436895086419,23.928410111101
206,1436895087808,13.5839810389847
207,1436895088473,32.941049615418
208,1436895089193,45.6662575003668
209,1436895089950,26.4211708956144
210,1436895090779,47.8970517149818
211,1436895091516,37.5653848319178
212,1436895092253,51.0850211638536
213,1436895092977,60.154654264995
214,1436895093746,57.6795193963031
215,1436895094480,33.3776538909312
216,1436895095187,54.8309129055061
217,1436895095931,43.0309490829362
218,1436895096671,31.9671914977624
219,1436895097396,12.7758009334453
220,1436895098135,15.48052227618
221,1436895098859,12.5965297846469
222,1436895099573,48.2087298028524
223,1436895100359,10.7509504585939
224,1436895101105,46.3438978447434
225,1436895101887,31.303236210764
226,1436895102619,57.8709212866195
227,1436895103321,49.884886651245
228,1436895103992,31.8916242549146
229,1436895104850,41.0832933469947
230,1436895105591,57.5973244115836
231,1436895106314,50.9794773774504
232,1436895107019,31.0175881926996
233,1436895107674,51.0172589748829
234,1436895108399,45.0729582111423
235,1436895109163,37.1792166637412
236,1436895109927,30.7803705190883
237,1436895110638,17.1407775335353
238,1436895111351,54.9282492563296
239,1436895112086,57.0948002658721
240,1436895112899,47.4175621817773
241,1436895113624,15.7500071924483
242,1436895114372,40.9881130636703
243,1436895115088,32.222055010436
244,1436895115793,58.9948343222322
245,1436895116541,45.0902744038802
246,1436895117280,27.881946949511
247,1436895118023,60.1860186043252
248,1436895118762,30.7168389083903
249,1436895119500,29.5927879800744
250,1436895120224,16.6940983981149
251,1436895120946,53.9759906056838
252,1436895121709,46.3833144752359
253,1436895122428,15.4549035993377
254,1436895123144,36.1270269811315
255,1436895123907,47.993576721817
256,1436895124652,36.8553062197651
257,1436895125368,43.7791918637873
258,1436895126139,57.0887897119505
259,1436895126883,55.4027589385945
260,1436895127623,31.3983864846388
261,1436895128341,35.6186651721713
262,1436895129086,33.7064510070989
263,1436895129875,20.8072522525895
264,1436895130601,27.2712185915242
265,1436895131224,31.6224998074009
266,1436895131918,40.4425800307632
267,1436895132660,35.4144389017199
268,1436895133386,48.0927878309635
269,1436895134138,60.2773026723928
270,1436895134834,44.0328602003169
271,1436895135481,37.9911936165574
272,1436895136202,40.9753183421825
273,1436895136947,31.8670950135299
274,1436895137605,20.7164353453273
275,1436895138328,33.7027510235269
276,1436895139118,44.7549287971821
277,1436895139872,29.1785911346915
278,1436895140604,51.5223521745617
279,1436895141330,56.6333544873352
280,1436895142082,37.9239627755321
281,1436895142829,36.6080603008014
282,1436895143566,21.6828451945965
283,1436895144300,47.3913417278268
284,1436895145010,50.8532488329029
285,1436895145782,38.2496012279336
286,1436895146449,13.8203727281901
287,1436895147173,45.4473150677836
288,1436895147912,48.8018390716306
289,1436895148656,37.3852842797178
290,1436895149431,33.7467393947263
291,1436895150183,11.0806941430875
292,1436895150876,23.0452433439395
293,1436895151543,37.4242084378268
294,1436895152290,44.7775628154842
295,1436895153008,43.7686533815667
296,1436895153731,64.9928635473224
297,1436895154445,58.9774932516776
298,1436895155220,57.2740989804504
299,1436895155952,42.8462748744398
300,1436895156694,57.9553427974686
301,1436895157415,43.6291924765929
302,1436895158145,35.9014153717442
303,1436895158949,47.2911813078832
304,1436895159702,48.0368735259036
305,1436895160562,44.648545570763
306,1436895161289,44.8384763765427
307,1436895162045,41.5863988882066
308,1436895162809,60.1358644822408
309,1436895163526,42.8481936102762
310,1436895164267,65.088892366556
311,1436895164999,44.2324890615054
312,1436895165753,70.8947030198586
313,1436895166485,62.1190861191859
314,1436895167222,63.538037098951
315,1436895167937,58.0283475589994
316,1436895168664,68.8985094362595
317,1436895169377,61.7139162528593
318,1436895170122,61.1480883890637
319,1436895170890,47.2527168885306
320,1436895171664,59.0126835006827
321,1436895172392,38.6658749195899
322,1436895173142,52.8203599274778
323,1436895173890,52.6958034350939
324,1436895174611,50.1447030396283
325,1436895175377,35.8558309726698
326,1436895176122,54.5297525038753
327,1436895176856,48.1040172257271
328,1436895177589,42.2440221907575
329,1436895178312,21.0149999568557
330,1436895179033,33.2972752536024
331,1436895179796,33.7138382438254
332,1436895180581,40.9253620412213
333,1436895181320,36.751394844488
334,1436895182062,40.2639850355577
335,1436895182802,37.6351326016491
336,1436895183534,45.9372681682841
337,1436895184259,45.8974854381284
338,1436895184987,14.7746354161675
339,1436895185746,54.239569531123
340,1436895186502,56.0225027672817
341,1436895187201,30.1225286020536
342,1436895187927,36.7943133390454
343,1436895188649,47.7305979877038
344,1436895189379,56.6055868637318
345,1436895190120,40.5923063832463
346,1436895190816,43.1130541641879
347,1436895191404,48.597972985488
348,1436895192130,56.9039213028473
349,1436895192891,47.2410036948854
350,1436895193624,51.341320742317
351,1436895194359,56.3455537562225
352,1436895195084,16.3133067881382
353,1436895195854,49.2702801508492
354,1436895196617,59.7119383647945
355,1436895197354,39.8503114299651
356,1436895198119,46.4113339045411
357,1436895198854,56.9912744242408
358,1436895199588,23.7888242051603
359,1436895200277,52.9934057937087
360,1436895201012,36.6518498356849
361,1436895201775,23.4072802219558
362,1436895202503,46.1621694014444
363,1436895203238,45.9672639002986
364,1436895203964,42.9440911483819
365,1436895204750,36.8233668771783
366,1436895205486,23.1928310508367
367,1436895206267,31.9058406083067
368,1436895207007,18.8690663297199
369,1436895207770,32.4262176718656
370,1436895208488,27.1011531434415
371,1436895209282,52.4352422006186
372,1436895209997,42.9542592589297
373,1436895210736,32.9502789357678
374,1436895211420,60.5348726592944
375,1436895212117,22.1693438053003
376,1436895212871,48.725124480094
377,1436895213614,53.4735582515908
378,1436895214341,28.0591219786825
379,1436895215116,55.4416088738152
380,1436895215864,41.6452081376768
381,1436895216597,37.5879745637078
382,1436895217335,30.8368299985453
383,1436895218092,24.1633062415621
384,1436895218852,71.0668187538538
385,1436895219595,43.1063510322921
386,1436895220332,25.3570516712039
387,1436895221126,35.4535846910346
388,1436895221893,62.0092256171622
389,1436895222591,56.4988974082366
390,1436895223267,60.4899423695869
391,1436895223988,47.9445212459072
392,1436895224789,50.8552610610525
393,1436895225517,37.2913732899909
394,1436895226232,30.6152971372488
395,1436895226998,52.6506079865348
396,1436895227767,27.5086551290138
397,1436895228506,24.8267908596888
398,1436895229263,26.2845276091818
399,1436895229980,46.6017275802012
400,1436895230732,48.2910394179636
401,1436895231413,28.7299283795751
402,1436895232106,52.9843830234541
403,1436895232884,59.7457642612889
404,1436895233651,36.2675821623877
405,1436895234390,62.7336240353936
406,1436895235129,28.2469650205512
407,1436895235883,41.5090159463091
408,1436895236640,25.9644048586694
409,1436895237381,55.8168820385307
410,1436895238116,58.8430328392884
411,1436895238870,51.270579819857
412,1436895239595,20.2403119221827
413,1436895241551,62.2021932796998
414,1436895242268,20.680611535346
415,1436895243019,19.3363425372223
416,1436895243790,37.236217922727
417,1436895244468,41.0772479692697
418,1436895245199,18.6512970602331
419,1436895245927,19.4696156775936
420,1436895246667,17.975766983423
421,1436895247403,27.4256736897681
422,1436895248138,24.5745455341691
423,1436895248887,53.5248085599116
424,1436895249634,49.4884616713577
425,1436895250361,51.6708338908069
426,1436895251072,47.2940845223829
427,1436895251713,60.3009095695237
428,1436895252403,69.6440944037546
429,1436895253141,56.4794945976018
430,1436895253875,41.0302599046988
431,1436895254600,29.535633536736
432,1436895255337,30.2320641360901
433,1436895255993,40.5796803203557
434,1436895256759,46.1041454363207
435,1436895257498,28.5926914050616
436,1436895258223,26.2674208042264
437,1436895258938,28.9292568103496
438,1436895259635,27.4833557059349
439,1436895261147,27.4636873259168
440,1436895261872,33.472489188102
441,1436895262601,31.2276705655674
442,1436895263348,35.1225902936458
443,1436895264034,31.5395326371468
444,1436895264681,45.2720750442476
445,1436895265387,31.7279695722019
446,1436895266188,35.6157379378292
447,1436895266872,55.1002374355453
448,1436895267566,35.5617842792814
449,1436895268309,38.5359773397974
450,1436895269044,39.3115596311407
451,1436895269836,40.6572900570563
452,1436895270572,70.723756673891
453,1436895271336,57.7411608257515
454,1436895271948,46.0963167061651
455,1436895272627,30.848482745835
456,1436895273321,37.8316038779812
457,1436895274023,29.4374431392961
458,1436895274756,32.4150647381542
459,1436895275487,28.5286094773068
460,1436895276266,26.1336653057348
461,1436895276981,25.1246041740777
462,1436895277676,35.3733534171209
463,1436895278400,50.9021653771782
464,1436895279146,31.5542162181976
465,1436895279897,42.3058487479352
466,1436895280631,48.1765570337781
467,1436895281420,58.1469566152103
468,1436895282175,64.7833674009047
469,1436895282916,69.3317062774695
470,1436895283646,69.7906293574595
471,1436895284348,28.9563900637325
472,1436895284953,39.3046853846083
473,1436895285612,34.2526564132605
474,1436895286330,60.762165638679
475,1436895287084,29.0512344641244
476,1436895287835,29.860921704753
477,1436895288576,20.9533810436999
478,1436895289257,36.1960114273939
479,1436895290846,24.9057328083778
480,1436895291494,23.5616087774679
481,1436895292227,24.9947422429054
482,1436895292950,41.8136504058314
483,1436895293722,30.9165643895352
484,1436895294437,25.9441725369482
485,1436895295164,54.0233587670424
486,1436895295805,46.6665257616473
487,1436895296502,23.0791091167722
488,1436895297273,46.9077298039336
489,1436895297996,40.0369611034734
490,1436895298751,22.9705523272742
491,1436895299471,19.7769837657937
492,1436895300199,31.5225450224752
493,1436895300930,31.7684146190549
494,1436895301658,31.1945684491823
495,1436895302390,50.2691264033886
496,1436895303121,47.5174690254891
497,1436895303876,56.7324127889171
498,1436895304668,41.251579305434
499,1436895305430,36.6226177560747
500,1436895306174,51.4594790003796
501,1436895307824,58.947836094325
502,1436895308499,51.5633359439615
503,1436895309236,23.2021343741056
504,1436895309974,38.1011098125308
505,1436895310739,64.1493744108983
506,1436895311570,37.2809648403133
507,1436895312242,41.2468663805299
508,1436895312941,36.9384692829633
509,1436895313586,53.9711039213917
510,1436895314226,49.3492846694598
511,1436895314906,56.6034646258599
512,1436895315538,47.9573335902356
513,1436895316220,39.0016756802368
514,1436895316970,14.9814017700633
515,1436895317625,29.4845928508837
516,1436895318341,20.3597704152791
517,1436895319130,49.0516401756299
518,1436895320288,60.4436959689804
519,1436895320963,58.657167499608
520,1436895321673,44.4135605813046
521,1436895322335,63.4113601944749
522,1436895323054,50.1435112868024
523,1436895323814,50.2618446770337
524,1436895324534,52.0486921550324
525,1436895325266,46.3453994367788
526,1436895326000,62.2504490000416
527,1436895326742,44.4456113885472
528,1436895327486,50.1667326736021
529,1436895328186,41.6195017971027
530,1436895328913,24.3132423373607
531,1436895329651,40.9970514883803
532,1436895330420,36.4659499124213
533,1436895331162,46.6087814056905
534,1436895331897,47.3016179904029
535,1436895332564,44.6270725465399
536,1436895333224,32.5426853454087
537,1436895333944,41.799267815772
538,1436895334680,39.8595109788724
539,1436895335392,44.4997654993979
540,1436895336126,37.4750245537192
541,1436895336820,11.4307262395782
542,1436895337487,29.8688637915437
543,1436895338212,41.9852675681566
544,1436895338863,21.6110098437961
545,1436895339665,33.8568592438771
546,1436895340385,29.2560903067875
547,1436895341107,17.7647486813685
548,1436895341926,12.4454615159817
549,1436895342619,11.8899875474393
550,1436895343379,24.2352469454392
551,1436895344105,23.1443594706108
552,1436895344832,40.8576780883239
553,1436895345647,19.753381384722
554,1436895346369,26.0247541444727
555,1436895347041,23.0273771586606
556,1436895347636,22.7873511501101
557,1436895348322,21.2722142376943
558,1436895349013,18.183292689367
559,1436895349791,19.6165291114356
560,1436895350531,15.9767004150945
561,1436895351271,20.6991600235665
562,1436895352009,11.8209618488344
563,1436895352777,23.0146937214843
564,1436895353457,15.4276573981037
565,1436895354183,12.9284857502245
566,1436895354934,9.96861037095881
567,1436895355705,15.9631453070966
568,1436895356425,21.9009174571064
569,1436895357143,20.5799393470969
570,1436895357877,13.4772914001564
571,1436895358597,14.434431186888
572,1436895359303,26.0518913783916
573,1436895360038,33.3847178925905
574,1436895360844,45.7555033995271
575,1436895361565,18.5221635484374
