id,attr_time,attr_db
1,1436894935111,8.96758256335503
2,1436894935792,12.3822941726986
3,1436894936529,13.6806117955819
4,1436894937266,12.0037737413846
5,1436894937995,12.6418376653316
6,1436894938766,10.2399736625481
7,1436894939495,9.97690295353741
8,1436894940249,8.53060660828278
9,1436894940966,19.2664647138443
10,1436894941655,44.6874812713894
11,1436894942273,22.7235037591311
12,1436894943016,30.8309464617361
13,1436894943758,20.903997462367
14,1436894944491,42.2867368630046
15,1436894945213,35.7371639643397
16,1436894945979,33.6614279295757
17,1436894946767,48.7106950690079
18,1436894947490,36.8404477535555
19,1436894948216,46.4188030788429
20,1436894948978,37.753060201176
21,1436894949732,48.3311456110773
22,1436894950453,9.85833270383011
23,1436894951178,28.9319058301706
24,1436894951885,22.8360981839722
25,1436894952493,44.175538981877
26,1436894953137,48.3266496169352
27,1436894953833,42.2601901605036
28,1436894954555,35.679869240607
29,1436894955292,37.5295876945735
30,1436894956024,14.2051935020824
31,1436894956783,40.3624476802285
32,1436894957479,26.3455966021813
33,1436894958128,38.1944239881731
34,1436894958823,49.436969461815
35,1436894959552,28.2035097478935
36,1436894960274,26.5977424394318
37,1436894961000,37.676523145124
38,1436894961741,45.8948672243025
39,1436894962493,49.9823684191586
40,1436894963125,41.6885402801712
41,1436894963827,29.3579427128767
42,1436894964575,35.5082990917792
43,1436894965280,39.6102645933967
44,1436894966040,41.3724168725483
45,1436894966798,39.112585429381
46,1436894967539,20.4521359504502
47,1436894968251,41.9636833639087
48,1436894968976,39.2978390063991
49,1436894969732,37.9466237760797
50,1436894970455,19.8375479421618
51,1436894971175,33.4167407333347
52,1436894971916,31.1388771917337
53,1436894972688,54.6966085398693
54,1436894973465,36.2251014172943
55,1436894974187,46.3219174377696
56,1436894974905,49.7977097094378
57,1436894975581,41.1320688852599
58,1436894976300,40.825922427524
59,1436894977047,17.2588805823379
60,1436894977877,47.9876485098034
61,1436894978614,35.2276385883279
62,1436894979347,14.3106468071038
63,1436894980078,13.6712771470337
64,1436894980824,25.6609212881929
65,1436894981504,24.5297429437854
66,1436894982245,26.9655952332961
67,1436894983040,41.7435827994609
68,1436894983741,50.1339382009916
69,1436894984409,22.1044130694993
70,1436894985095,34.4237217896236
71,1436894985755,41.9494795877062
72,1436894986498,43.3867934269091
73,1436894987234,48.0342092521716
74,1436894987973,38.4408889317869
75,1436894988747,17.1279694814705
76,1436894989492,13.1919036860033
77,1436894990195,39.8453118778456
78,1436894990915,42.5800078645631
79,1436894991606,47.9635119150449
80,1436894992185,40.3960795504824
81,1436894992864,40.5420959919635
82,1436894993512,43.6411438932791
83,1436894994247,12.2135101753892
84,1436894994988,45.7360240789512
85,1436894995712,16.0598916489124
86,1436894996414,30.4954637447862
87,1436894997091,37.2380047128515
88,1436894997869,35.6102858540926
89,1436894998711,41.4165743557935
90,1436894999443,31.8090282793031
91,1436895000177,28.4114535926197
92,1436895000933,40.076389924444
93,1436895001705,28.4773179085474
94,1436895002425,37.4468690835649
95,1436895003126,41.7410487535967
96,1436895003856,36.567922395179
97,1436895004627,37.2429312622142
98,1436895005364,18.3256654989647
99,1436895006087,31.1792289392057
100,1436895006775,43.4816217190823
101,1436895007437,17.7259782724613
102,1436895008133,55.6547852236389
103,1436895008876,12.9973172557408
104,1436895009614,13.2297374477648
105,1436895010352,14.1128606103125
106,1436895011088,47.1037553176601
107,1436895011843,38.2158894446316
108,1436895012579,30.6192451485742
109,1436895013367,38.504716520022
110,1436895013966,21.4313962303357
111,1436895014675,18.401724545945
112,1436895015414,41.7461906255391
113,1436895016133,19.2520671845419
114,1436895016874,42.0409809691407
115,1436895017608,22.7877774254015
116,1436895018336,16.1388076381787
117,1436895019072,35.8067036025801
118,1436895019824,24.1905595135561
119,1436895020545,27.4984617510356
120,1436895021291,16.6533610651903
121,1436895022033,13.5504932302244
122,1436895022773,12.8627040059216
123,1436895023585,17.3460559584567
124,1436895024284,44.4189874044121
125,1436895024987,14.7792100436787
126,1436895025732,17.0657918730891
127,1436895026441,19.7700266453405
128,1436895027159,14.3981248138061
129,1436895027902,19.8119391157769
130,1436895028733,53.2387655559712
131,1436895029458,46.3851473936001
132,1436895030196,55.8273241963112
133,1436895030914,38.6650859604897
134,1436895031652,42.5275685013602
135,1436895032375,37.5254843259291
136,1436895033119,37.4520278262766
137,1436895033929,25.3310891076279
138,1436895034646,12.0359215874195
139,1436895035304,21.7421692627527
140,1436895036077,34.5299680096929
141,1436895036837,35.721980301649
142,1436895037567,41.4921766352736
143,1436895038322,26.2194219400104
144,1436895039011,39.8360533671981
145,1436895039745,16.4351759173431
146,1436895040471,50.7945639351623
147,1436895041186,31.3791714681748
148,1436895041919,21.2947082788151
149,1436895042662,31.218199535286
150,1436895043416,33.884538000504
151,1436895044132,33.2548066938377
152,1436895044849,43.6894376314435
153,1436895045585,40.7756669545512
154,1436895046267,47.9026210185621
155,1436895047052,41.5100084797397
156,1436895047800,56.3418037250606
157,1436895048562,61.5796811736214
158,1436895049286,58.7592973813739
159,1436895050021,62.4329950875387
160,1436895050832,40.118699847482
161,1436895051557,16.7745912197435
162,1436895052298,18.3061304300782
163,1436895053034,16.6889632502022
164,1436895053782,14.7369359760873
165,1436895054485,9.7241682882269
166,1436895055218,40.0597507637694
167,1436895055940,42.2356273812466
168,1436895056605,51.7904732234847
169,1436895057313,29.2481214679573
170,1436895058030,13.8272991800854
171,1436895058713,10.1920647560731
172,1436895059449,16.4128292897732
173,1436895060208,54.9827156551101
174,1436895060942,30.2658358537663
175,1436895061715,40.1908553115556
176,1436895062438,49.0480011242798
177,1436895063181,43.0712850881411
178,1436895063965,40.1377806224743
179,1436895064692,48.5413706986239
180,1436895065361,51.929648598699
181,1436895066107,48.9184372851382
182,1436895066856,44.3698464900246
183,1436895067498,40.513005016786
184,1436895068180,21.1344413353664
185,1436895068944,54.0878171866643
186,1436895069674,43.8584286892748
187,1436895070330,42.2887711832361
188,1436895071050,49.9465081932078
189,1436895071761,44.0250265323955
190,1436895072491,31.5363699455474
191,1436895073375,30.2217656711563
192,1436895074068,42.9719545715816
193,1436895074659,45.0242798929764
194,1436895075360,35.8518032485144
195,1436895076086,15.8183636564006
196,1436895076752,16.7760876080785
197,1436895078100,41.9600112407174
198,1436895078817,22.7546156558111
199,1436895079570,42.5328486827007
200,1436895080303,33.8073513081326
201,1436895081032,16.885145683927
202,1436895081806,48.5712395074576
203,1436895082542,24.0713773600258
204,1436895083268,27.747220176583
205,1436895083998,30.7542633874705
206,1436895084785,39.1765454165558
207,1436895085501,19.5794335108956
208,1436895086234,45.4876026052993
209,1436895086966,54.0701538523111
210,1436895087743,15.6986393999404
211,1436895088447,31.3505821839906
212,1436895089253,22.5401256619646
213,1436895089977,31.0390276491814
214,1436895091931,41.5028092613573
215,1436895092558,23.3010145999559
216,1436895093207,48.4573650290566
217,1436895093995,62.2005846106325
218,1436895094721,46.4727473472586
219,1436895095458,48.3773080543416
220,1436895096174,35.2867769281174
221,1436895096850,25.3982142954039
222,1436895097595,36.5862905184276
223,1436895098324,31.8301146417836
224,1436895099016,30.3006387252218
225,1436895099689,23.8539714089499
226,1436895100415,12.0489622305372
227,1436895101159,49.7626995226468
228,1436895101885,60.7834366329176
229,1436895102630,57.0379848535379
230,1436895103353,51.2008556017092
231,1436895104027,22.266838712832
232,1436895104672,40.7198583099434
233,1436895105380,20.8765065489413
234,1436895106132,48.445380535759
235,1436895106853,30.8096979043775
236,1436895107598,52.8960808535559
237,1436895108350,53.6819853666711
238,1436895109045,12.2508557723773
239,1436895109723,34.0596674727567
240,1436895110448,33.0931205626262
241,1436895111170,42.0210509305798
242,1436895111879,31.6055336229382
243,1436895112613,10.0980179761713
244,1436895113334,41.5901607243686
245,1436895115493,19.6134064545853
246,1436895116148,34.7327897866152
247,1436895116884,39.5926256633358
248,1436895117640,35.9406550463939
249,1436895118393,34.3885124302004
250,1436895119189,27.2187700982902
251,1436895119877,49.829371691801
252,1436895120603,35.1327578103321
253,1436895121370,27.1285362469387
254,1436895122106,14.1622566369454
255,1436895122846,38.4565599323755
256,1436895123565,50.0707640479778
257,1436895124289,11.0136537881673
258,1436895124984,39.2018663962325
259,1436895125672,34.0147181799389
260,1436895126360,43.0822635505466
261,1436895128084,46.3612679062603
262,1436895128758,59.6173373842857
263,1436895129490,31.9359293058241
264,1436895130206,47.1012304360043
265,1436895130948,34.4636242483633
266,1436895131704,16.6785667630437
267,1436895132440,34.1244514740069
268,1436895133166,32.4106092337598
269,1436895133885,42.4785238180004
270,1436895134636,54.8903962655437
271,1436895135248,41.0554816414363
272,1436895135864,34.7274843380764
273,1436895136501,38.2172919579232
274,1436895137187,57.1069093317004
275,1436895137936,41.5197922868352
276,1436895138710,45.7791064956695
277,1436895139432,14.3203176226565
278,1436895140118,41.9206521162901
279,1436895140818,45.4489203423764
280,1436895141544,28.7347891462434
281,1436895142270,46.506448943522
282,1436895143013,26.9168156150907
283,1436895143750,47.1310112551555
284,1436895144482,59.3803082697583
285,1436895145216,33.0005536337001
286,1436895145944,8.99631768871244
287,1436895146675,54.8251059364449
288,1436895147342,52.4330158326727
289,1436895148085,10.0502915073882
290,1436895148810,29.2182959523085
291,1436895149535,38.5166500914124
292,1436895150267,43.2113516476817
293,1436895150994,44.4804196360439
294,1436895151729,12.8208029111702
295,1436895152441,9.307756204626
296,1436895153210,15.078266183375
297,1436895153934,46.5850132731084
298,1436895154666,43.4662724846118
299,1436895155374,40.4644148275001
300,1436895156104,58.1598582249688
301,1436895156812,65.5207048763432
302,1436895157479,52.1251640416382
303,1436895158218,34.5187484487972
304,1436895158962,36.968787117387
305,1436895159723,41.4318640426393
306,1436895160462,39.0929800411355
307,1436895161193,32.5495161867613
308,1436895161939,38.1493212686365
309,1436895162700,12.1307879940756
310,1436895163425,41.1023581290244
311,1436895164147,36.9278296761885
312,1436895164942,40.746546542256
313,1436895165655,39.1175208650828
314,1436895166328,44.4103651607367
315,1436895167068,32.6389571944087
316,1436895167749,41.648408600254
317,1436895168409,43.7722658580836
318,1436895169105,44.7328119378274
319,1436895169828,35.2666256845911
320,1436895170567,30.9219978059863
321,1436895171292,38.4720235932264
322,1436895172037,47.0743443012319
323,1436895172809,40.2210702820266
324,1436895173608,33.7085230259873
325,1436895174280,15.553426043412
326,1436895175010,33.0111212341887
327,1436895175733,36.5687671948055
328,1436895176467,15.5624953922735
329,1436895177197,16.905252164046
330,1436895177955,41.4331966494426
331,1436895178750,34.9090648397639
332,1436895179376,43.6848939069692
333,1436895180069,31.9504624167123
334,1436895180806,15.4033824295704
335,1436895181557,16.5908794512926
336,1436895182279,34.8155917041919
337,1436895183040,26.1051943334833
338,1436895183870,19.0879289099128
339,1436895184621,30.4677252115819
340,1436895185361,39.8711312535264
341,1436895186043,13.6001849904799
342,1436895186705,11.842556920854
343,1436895187353,37.8772068000545
344,1436895188117,20.1229767509457
345,1436895188840,47.9481615145098
346,1436895189490,33.2034567699484
347,1436895190150,27.7285728978038
348,1436895190841,17.3318433622343
349,1436895191582,56.3969741261173
350,1436895192320,39.3891261250637
351,1436895193039,42.3351257217784
352,1436895193858,39.381289803804
353,1436895194595,45.2815858125179
354,1436895195403,50.5899658885287
355,1436895196064,45.5746509738895
356,1436895196740,13.4439916557209
357,1436895197472,29.4307141251373
358,1436895198193,20.2208693640598
359,1436895198894,32.2360902355008
360,1436895199542,35.0594225001449
361,1436895200235,43.5522041398481
362,1436895200951,31.5292592830152
363,1436895201728,50.5628176243598
364,1436895202452,15.6968784008251
365,1436895203242,35.7440464521249
366,1436895203955,44.2981313883813
367,1436895204746,17.6147338038578
368,1436895205482,27.8702127725103
369,1436895206205,23.2705079906436
370,1436895206962,23.1747460429958
371,1436895207704,19.145850883315
372,1436895208441,25.9594651119353
373,1436895209162,42.0193914452307
374,1436895209935,31.3841285413279
375,1436895210566,15.3476018767641
376,1436895211305,49.5139900428907
377,1436895212041,33.5360357288313
378,1436895212787,14.5742471122819
379,1436895213514,35.5073509663623
380,1436895214230,56.735007926033
381,1436895214943,42.9568837261111
382,1436895215693,39.8826755185176
383,1436895216364,42.1911314217368
384,1436895217096,58.6897316024943
385,1436895217833,37.6134171723355
386,1436895218536,30.4390888323569
387,1436895219188,36.1959639554476
388,1436895219895,33.1734880936784
389,1436895220609,27.7136692326587
390,1436895221301,28.6067468310944
391,1436895221992,26.1362629549917
392,1436895222742,29.3062856268127
393,1436895223429,64.0240348209514
394,1436895224148,50.7895407594096
395,1436895224910,59.9388516483794
396,1436895225700,56.8799250729986
397,1436895226427,34.7514848372498
398,1436895227168,44.7927273160409
399,1436895227917,45.4467526941592
400,1436895228649,46.0437363069548
401,1436895229373,29.1608998336073
402,1436895230113,30.0451929865463
403,1436895230850,29.9750243829156
404,1436895231578,61.1408101175742
405,1436895232236,44.6658222240467
406,1436895232983,32.1307271942177
407,1436895233744,34.0628839393491
408,1436895234425,60.1750132701302
409,1436895235149,48.6281144213469
410,1436895235872,36.0733199911712
411,1436895236600,44.1564349430125
412,1436895237338,41.1385387012876
413,1436895238071,29.5536792307769
414,1436895238801,28.1940348722962
415,1436895239565,34.794812257735
416,1436895240333,54.352707639397
417,1436895240990,56.1501214766128
418,1436895241634,25.0292902141719
419,1436895242367,40.6616718644249
420,1436895243102,38.3124585166424
421,1436895243841,40.9016239175719
422,1436895244561,42.7147503103478
423,1436895245262,22.1651606241044
424,1436895245999,24.9032714185129
425,1436895246727,26.3026988689587
426,1436895247476,23.4554626196017
427,1436895248202,22.9915745196954
428,1436895248993,35.8227356399054
429,1436895249725,31.6595156993439
430,1436895250456,42.3896179896541
431,1436895251183,42.835579099617
432,1436895251876,50.6206915816126
433,1436895252547,35.8276232348153
434,1436895253285,43.1047285595668
435,1436895254094,42.063434306698
436,1436895254819,38.6050164742859
437,1436895255542,53.5489778761529
438,1436895256256,34.9773800241463
439,1436895256943,39.9250262943195
440,1436895257710,41.8743640788476
441,1436895258504,41.6230620268725
442,1436895259237,39.3635650627561
443,1436895259982,38.2663876191587
444,1436895260718,36.951984022155
445,1436895261451,36.518422551466
446,1436895262177,37.2436670664901
447,1436895262888,35.6462728795091
448,1436895263635,35.8221907868676
449,1436895264368,36.4465919352161
450,1436895265101,35.5509907971559
451,1436895265822,40.3142293202919
452,1436895266553,36.2379354426932
453,1436895267288,37.3065543800776
454,1436895268048,44.1034475010205
455,1436895268802,41.3232930375446
456,1436895269504,38.5346778076476
457,1436895270227,45.4401094149263
458,1436895270967,36.4317554882755
459,1436895271700,39.8303908555177
460,1436895272426,37.9445831582768
461,1436895273107,42.6059560978345
462,1436895273768,38.6944166290238
463,1436895274513,38.4784213478042
464,1436895275224,37.3813511095492
465,1436895275958,34.6047362982322
466,1436895276724,34.7583981170716
467,1436895277475,33.8969725574096
468,1436895278209,33.2019789217623
469,1436895278926,32.8701943223917
470,1436895279660,33.9006910372439
471,1436895280398,37.4105178030855
472,1436895281058,40.3829505898892
473,1436895282434,36.3385365133711
474,1436895283111,45.7824595266335
475,1436895283846,50.2070443674318
476,1436895284502,55.5350125965182
477,1436895285205,42.7310833119936
478,1436895285929,57.2631093660322
479,1436895286690,44.0005748765226
480,1436895287425,41.6213588374361
481,1436895288168,40.9569388272926
482,1436895288902,35.3690063558767
483,1436895289553,36.0749370365139
484,1436895290293,32.2973553530466
485,1436895291022,35.8474668284124
486,1436895291787,30.9933899453089
487,1436895292520,33.0425542263916
488,1436895293309,30.654301744864
489,1436895294035,29.4386854583403
490,1436895294731,30.1761318099992
491,1436895295443,27.3210354231249
492,1436895296176,26.3764008583684
493,1436895296867,31.2980024379555
494,1436895297627,29.9527568585366
495,1436895298399,30.5721446261974
496,1436895300091,28.4127029840294
497,1436895300772,26.7228264301286
498,1436895301496,26.2385033686549
499,1436895302238,27.8214337891525
500,1436895302974,24.9197859955047
501,1436895303715,39.355834026849
502,1436895304458,31.466088541164
503,1436895305159,45.5922032022433
504,1436895305793,46.389738927684
505,1436895306514,35.5461006663867
506,1436895307255,19.4537966595102
507,1436895307941,40.2098250021685
508,1436895308673,36.1224058112021
509,1436895309343,25.7726045143404
510,1436895310068,33.4061370684515
511,1436895310809,37.9480007390366
512,1436895311546,27.1833591071084
513,1436895312196,54.1370043308373
514,1436895312941,62.2811791502536
515,1436895313684,51.4046325206874
516,1436895314471,52.906174107701
517,1436895315209,49.2228516165302
518,1436895315902,47.9031051510212
519,1436895316560,45.9801663905635
520,1436895317227,41.1010030332436
521,1436895317954,39.6252040592505
522,1436895318710,30.0080242241923
523,1436895319463,32.2857572479659
524,1436895320192,15.8996127589665
525,1436895320931,48.5116796858563
526,1436895321616,19.6029856010544
527,1436895322346,28.1690684429161
528,1436895323075,50.8734658827193
529,1436895323795,56.623235879387
530,1436895324550,44.5143144548807
531,1436895325281,43.3175360662057
532,1436895325982,58.5622667608795
533,1436895326652,57.2276870046552
534,1436895327372,55.744954674507
535,1436895328123,45.1626538584868
536,1436895328864,60.3612882825106
537,1436895329579,38.0202358210869
538,1436895331410,26.8018196641529
539,1436895332112,59.5067237989638
540,1436895332814,43.5968030763282
541,1436895333593,60.1705785065178
542,1436895334301,25.2080614664343
543,1436895334987,50.7603476189256
544,1436895335725,43.9060140371148
545,1436895336437,48.7998152973161
546,1436895337132,38.9135902068905
547,1436895337848,36.8298037472357
548,1436895338682,36.1729811495658
549,1436895339359,38.271286038871
550,1436895340114,38.0056127456777
551,1436895340856,12.095178528151
552,1436895341596,8.35337767765262
553,1436895342334,9.13559780119635
554,1436895343076,10.3929306016602
555,1436895343903,6.39870977358605
556,1436895344668,12.6085642716958
557,1436895345389,16.092380026582
558,1436895346114,38.9396998172147
559,1436895346808,40.6914125901373
560,1436895347913,15.3563952767582
561,1436895348739,36.5980299298251
562,1436895349438,24.4644222533434
563,1436895350176,14.0682182522604
564,1436895350954,13.7371004337261
565,1436895351540,11.7739517370723
566,1436895352227,32.1556708158934
567,1436895352953,13.2456667969095
568,1436895353765,11.2433567786956
569,1436895354493,10.459695289485
570,1436895355231,9.56249759332857
571,1436895355958,10.2047933470052
572,1436895356703,10.9149291738097
573,1436895357389,8.79441628058324
574,1436895358073,10.6034497678236
575,1436895358900,27.6016317155371
