id,attr_time,attr_db
1,1436894935458,7.87664272984274
2,1436894936185,11.140377908795
3,1436894936951,11.4153045369789
4,1436894937662,11.8582102045461
5,1436894938416,7.45251146054912
6,1436894939152,10.6052007787434
7,1436894939851,9.60947707764601
8,1436894940546,7.981111279919
9,1436894941267,8.45250428029055
10,1436894941993,16.772163712661
11,1436894942714,28.6995620877535
12,1436894943427,33.2660523865507
13,1436894944149,48.0515442265563
14,1436894944865,42.3684128532843
15,1436894945546,26.0512997448876
16,1436894946276,42.2183749410794
17,1436894947009,39.9992259024181
18,1436894947743,28.8047498228274
19,1436894948485,55.0927235578102
20,1436894949223,39.1838121270256
21,1436894950004,35.8931790082805
22,1436894950711,7.64508965579488
23,1436894951445,11.2577645154986
24,1436894952181,30.4108957249588
25,1436894952941,34.2316719784972
26,1436894953680,33.8075276620089
27,1436894954309,16.4883803168885
28,1436894954964,22.7159369650715
29,1436894955697,32.1419164764693
30,1436894956416,31.628093227255
31,1436894957134,30.744809474368
32,1436894957837,34.363172606446
33,1436894958574,8.65381799639428
34,1436894959282,40.9601683476531
35,1436894959944,43.0876936355584
36,1436894960650,33.8244923909322
37,1436894961361,24.7979748555782
38,1436894962076,31.1576867664808
39,1436894962803,31.709631935141
40,1436894963512,27.0243341902225
41,1436894964232,48.9182903151869
42,1436894964989,50.0942318738147
43,1436894965633,47.6282323449173
44,1436894966382,41.8306493161718
45,1436894967081,45.4188661120147
46,1436894967848,36.4537820389189
47,1436894968572,34.8507432815
48,1436894969308,38.6348461574505
49,1436894970039,34.5941051471969
50,1436894970769,42.0688401448639
51,1436894971475,40.2385816311845
52,1436894972175,37.1799104776041
53,1436894972859,43.6188425968804
54,1436894973561,15.2873970166158
55,1436894974165,37.4330903706982
56,1436894974831,50.2702312368778
57,1436894975456,24.2769514632031
58,1436894976144,28.4345779777518
59,1436894976812,37.7621065519783
60,1436894977501,35.9281425869281
61,1436894978250,46.9286784221646
62,1436894979003,40.7341126608448
63,1436894980955,7.8415835918787
64,1436894981656,9.59509181166053
65,1436894982390,39.5183316984039
66,1436894983128,40.8929017980748
67,1436894983853,35.4567127843791
68,1436894984569,14.4981449935899
69,1436894985278,32.3716488255089
70,1436894985954,45.074204468221
71,1436894986697,44.9667050099794
72,1436894987433,43.9321375398364
73,1436894988173,35.8200275388355
74,1436894988925,14.0054756023358
75,1436894989646,12.2231676913009
76,1436894990364,38.8410303794117
77,1436894991096,27.0602713999543
78,1436894991833,35.6844769593913
79,1436894992546,35.6327374663504
80,1436894993278,34.9358686946484
81,1436894994976,30.6081773590059
82,1436894995694,33.5947966958339
83,1436894996353,44.4345097092418
84,1436894997066,47.0422581191524
85,1436894997797,37.1387772494342
86,1436894998524,34.858501993577
87,1436894999278,13.0437658590197
88,1436895000027,39.3659536165836
89,1436895000736,19.5422110437931
90,1436895001483,62.3120486702344
91,1436895002191,33.0693147792805
92,1436895002926,15.4270145717435
93,1436895003650,44.7019310890989
94,1436895004402,19.1933695508947
95,1436895005078,39.0628951280489
96,1436895005748,42.8903271676399
97,1436895006477,37.5141133933979
98,1436895007146,31.3003568931832
99,1436895007868,11.8055603921083
100,1436895008583,37.2828128145512
101,1436895009344,12.2746213023805
102,1436895010069,8.44601977118385
103,1436895010825,14.1886596372568
104,1436895011525,10.2097045508448
105,1436895012270,15.5266292604256
106,1436895013022,16.6068758240763
107,1436895013755,22.9041589846057
108,1436895014459,16.2725316897732
109,1436895015082,9.81295340667636
110,1436895015801,23.5949717029319
111,1436895016472,15.5057215484357
112,1436895018080,36.235259259101
113,1436895018774,19.2468339373832
114,1436895019503,35.9100496936101
115,1436895020240,29.3867423873364
116,1436895020990,20.6411680596818
117,1436895021737,16.3866545219762
118,1436895022386,14.2110700566645
119,1436895023070,13.576607112982
120,1436895023813,16.3106833759283
121,1436895024523,33.3264841565128
122,1436895025252,11.4112136423264
123,1436895025992,9.89844352872487
124,1436895026723,36.4302548575657
125,1436895027453,14.3478288676998
126,1436895028111,17.8239243514834
127,1436895028808,33.5734799258769
128,1436895030642,32.1022842801022
129,1436895031339,37.1328016868074
130,1436895032067,33.0469673997844
131,1436895032811,17.8578240334156
132,1436895033554,26.5735085163514
133,1436895034280,16.7475744339243
134,1436895035084,12.2882747634486
135,1436895035808,10.5127930990874
136,1436895036525,36.0814215753031
137,1436895037234,36.0213742686921
138,1436895038300,32.7200658437425
139,1436895038919,45.1304594880636
140,1436895039582,14.2564337316887
141,1436895040310,38.1193294788282
142,1436895041029,40.4191790156781
143,1436895041731,32.7415974634408
144,1436895042409,9.73668748283901
145,1436895043143,7.28883640718076
146,1436895043888,42.109458030488
147,1436895044628,35.3394130309643
148,1436895045350,25.7803849552903
149,1436895046085,37.7693367834896
150,1436895046818,36.1742673074009
151,1436895047551,36.8534033137777
152,1436895048264,51.5496217842725
153,1436895048930,39.3261024899331
154,1436895049646,42.7674081889292
155,1436895050371,38.6425984735463
156,1436895051102,34.2087649190991
157,1436895051829,11.8882646154333
158,1436895052559,14.7444925473288
159,1436895053321,41.5361909663931
160,1436895054048,14.3697257779966
161,1436895054754,8.81933483352078
162,1436895055413,29.2687606318198
163,1436895056159,41.2917452700025
164,1436895056893,37.3991178995212
165,1436895057585,25.7385896700264
166,1436895058267,8.05540570555919
167,1436895058898,6.62026274058575
168,1436895059615,6.43365066533588
169,1436895060322,41.3529677265841
170,1436895061050,39.5215612071595
171,1436895061735,43.7667856481654
172,1436895062390,50.6378117672813
173,1436895063131,38.1630556732435
174,1436895063867,51.4472486738483
175,1436895064659,51.3224721140159
176,1436895065387,43.6692629954188
177,1436895066104,43.9005387834681
178,1436895066852,60.8019111862386
179,1436895067584,50.7019677946987
180,1436895068303,10.5176951122575
181,1436895068993,31.6205004501915
182,1436895069682,37.4606179439384
183,1436895070415,42.0758528642142
184,1436895071129,35.2558201896126
185,1436895071899,33.9898891865732
186,1436895072616,40.9762609463558
187,1436895073337,29.822966379557
188,1436895074069,45.1369193791213
189,1436895074820,38.9061492462938
190,1436895075409,24.2375095976678
191,1436895076087,13.7130921551748
192,1436895076822,34.6494053789909
193,1436895077536,42.6494017181634
194,1436895078239,41.3388776212008
195,1436895078954,34.3000980122502
196,1436895079666,49.1375144756981
197,1436895080401,17.5620044567863
198,1436895081114,16.7632468772707
199,1436895081838,42.2513434392009
200,1436895082575,31.1395138084157
201,1436895083344,36.0897455616975
202,1436895084076,40.7083148950107
203,1436895084806,48.2366177727773
204,1436895085518,15.1003447936027
205,1436895086220,35.2882452553355
206,1436895086923,29.7545186253894
207,1436895087628,46.314932115232
208,1436895088344,24.5058313220559
209,1436895089075,20.961916926184
210,1436895089798,31.9772974601046
211,1436895090480,20.8509422816513
212,1436895091129,14.35123393675
213,1436895091859,43.1107781626128
214,1436895092536,34.5449128125306
215,1436895093251,41.3283910954657
216,1436895093984,41.0466123984921
217,1436895094701,17.4284876550354
218,1436895095412,12.5981503705465
219,1436895096118,28.2984120957221
220,1436895096834,28.5788717769308
221,1436895097554,42.1967920857712
222,1436895098299,30.7221654063918
223,1436895099000,37.5210699212805
224,1436895099804,9.11955953974743
225,1436895100564,6.8949060159661
226,1436895101297,43.6122751727908
227,1436895102014,46.3992353285422
228,1436895102721,29.17452291229
229,1436895103441,42.4490597982208
230,1436895104176,13.653472105668
231,1436895104922,43.522857039439
232,1436895105542,38.9633100613833
233,1436895106278,38.007876790725
234,1436895106959,44.6443581456698
235,1436895107649,22.9864963899444
236,1436895108373,44.6750086993511
237,1436895109129,21.1387134906597
238,1436895109871,41.2054839447077
239,1436895110608,26.056253858345
240,1436895111290,39.7613838763241
241,1436895111953,12.1824755359658
242,1436895112684,8.98734428150873
243,1436895113408,23.5441692435282
244,1436895114148,50.2312905249661
245,1436895114907,20.1636049724212
246,1436895115637,33.8555647209141
247,1436895116358,35.0975926709394
248,1436895117100,39.2526057339897
249,1436895117764,40.484276606478
250,1436895118493,23.3012762934973
251,1436895119214,18.6380773685786
252,1436895119949,39.507818913564
253,1436895120673,40.4320581339484
254,1436895121377,12.0100038915867
255,1436895122094,38.821356636759
256,1436895122824,45.8091482760357
257,1436895123551,10.4080264464216
258,1436895124280,10.3133415382255
259,1436895125001,16.9194822101119
260,1436895125687,44.7880043907788
261,1436895126331,16.1499026847512
262,1436895127034,7.39581622233443
263,1436895127743,34.3242058691746
264,1436895128488,41.0397664195141
265,1436895129229,44.0172428484904
266,1436895129961,26.3667136313449
267,1436895130666,20.4643034678889
268,1436895131383,51.6880503850013
269,1436895132074,21.8966853558424
270,1436895132766,19.8816855369174
271,1436895133453,13.5399447182342
272,1436895134188,33.9839571527703
273,1436895134928,15.5721721688699
274,1436895135658,39.3534435016992
275,1436895136344,40.8183420704323
276,1436895137050,17.5900958893716
277,1436895137719,44.8648878043015
278,1436895138435,34.5829383124898
279,1436895139154,24.1165770504406
280,1436895139896,32.6508334193934
281,1436895140615,39.2421001090037
282,1436895141357,26.313405748683
283,1436895142098,9.47362796726168
284,1436895142793,26.455343788449
285,1436895143437,46.1927220086448
286,1436895144165,41.7953533087289
287,1436895144880,34.3227582615414
288,1436895145604,6.4875287534333
289,1436895146353,36.1002655571657
290,1436895147119,43.2638678409843
291,1436895147853,34.6340653156733
292,1436895148514,7.60797132595754
293,1436895149219,34.4839934214196
294,1436895149950,27.5051016886254
295,1436895150671,29.8752851474377
296,1436895151380,40.8203001980144
297,1436895152132,18.0177287042508
298,1436895152837,6.39005202092499
299,1436895153564,36.7950156030762
300,1436895154249,40.3771273762777
301,1436895154940,36.6668525584404
302,1436895155671,43.535523678456
303,1436895156373,56.1216094494011
304,1436895157076,47.1219810933164
305,1436895157813,41.7534266126019
306,1436895158550,56.9863696497932
307,1436895159232,43.4836166467872
308,1436895159912,42.5893155909269
309,1436895160635,35.7969499286912
310,1436895161354,24.9339838878836
311,1436895162075,36.0662550233324
312,1436895162820,12.8591576591792
313,1436895163547,30.4496732562765
314,1436895164283,23.7802012001482
315,1436895164944,56.1393020276839
316,1436895165655,25.9846227884301
317,1436895166400,56.8000370981065
318,1436895167114,23.50181786451
319,1436895167849,55.7310404099614
320,1436895168584,49.2793641518322
321,1436895169396,55.9416508742192
322,1436895170122,19.5871612630202
323,1436895170776,47.1696192404327
324,1436895171491,46.7946692134297
325,1436895172226,54.2489583732024
326,1436895172963,43.8465674889233
327,1436895173684,52.3668070281345
328,1436895174413,24.697191215545
329,1436895175195,40.1784681910954
330,1436895175831,39.757592010828
331,1436895176526,22.6730497321927
332,1436895177259,41.0303426973252
333,1436895177989,40.9929815059362
334,1436895178695,18.8224687312676
335,1436895179411,26.3791197437916
336,1436895180235,37.7338871884493
337,1436895180947,10.0198094153617
338,1436895181612,37.4312683697484
339,1436895182336,58.1278876390264
340,1436895183065,38.0403287420562
341,1436895183742,38.879101765151
342,1436895185137,26.8008150526918
343,1436895185787,40.593386984721
344,1436895186516,39.4853398263645
345,1436895187244,8.46014809484412
346,1436895188000,31.3968440638967
347,1436895188729,30.980742745921
348,1436895189452,32.2896756738724
349,1436895190200,43.2640480540836
350,1436895190976,7.36922466851991
351,1436895191666,29.754570802005
352,1436895192385,45.9661350786843
353,1436895193113,34.0795973807979
354,1436895193883,23.5313824685279
355,1436895194631,50.2878984498306
356,1436895195408,8.62203485592992
357,1436895196180,45.337458538806
358,1436895196795,25.3216705893508
359,1436895197519,8.86463404082633
360,1436895198250,38.8832967475338
361,1436895199034,26.740539476712
362,1436895199731,38.2417591817843
363,1436895200407,44.6700637610997
364,1436895201029,31.8559215390431
365,1436895201676,30.727747738517
366,1436895203088,30.2138369120789
367,1436895203782,44.4261395036954
368,1436895204588,48.7439955555172
369,1436895205308,29.7689584745609
370,1436895206027,30.3613347928368
371,1436895206699,11.0112747762755
372,1436895207397,9.6786175285622
373,1436895208150,16.4320596690366
374,1436895208894,28.3191523434931
375,1436895209624,9.36516549088023
376,1436895210364,34.7329569341468
377,1436895211069,49.5954233645383
378,1436895211776,36.3879368956575
379,1436895212446,30.6299825514476
380,1436895213165,49.8506753706219
381,1436895213964,13.6430990537464
382,1436895214705,56.8390708953851
383,1436895215445,52.252386789413
384,1436895216174,33.4844027799714
385,1436895216826,45.9503485764625
386,1436895217486,36.9382856520678
387,1436895218208,31.6837121783741
388,1436895218942,58.9076753681399
389,1436895219739,57.3189660424787
390,1436895220461,36.3695757098253
391,1436895221168,46.712222758564
392,1436895221901,40.5633163864479
393,1436895222630,21.7891709717248
394,1436895223347,49.121458285091
395,1436895224117,35.0494934571875
396,1436895224815,45.1752701086451
397,1436895225558,41.6120702647824
398,1436895226265,27.1738992841731
399,1436895227001,49.3129646584821
400,1436895227736,51.1674265438777
401,1436895228393,28.0995278951003
402,1436895229189,40.2429042289405
403,1436895229910,21.321688486536
404,1436895230649,21.7480445067701
405,1436895231370,22.7677054606137
406,1436895232067,40.8864803731265
407,1436895232761,43.1348071774922
408,1436895234325,25.4523548639299
409,1436895235047,44.6823995115529
410,1436895235786,33.8422845511216
411,1436895236503,47.3482400639055
412,1436895237229,29.6403731749318
413,1436895237947,37.3706310382368
414,1436895238681,20.8171981192586
415,1436895239408,44.1929309823512
416,1436895240169,46.9304452197912
417,1436895240921,44.0797172444149
418,1436895241655,18.2019646021371
419,1436895242363,31.327885768096
420,1436895243096,42.6003293247666
421,1436895243817,41.4177588788232
422,1436895244546,17.0428743626807
423,1436895245277,15.3339340357479
424,1436895246012,25.6428575740373
425,1436895246759,29.8604922008931
426,1436895247489,16.0163241690221
427,1436895248205,16.8894796899487
428,1436895248921,17.798464325298
429,1436895250675,35.3335686405651
430,1436895251385,39.4005612174476
431,1436895252099,58.7776609712054
432,1436895252821,28.9225903717674
433,1436895253536,41.7535337620826
434,1436895254285,47.6689353347794
435,1436895254994,53.4121698512897
436,1436895255646,58.3847961846601
437,1436895256334,46.8318346466664
438,1436895256944,29.1794234006342
439,1436895257654,38.6353588536499
440,1436895258336,37.6132511821362
441,1436895259010,41.1325290752898
442,1436895259729,37.1098165113363
443,1436895260405,38.2684140372658
444,1436895261124,31.3020903445955
445,1436895261894,29.6402366643939
446,1436895262612,27.4702370980208
447,1436895263318,28.0482312442378
448,1436895264060,32.1798110708883
449,1436895264716,30.6549693796724
450,1436895265457,34.8752057883471
451,1436895266182,31.8477636327629
452,1436895266959,29.94122409739
453,1436895267697,30.3820366723927
454,1436895268430,29.2473377526095
455,1436895269147,33.7880836289782
456,1436895269858,36.2642887412119
457,1436895270544,42.2780350759905
458,1436895271294,48.0105632578414
459,1436895272061,35.7138573895218
460,1436895272787,62.8024639388527
461,1436895273539,40.8931137561106
462,1436895274337,40.2071964955489
463,1436895275075,31.2747910817674
464,1436895275762,28.9529158818644
465,1436895276478,28.123484447503
466,1436895277174,30.669619016282
467,1436895277915,32.4404669198154
468,1436895278616,28.3054937475152
469,1436895279423,31.225721708256
470,1436895280161,38.6827285512744
471,1436895280890,29.1282283568044
472,1436895281587,34.1131558434591
473,1436895282315,44.3024698154809
474,1436895283059,37.301539709085
475,1436895283771,46.8525658983584
476,1436895284508,39.2238801425351
477,1436895285221,61.6940462168224
478,1436895285919,58.2813268231981
479,1436895286616,41.1729408236775
480,1436895287279,60.7573293104452
481,1436895287989,45.1056680235774
482,1436895288681,42.3349608768591
483,1436895289353,46.2436782373167
484,1436895290134,24.3907731019579
485,1436895290876,22.9507785691696
486,1436895291485,23.5331073985193
487,1436895292133,22.4866098059919
488,1436895292844,22.0797948300776
489,1436895293565,22.2441634632821
490,1436895294284,21.6753855983166
491,1436895295092,39.7409703170161
492,1436895295792,29.5504815316354
493,1436895296524,21.7927179331634
494,1436895297243,32.7432855081059
495,1436895297965,39.1034961344484
496,1436895298690,22.7730536037528
497,1436895299430,40.2238197459754
498,1436895300233,29.7879233767194
499,1436895300952,17.4557550517784
500,1436895301697,18.4306534602677
501,1436895302407,40.1899252057192
502,1436895303058,16.4926083250503
503,1436895303779,18.9696970089774
504,1436895304561,44.809422927122
505,1436895305292,34.2268544631017
506,1436895306038,47.8435918664357
507,1436895306724,24.7648530894139
508,1436895307399,19.6135839686142
509,1436895308114,32.7101604673669
510,1436895308844,35.1498556986654
511,1436895309634,16.6961011715143
512,1436895310362,26.5947959738825
513,1436895311078,44.3089088002718
514,1436895311791,12.7887810947223
515,1436895312484,46.0767052477875
516,1436895313154,63.5421158481925
517,1436895313867,53.7380057518765
518,1436895314686,35.5596148966149
519,1436895315405,17.1432458377885
520,1436895316103,42.8497858233024
521,1436895316807,43.9402024424534
522,1436895317484,34.9966096737049
523,1436895318173,29.4823350934282
524,1436895318925,30.6383886895234
525,1436895319681,12.6644798421261
526,1436895320458,9.18091606385249
527,1436895321152,53.1788691094147
528,1436895321875,38.5403194747269
529,1436895322600,58.5089717054444
530,1436895323324,52.2366411356121
531,1436895324064,58.5942988065384
532,1436895324781,52.3963552575883
533,1436895325511,43.9417091909739
534,1436895326231,55.6159081633526
535,1436895326989,45.6813710421511
536,1436895327666,37.4973414652593
537,1436895328402,49.3091842189919
538,1436895329178,42.1176299516332
539,1436895329911,41.8865067564645
540,1436895330638,40.9816927625827
541,1436895331391,43.0595435653386
542,1436895332114,44.2944415212143
543,1436895332838,47.7097765638762
544,1436895333560,26.4271869981984
545,1436895334224,12.5468186622569
546,1436895334868,38.6758843590012
547,1436895335566,41.8124795495123
548,1436895336293,46.3205675158846
549,1436895337013,7.86721110360652
550,1436895337713,42.2411676810903
551,1436895338413,32.3090341985039
552,1436895339231,10.0078738116697
553,1436895339902,20.6090925561933
554,1436895340639,23.810967070845
555,1436895341378,18.9697895644529
556,1436895342094,8.47439578347793
557,1436895342788,7.17163461124353
558,1436895343476,11.6124375914743
559,1436895344135,6.07223637122948
560,1436895344776,9.51140673935968
561,1436895345430,14.9258919608051
562,1436895346176,14.9887470471227
563,1436895346883,30.7859088935718
564,1436895347615,23.2550390934524
565,1436895348343,13.2660838726374
566,1436895349070,11.9390234974413
567,1436895349791,12.4114180400902
568,1436895350497,8.19668539404722
569,1436895351244,8.72629798507774
570,1436895352066,17.1885416088837
571,1436895352789,9.00775272590342
572,1436895353521,8.84401062875191
573,1436895354212,22.9012476826941
574,1436895354865,7.77180966076217
575,1436895355601,6.71305421559747
