id,attr_time,attr_light
1,1437147221404,11.0
2,1437147221425,11.0
3,1437147221443,11.0
4,1437147221461,11.0
5,1437147221483,11.0
6,1437147221505,11.0
7,1437147221524,11.0
8,1437147221564,11.0
9,1437147221565,11.0
10,1437147221583,11.0
11,1437147221604,11.0
12,1437147221624,11.0
13,1437147221644,11.0
14,1437147221664,11.0
15,1437147221683,11.0
16,1437147221716,11.0
17,1437147221782,11.0
18,1437147221783,11.0
19,1437147221784,11.0
20,1437147221785,11.0
21,1437147221804,11.0
22,1437147221825,11.0
23,1437147221842,11.0
24,1437147221863,11.0
25,1437147221884,11.0
26,1437147221903,11.0
27,1437147221925,11.0
28,1437147221944,10.0
29,1437147221965,10.0
30,1437147221985,10.0
31,1437147222005,10.0
32,1437147222025,10.0
33,1437147222046,10.0
34,1437147222065,10.0
35,1437147222086,10.0
36,1437147222105,10.0
37,1437147222125,10.0
38,1437147222144,10.0
39,1437147222163,10.0
40,1437147222183,10.0
41,1437147222204,10.0
42,1437147222226,10.0
43,1437147222246,10.0
44,1437147222268,10.0
45,1437147222285,10.0
46,1437147222316,10.0
47,1437147222327,10.0
48,1437147222345,10.0
49,1437147222365,10.0
50,1437147222386,10.0
51,1437147222404,10.0
52,1437147222436,10.0
53,1437147222488,10.0
54,1437147222489,10.0
55,1437147222490,10.0
56,1437147222509,10.0
57,1437147222523,10.0
58,1437147222543,10.0
59,1437147222564,10.0
60,1437147222583,10.0
61,1437147222603,10.0
62,1437147222630,10.0
63,1437147222649,10.0
64,1437147222663,10.0
65,1437147222687,10.0
66,1437147222704,10.0
67,1437147222724,10.0
68,1437147222744,10.0
69,1437147222764,10.0
70,1437147222785,10.0
71,1437147222806,10.0
72,1437147222826,10.0
73,1437147222846,10.0
74,1437147222866,10.0
75,1437147222886,10.0
76,1437147222905,10.0
77,1437147222924,10.0
78,1437147222944,10.0
79,1437147222963,10.0
80,1437147222984,10.0
81,1437147223005,10.0
82,1437147223029,10.0
83,1437147223050,10.0
84,1437147223067,10.0
85,1437147223086,10.0
86,1437147223105,10.0
87,1437147223124,10.0
88,1437147223145,10.0
89,1437147223232,10.0
90,1437147223233,10.0
91,1437147223234,10.0
92,1437147223235,10.0
93,1437147223246,10.0
94,1437147223265,10.0
95,1437147223304,10.0
96,1437147223305,10.0
97,1437147223326,10.0
98,1437147223345,10.0
99,1437147223367,10.0
100,1437147223386,10.0
101,1437147223406,10.0
102,1437147223425,10.0
103,1437147223446,10.0
104,1437147223464,10.0
105,1437147223484,10.0
106,1437147223506,10.0
107,1437147223526,10.0
108,1437147223546,10.0
109,1437147223566,10.0
110,1437147223587,11.0
111,1437147223606,11.0
112,1437147223625,11.0
113,1437147223644,11.0
114,1437147223664,11.0
115,1437147223686,11.0
116,1437147223706,11.0
117,1437147223726,11.0
118,1437147223747,11.0
119,1437147223768,11.0
120,1437147223788,11.0
121,1437147223809,13.0
122,1437147223829,13.0
123,1437147223848,14.0
124,1437147223868,14.0
125,1437147223886,14.0
126,1437147223906,14.0
127,1437147223925,15.0
128,1437147223999,14.0
129,1437147224014,14.0
130,1437147224015,14.0
131,1437147224016,14.0
132,1437147224025,15.0
133,1437147224045,15.0
134,1437147224066,14.0
135,1437147224085,14.0
136,1437147224110,15.0
137,1437147224126,15.0
138,1437147224145,15.0
139,1437147224170,15.0
140,1437147224185,15.0
141,1437147224205,15.0
142,1437147224228,15.0
143,1437147224248,15.0
144,1437147224271,15.0
145,1437147224287,15.0
146,1437147224309,15.0
147,1437147224327,15.0
148,1437147224349,15.0
149,1437147224368,14.0
150,1437147224405,15.0
151,1437147224406,15.0
152,1437147224451,16.0
153,1437147224452,16.0
154,1437147224465,17.0
155,1437147224485,17.0
156,1437147224505,17.0
157,1437147224621,17.0
158,1437147224622,18.0
159,1437147224623,18.0
160,1437147224624,17.0
161,1437147224625,16.0
162,1437147224633,16.0
163,1437147224694,17.0
164,1437147224695,17.0
165,1437147224696,17.0
166,1437147224740,17.0
167,1437147224749,16.0
168,1437147224750,16.0
169,1437147224779,13.0
170,1437147224784,13.0
171,1437147224805,13.0
172,1437147224825,14.0
173,1437147224849,14.0
174,1437147224866,14.0
175,1437147224885,14.0
176,1437147224904,14.0
177,1437147224924,14.0
178,1437147224945,15.0
179,1437147224968,15.0
180,1437147224989,15.0
181,1437147225044,18.0
182,1437147225045,18.0
183,1437147225046,18.0
184,1437147225064,18.0
185,1437147225084,17.0
186,1437147225104,17.0
187,1437147225124,17.0
188,1437147225144,17.0
189,1437147225165,17.0
190,1437147225184,17.0
191,1437147225207,16.0
192,1437147225226,14.0
193,1437147225247,14.0
194,1437147225266,13.0
195,1437147225285,13.0
196,1437147225304,13.0
197,1437147225330,13.0
198,1437147225362,14.0
199,1437147225366,14.0
200,1437147225385,16.0
201,1437147225406,16.0
202,1437147225425,16.0
203,1437147225445,16.0
204,1437147225465,16.0
205,1437147225485,17.0
206,1437147225506,17.0
207,1437147225529,18.0
208,1437147225549,18.0
209,1437147225569,17.0
210,1437147225587,17.0
211,1437147225606,17.0
212,1437147225625,17.0
213,1437147225645,17.0
214,1437147225667,17.0
215,1437147225688,17.0
216,1437147225712,16.0
217,1437147225729,16.0
218,1437147225748,14.0
219,1437147225766,14.0
220,1437147225786,12.0
221,1437147225807,12.0
222,1437147225832,13.0
223,1437147225850,14.0
224,1437147225870,14.0
225,1437147225890,16.0
226,1437147225907,16.0
227,1437147225934,16.0
228,1437147225950,16.0
229,1437147225967,16.0
230,1437147226068,16.0
231,1437147226069,17.0
232,1437147226070,17.0
233,1437147226071,16.0
234,1437147226072,15.0
235,1437147226090,15.0
236,1437147226109,16.0
237,1437147226126,16.0
238,1437147226146,16.0
239,1437147226166,16.0
240,1437147226200,15.0
241,1437147226208,15.0
242,1437147226227,13.0
243,1437147226247,13.0
244,1437147226267,13.0
245,1437147226288,13.0
246,1437147226309,13.0
247,1437147226328,14.0
248,1437147226348,14.0
249,1437147226368,16.0
250,1437147226388,16.0
251,1437147226407,16.0
252,1437147226427,16.0
253,1437147226448,16.0
254,1437147226470,16.0
255,1437147226488,18.0
256,1437147226507,17.0
257,1437147226527,17.0
258,1437147226547,16.0
259,1437147226566,16.0
260,1437147226593,16.0
261,1437147226607,16.0
262,1437147226627,16.0
263,1437147226647,16.0
264,1437147226667,15.0
265,1437147226686,15.0
266,1437147226706,14.0
267,1437147226736,13.0
268,1437147226749,13.0
269,1437147226766,14.0
270,1437147226794,14.0
271,1437147226812,15.0
272,1437147226831,15.0
273,1437147226847,16.0
274,1437147226866,16.0
275,1437147226886,15.0
276,1437147226906,15.0
277,1437147226926,17.0
278,1437147226946,18.0
279,1437147226966,18.0
280,1437147226986,16.0
281,1437147227006,16.0
282,1437147227026,15.0
283,1437147227046,15.0
284,1437147227066,16.0
285,1437147227086,16.0
286,1437147227106,15.0
287,1437147227126,15.0
288,1437147227146,15.0
289,1437147227168,14.0
290,1437147227190,14.0
291,1437147227210,13.0
292,1437147227228,13.0
293,1437147227247,14.0
294,1437147227269,14.0
295,1437147227287,14.0
296,1437147227312,14.0
297,1437147227334,15.0
298,1437147227351,15.0
299,1437147227369,15.0
300,1437147227390,15.0
301,1437147227440,15.0
302,1437147227441,16.0
303,1437147227448,16.0
304,1437147227467,19.0
305,1437147227494,19.0
306,1437147227507,17.0
307,1437147227529,17.0
308,1437147227550,16.0
309,1437147227568,17.0
310,1437147227587,17.0
311,1437147227608,17.0
312,1437147227627,17.0
313,1437147227648,17.0
314,1437147227669,17.0
315,1437147227688,16.0
316,1437147227710,16.0
317,1437147227729,15.0
318,1437147227748,15.0
319,1437147227769,14.0
320,1437147227788,14.0
321,1437147227808,14.0
322,1437147227828,15.0
323,1437147227849,15.0
324,1437147227869,16.0
325,1437147227889,16.0
326,1437147227908,16.0
327,1437147227929,16.0
328,1437147227949,17.0
329,1437147227968,17.0
330,1437147227990,19.0
331,1437147228010,19.0
332,1437147228029,19.0
333,1437147228052,18.0
334,1437147228117,18.0
335,1437147228118,17.0
336,1437147228119,17.0
337,1437147228130,18.0
338,1437147228149,18.0
339,1437147228171,18.0
340,1437147228188,17.0
341,1437147228208,17.0
342,1437147228245,16.0
343,1437147228248,16.0
344,1437147228281,14.0
345,1437147228294,14.0
346,1437147228317,15.0
347,1437147228328,15.0
348,1437147228351,16.0
349,1437147228369,16.0
350,1437147228388,17.0
351,1437147228409,18.0
352,1437147228430,18.0
353,1437147228449,16.0
354,1437147228471,16.0
355,1437147228490,17.0
356,1437147228511,17.0
357,1437147228529,19.0
358,1437147228552,19.0
359,1437147228572,18.0
360,1437147228592,18.0
361,1437147228610,17.0
362,1437147228629,18.0
363,1437147228648,18.0
364,1437147228671,18.0
365,1437147228691,18.0
366,1437147228711,17.0
367,1437147228732,17.0
368,1437147228751,17.0
369,1437147228821,17.0
370,1437147228822,15.0
371,1437147228823,15.0
372,1437147228847,13.0
373,1437147228849,14.0
374,1437147228871,14.0
375,1437147228904,14.0
376,1437147228914,14.0
377,1437147229011,15.0
378,1437147229012,15.0
379,1437147229013,17.0
380,1437147229014,17.0
381,1437147229015,17.0
382,1437147229040,17.0
383,1437147229052,18.0
384,1437147229076,18.0
385,1437147229090,18.0
386,1437147229112,17.0
387,1437147229130,17.0
388,1437147229150,17.0
389,1437147229169,17.0
390,1437147229190,17.0
391,1437147229213,17.0
392,1437147229232,17.0
393,1437147229251,17.0
394,1437147229272,17.0
395,1437147229292,16.0
396,1437147229327,16.0
397,1437147229332,14.0
398,1437147229351,14.0
399,1437147229374,13.0
400,1437147229392,13.0
401,1437147229411,15.0
402,1437147229432,15.0
403,1437147229452,15.0
404,1437147229474,16.0
405,1437147229492,16.0
406,1437147229510,17.0
407,1437147229529,17.0
408,1437147229550,18.0
409,1437147229570,18.0
410,1437147229640,20.0
411,1437147229656,20.0
412,1437147229657,20.0
413,1437147229658,20.0
414,1437147229670,19.0
415,1437147229699,19.0
416,1437147229736,19.0
417,1437147229737,19.0
418,1437147229750,19.0
419,1437147229772,19.0
420,1437147229799,19.0
421,1437147229811,18.0
422,1437147229837,18.0
423,1437147229854,17.0
424,1437147229872,17.0
425,1437147229891,15.0
426,1437147229910,14.0
427,1437147229931,14.0
428,1437147229952,15.0
429,1437147229974,15.0
430,1437147229994,14.0
431,1437147230042,14.0
432,1437147230043,16.0
433,1437147230053,16.0
434,1437147230072,17.0
435,1437147230095,17.0
436,1437147230114,19.0
437,1437147230132,19.0
438,1437147230152,19.0
439,1437147230170,19.0
440,1437147230191,19.0
441,1437147230213,18.0
442,1437147230234,18.0
443,1437147230255,19.0
444,1437147230273,19.0
445,1437147230404,19.0
446,1437147230405,18.0
447,1437147230406,18.0
448,1437147230407,16.0
449,1437147230408,16.0
450,1437147230409,14.0
451,1437147230418,14.0
452,1437147230432,16.0
453,1437147230452,16.0
454,1437147230471,16.0
455,1437147230490,16.0
456,1437147230515,16.0
457,1437147230536,16.0
458,1437147230552,16.0
459,1437147230577,17.0
460,1437147230594,17.0
461,1437147230613,18.0
462,1437147230633,18.0
463,1437147230654,20.0
464,1437147230673,20.0
465,1437147230691,20.0
466,1437147230711,20.0
467,1437147230731,19.0
468,1437147230753,18.0
469,1437147230771,18.0
470,1437147230794,19.0
471,1437147230814,19.0
472,1437147230833,19.0
473,1437147230852,19.0
474,1437147230872,18.0
475,1437147230890,18.0
476,1437147230915,15.0
477,1437147230936,15.0
478,1437147230954,13.0
479,1437147230974,14.0
480,1437147230994,14.0
481,1437147231011,14.0
482,1437147231033,14.0
483,1437147231121,13.0
484,1437147231122,13.0
485,1437147231123,13.0
486,1437147231124,13.0
487,1437147231136,14.0
488,1437147231153,14.0
489,1437147231174,17.0
490,1437147231191,18.0
491,1437147231211,18.0
492,1437147231245,19.0
493,1437147231252,19.0
494,1437147231273,18.0
495,1437147231295,18.0
496,1437147231311,18.0
497,1437147231334,18.0
498,1437147231353,18.0
499,1437147231375,18.0
500,1437147231394,18.0
501,1437147231413,17.0
502,1437147231431,17.0
503,1437147231452,14.0
504,1437147231474,14.0
505,1437147231498,14.0
506,1437147231511,14.0
507,1437147231531,16.0
508,1437147231556,16.0
509,1437147231571,16.0
510,1437147231591,16.0
511,1437147231616,16.0
512,1437147231638,19.0
513,1437147231658,19.0
514,1437147231677,21.0
515,1437147231694,21.0
516,1437147231713,21.0
517,1437147231732,21.0
518,1437147231752,20.0
519,1437147231824,20.0
520,1437147231825,20.0
521,1437147231826,21.0
522,1437147231840,21.0
523,1437147231853,21.0
524,1437147231874,21.0
525,1437147231892,21.0
526,1437147231912,21.0
527,1437147231934,20.0
528,1437147231954,20.0
529,1437147231975,20.0
530,1437147231992,20.0
531,1437147232012,17.0
532,1437147232032,15.0
533,1437147232054,15.0
534,1437147232075,15.0
535,1437147232095,15.0
536,1437147232115,15.0
537,1437147232135,15.0
538,1437147232156,16.0
539,1437147232175,16.0
540,1437147232194,16.0
541,1437147232212,16.0
542,1437147232234,18.0
543,1437147232254,20.0
544,1437147232278,20.0
545,1437147232301,20.0
546,1437147232325,20.0
547,1437147232336,18.0
548,1437147232353,18.0
549,1437147232373,19.0
550,1437147232445,19.0
551,1437147232446,20.0
552,1437147232447,20.0
553,1437147232466,19.0
554,1437147232486,19.0
555,1437147232727,19.0
556,1437147232728,17.0
557,1437147232729,17.0
558,1437147232730,14.0
559,1437147232731,14.0
560,1437147232732,14.0
561,1437147232733,14.0
562,1437147232734,13.0
563,1437147232735,14.0
564,1437147232736,14.0
565,1437147232737,16.0
566,1437147232738,16.0
567,1437147232739,17.0
568,1437147232752,17.0
569,1437147232775,19.0
570,1437147232794,19.0
571,1437147232814,20.0
572,1437147232832,20.0
573,1437147232854,19.0
574,1437147232875,19.0
575,1437147232896,19.0
576,1437147232916,19.0
577,1437147232933,19.0
578,1437147232956,19.0
579,1437147232972,19.0
580,1437147232992,18.0
581,1437147233012,18.0
582,1437147233033,18.0
583,1437147233052,18.0
584,1437147233074,16.0
585,1437147233096,14.0
586,1437147233114,14.0
587,1437147233133,16.0
588,1437147233153,16.0
589,1437147233176,15.0
590,1437147233199,15.0
591,1437147233264,17.0
592,1437147233265,17.0
593,1437147233266,18.0
594,1437147233278,18.0
595,1437147233295,19.0
596,1437147233314,19.0
597,1437147233333,19.0
598,1437147233355,18.0
599,1437147233375,18.0
600,1437147233394,17.0
601,1437147233417,17.0
602,1437147233434,18.0
603,1437147233454,18.0
604,1437147233475,18.0
605,1437147233495,18.0
606,1437147233514,17.0
607,1437147233534,17.0
608,1437147233555,17.0
609,1437147233576,16.0
610,1437147233596,16.0
611,1437147233618,16.0
612,1437147233637,16.0
613,1437147233656,17.0
614,1437147233678,17.0
615,1437147233697,16.0
616,1437147233715,17.0
617,1437147233736,17.0
618,1437147233754,17.0
619,1437147233776,17.0
620,1437147233797,16.0
621,1437147233817,16.0
622,1437147233837,16.0
623,1437147233856,16.0
624,1437147233876,16.0
625,1437147233896,16.0
626,1437147233924,17.0
627,1437147234066,17.0
628,1437147234067,17.0
629,1437147234068,18.0
630,1437147234069,18.0
631,1437147234070,20.0
632,1437147234071,20.0
633,1437147234072,20.0
634,1437147234099,20.0
635,1437147234100,20.0
636,1437147234139,20.0
637,1437147234140,18.0
638,1437147234155,15.0
639,1437147234175,15.0
640,1437147234195,16.0
641,1437147234215,16.0
642,1437147234236,16.0
643,1437147234255,16.0
644,1437147234276,17.0
645,1437147234296,17.0
646,1437147234318,18.0
647,1437147234340,18.0
648,1437147234358,18.0
649,1437147234378,19.0
650,1437147234395,19.0
651,1437147234415,20.0
652,1437147234434,20.0
653,1437147234454,20.0
654,1437147234475,20.0
655,1437147234497,20.0
656,1437147234518,20.0
657,1437147234538,20.0
658,1437147234558,20.0
659,1437147234578,19.0
660,1437147234598,18.0
661,1437147234619,18.0
662,1437147234639,18.0
663,1437147234658,18.0
664,1437147234677,15.0
665,1437147234696,15.0
666,1437147234716,16.0
667,1437147234744,16.0
668,1437147234821,16.0
669,1437147234822,17.0
670,1437147234823,17.0
671,1437147234824,17.0
672,1437147234836,17.0
673,1437147234855,17.0
674,1437147234875,17.0
675,1437147234895,19.0
676,1437147234921,19.0
677,1437147234950,20.0
678,1437147234955,20.0
679,1437147234983,20.0
680,1437147234997,20.0
681,1437147235015,20.0
682,1437147235036,20.0
683,1437147235055,20.0
684,1437147235075,20.0
685,1437147235095,20.0
686,1437147235116,20.0
687,1437147235136,20.0
688,1437147235156,20.0
689,1437147235179,20.0
690,1437147235198,18.0
691,1437147235217,15.0
692,1437147235236,15.0
693,1437147235256,17.0
694,1437147235275,17.0
695,1437147235296,16.0
696,1437147235316,16.0
697,1437147235338,16.0
698,1437147235359,16.0
699,1437147235380,16.0
700,1437147235399,16.0
701,1437147235418,16.0
702,1437147235437,16.0
703,1437147235456,16.0
704,1437147235485,16.0
705,1437147235617,16.0
706,1437147235618,15.0
707,1437147235619,15.0
708,1437147235620,15.0
709,1437147235621,15.0
710,1437147235622,15.0
711,1437147235623,15.0
712,1437147235661,15.0
713,1437147235662,14.0
714,1437147235676,14.0
715,1437147235709,13.0
716,1437147235728,13.0
717,1437147235735,13.0
718,1437147235760,13.0
719,1437147235776,15.0
720,1437147235795,15.0
721,1437147235816,16.0
722,1437147235836,16.0
723,1437147235857,16.0
724,1437147235876,17.0
725,1437147235896,17.0
726,1437147235916,17.0
727,1437147235936,17.0
728,1437147235956,17.0
729,1437147235976,17.0
730,1437147235996,18.0
731,1437147236016,18.0
732,1437147236036,19.0
733,1437147236056,17.0
734,1437147236076,17.0
735,1437147236096,17.0
736,1437147236118,17.0
737,1437147236139,18.0
738,1437147236157,18.0
739,1437147236177,18.0
740,1437147236195,18.0
741,1437147236216,17.0
742,1437147236235,17.0
743,1437147236257,16.0
744,1437147236275,15.0
745,1437147236295,15.0
746,1437147236315,13.0
747,1437147236335,13.0
748,1437147236357,14.0
749,1437147236375,14.0
750,1437147236396,13.0
751,1437147236415,13.0
752,1437147236436,14.0
753,1437147236455,14.0
754,1437147236475,14.0
755,1437147236496,16.0
756,1437147236517,16.0
757,1437147236538,18.0
758,1437147236558,18.0
759,1437147236578,18.0
760,1437147236595,18.0
761,1437147236616,17.0
762,1437147236637,17.0
763,1437147236657,17.0
764,1437147236677,17.0
765,1437147236698,18.0
766,1437147236720,17.0
767,1437147236740,17.0
768,1437147236759,17.0
769,1437147236776,17.0
770,1437147236810,16.0
771,1437147236816,16.0
772,1437147236837,14.0
773,1437147236856,14.0
774,1437147236898,16.0
775,1437147236899,16.0
776,1437147236927,16.0
777,1437147236937,16.0
778,1437147236957,16.0
779,1437147236977,18.0
780,1437147236997,18.0
781,1437147237017,19.0
782,1437147237037,19.0
783,1437147237068,20.0
784,1437147237091,20.0
785,1437147237097,20.0
786,1437147237122,19.0
787,1437147237137,19.0
788,1437147237159,19.0
789,1437147237178,19.0
790,1437147237198,20.0
791,1437147237218,20.0
792,1437147237236,20.0
793,1437147237259,20.0
794,1437147237277,19.0
795,1437147237296,19.0
796,1437147237318,19.0
797,1437147237338,17.0
798,1437147237357,17.0
799,1437147237379,13.0
800,1437147237399,13.0
801,1437147237419,15.0
802,1437147237439,15.0
803,1437147237459,15.0
804,1437147237477,15.0
805,1437147237497,16.0
806,1437147237518,16.0
807,1437147237539,17.0
808,1437147237565,16.0
809,1437147237579,16.0
810,1437147237597,19.0
811,1437147237644,19.0
812,1437147237645,20.0
813,1437147237657,20.0
814,1437147237678,19.0
815,1437147237700,19.0
816,1437147237718,19.0
817,1437147237740,19.0
818,1437147237759,20.0
819,1437147237777,20.0
820,1437147237798,20.0
821,1437147237820,19.0
822,1437147237838,19.0
823,1437147237858,19.0
824,1437147237879,19.0
825,1437147237899,19.0
826,1437147237920,19.0
827,1437147237939,17.0
828,1437147237959,17.0
829,1437147237978,14.0
830,1437147237998,14.0
831,1437147238018,14.0
832,1437147238040,14.0
833,1437147238058,14.0
834,1437147238078,17.0
835,1437147238098,17.0
836,1437147238118,19.0
837,1437147238138,19.0
838,1437147238158,19.0
839,1437147238178,20.0
840,1437147238198,20.0
841,1437147238219,20.0
842,1437147238238,20.0
843,1437147238261,20.0
844,1437147238281,20.0
845,1437147238411,19.0
846,1437147238412,19.0
847,1437147238413,19.0
848,1437147238414,19.0
849,1437147238415,18.0
850,1437147238416,18.0
851,1437147238428,18.0
852,1437147238438,17.0
853,1437147238460,17.0
854,1437147238478,16.0
855,1437147238499,16.0
856,1437147238524,15.0
857,1437147238538,15.0
858,1437147238565,14.0
859,1437147238579,14.0
860,1437147238599,15.0
861,1437147238619,14.0
862,1437147238639,14.0
863,1437147238659,15.0
864,1437147238679,15.0
865,1437147238699,14.0
866,1437147238718,14.0
867,1437147238739,14.0
868,1437147238760,14.0
869,1437147238780,13.0
870,1437147238800,13.0
871,1437147238821,10.0
872,1437147238840,10.0
873,1437147238859,10.0
