id,attr_time,attr_x,attr_y,attr_z
1,1436462332543,44.6121,-5.90363,-17.1707
2,1436462332562,43.9117,-4.84772,-17.5064
3,1436462332583,43.9117,-4.84772,-17.5064
4,1436462332603,44.0857,-5.37567,-19.0201
5,1436462332622,43.7363,-5.37567,-18.3472
6,1436462332642,43.7363,-5.37567,-18.3472
7,1436462332663,43.2098,-5.90363,-17.8436
8,1436462332681,44.6121,-5.2002,-18.1793
9,1436462332703,44.6121,-5.2002,-18.1793
10,1436462332722,43.3853,-6.0791,-17.0029
11,1436462332742,43.9117,-4.14581,-18.8522
12,1436462332762,43.9117,-4.14581,-18.8522
13,1436462332780,45.6635,-6.25458,-17.8436
14,1436462332802,45.137,-4.32129,-17.6758
15,1436462332820,45.137,-4.32129,-17.6758
16,1436462332841,45.6635,-6.60553,-18.1793
17,1436462332862,45.137,-4.32129,-16.6656
18,1436462332881,45.137,-4.32129,-16.6656
19,1436462332901,43.0359,-3.96881,-16.6656
20,1436462332919,46.0129,-5.2002,-17.8436
21,1436462332941,46.0129,-5.2002,-17.8436
22,1436462332960,42.8604,-5.90363,-19.1879
23,1436462332980,44.2612,-4.49676,-15.8249
24,1436462333001,44.2612,-4.49676,-15.8249
25,1436462333019,44.2612,-5.55115,-19.1879
26,1436462333040,44.6121,-4.49676,-17.8436
27,1436462333061,44.6121,-4.49676,-17.8436
28,1436462333079,44.0857,-5.02472,-16.33
29,1436462333100,43.2098,-4.49676,-18.5165
30,1436462333120,43.2098,-4.49676,-18.5165
31,1436462333140,43.0359,-5.37567,-18.0115
32,1436462333160,46.0129,-3.79333,-16.835
33,1436462333179,46.0129,-3.79333,-16.835
34,1436462333200,45.3125,-5.55115,-16.835
35,1436462333219,44.4366,-2.56348,-17.0029
36,1436462333239,44.4366,-2.56348,-17.0029
37,1436462333260,44.0857,-5.02472,-18.3472
38,1436462333278,43.7363,-3.26691,-18.0115
39,1436462333298,43.7363,-3.26691,-18.0115
40,1436462333319,43.9117,-3.79333,-19.1879
41,1436462333339,43.7363,-4.32129,-17.6758
42,1436462333358,43.7363,-4.32129,-17.6758
43,1436462333377,44.2612,-5.55115,-17.1707
44,1436462333399,43.5608,-3.79333,-16.835
45,1436462333417,43.5608,-3.79333,-16.835
46,1436462333438,43.9117,-3.44238,-17.8436
47,1436462333459,44.4366,-3.96881,-15.9943
48,1436462333478,44.4366,-3.96881,-15.9943
49,1436462333498,44.9615,-5.90363,-17.5064
50,1436462333516,44.6121,-4.14581,-16.835
51,1436462333537,44.6121,-4.14581,-16.835
52,1436462333558,44.7876,-5.37567,-17.0029
53,1436462333577,44.7876,-3.96881,-17.6758
54,1436462333598,44.7876,-3.96881,-17.6758
55,1436462333617,44.4366,-6.78253,-17.3386
56,1436462333637,45.137,-5.02472,-18.3472
57,1436462333658,45.137,-5.02472,-18.3472
58,1436462333676,44.6121,-5.90363,-17.1707
59,1436462333697,44.0857,-3.96881,-17.3386
60,1436462333717,44.0857,-3.96881,-17.3386
61,1436462333735,45.488,-4.67224,-16.6656
62,1436462333757,44.6121,-4.84772,-17.8436
63,1436462333776,44.6121,-4.84772,-17.8436
64,1436462333797,44.0857,-5.37567,-17.6758
65,1436462333816,44.4366,-3.26691,-17.6758
66,1436462333834,44.4366,-3.26691,-17.6758
67,1436462333856,44.0857,-5.37567,-16.6656
68,1436462333875,43.0359,-3.96881,-17.3386
69,1436462333896,43.0359,-3.96881,-17.3386
70,1436462333915,44.9615,-5.90363,-18.8522
71,1436462333936,44.7876,-5.72662,-18.3472
72,1436462333955,44.7876,-5.72662,-18.3472
73,1436462333976,44.9615,-4.49676,-16.4978
74,1436462333995,43.7363,-5.72662,-16.33
75,1436462334013,43.7363,-5.72662,-16.33
76,1436462334036,45.137,-5.02472,-18.0115
77,1436462334055,44.9615,-3.79333,-15.8249
78,1436462334075,44.9615,-3.79333,-15.8249
79,1436462334095,43.7363,-3.26691,-16.6656
80,1436462334114,45.8389,-4.32129,-16.33
81,1436462334135,45.8389,-4.32129,-16.33
82,1436462334154,44.4366,-5.02472,-17.6758
83,1436462334175,45.6635,-3.0899,-16.835
84,1436462334194,45.6635,-3.0899,-16.835
85,1436462334214,43.7363,-7.83691,-18.6844
86,1436462334244,45.137,-4.67224,-17.0029
87,1436462334250,45.137,-4.67224,-17.0029
88,1436462334273,45.3125,-5.2002,-16.4978
89,1436462334292,44.2612,-3.79333,-17.1707
90,1436462334313,44.2612,-3.79333,-17.1707
91,1436462334333,44.6121,-4.84772,-17.5064
92,1436462334352,44.6121,-4.84772,-17.1707
93,1436462334374,44.6121,-4.84772,-17.1707
94,1436462334393,44.0857,-6.0791,-17.3386
95,1436462334413,44.2612,-3.79333,-18.5165
96,1436462334431,44.2612,-3.79333,-18.5165
97,1436462334453,44.0857,-4.32129,-18.0115
98,1436462334472,43.3853,-3.96881,-17.6758
99,1436462334492,43.3853,-3.96881,-17.6758
100,1436462334512,43.9117,-4.84772,-17.5064
101,1436462334533,44.0857,-4.32129,-17.6758
102,1436462334552,44.0857,-4.32129,-17.6758
103,1436462334572,43.9117,-5.2002,-18.1793
104,1436462334592,44.4366,-4.67224,-17.3386
105,1436462334611,44.4366,-4.67224,-17.3386
106,1436462334632,44.9615,-4.14581,-18.5165
107,1436462334652,44.9615,-4.14581,-17.1707
108,1436462334673,44.9615,-4.14581,-17.1707
109,1436462334690,45.6635,-5.55115,-18.8522
110,1436462334711,43.9117,-2.388,-18.1793
111,1436462334732,43.9117,-2.388,-18.1793
112,1436462334751,43.3853,-5.72662,-19.0201
113,1436462334771,44.2612,-5.90363,-18.5165
114,1436462334790,44.2612,-5.90363,-18.5165
115,1436462334811,44.7876,-6.78253,-17.3386
116,1436462334831,44.2612,-5.2002,-17.8436
117,1436462334850,44.2612,-5.2002,-17.8436
118,1436462334871,44.0857,-5.02472,-18.0115
119,1436462334889,44.2612,-3.44238,-16.835
120,1436462334910,44.2612,-3.44238,-16.835
121,1436462334930,43.5608,-5.55115,-18.1793
122,1436462334950,44.2612,-2.73895,-18.8522
123,1436462334970,44.2612,-2.73895,-18.8522
124,1436462334990,43.9117,-2.73895,-18.5165
125,1436462335009,43.3853,-1.50909,-20.3659
126,1436462335029,43.3853,-1.50909,-20.3659
127,1436462335049,42.334,1.65558,-21.3745
128,1436462335068,44.0857,3.41339,-21.7117
129,1436462335089,44.0857,3.41339,-21.7117
130,1436462335109,41.9846,5.1712,-23.7289
131,1436462335130,42.334,5.1712,-24.7375
132,1436462335149,42.334,5.1712,-24.7375
133,1436462335169,42.334,4.11682,-26.4191
134,1436462335189,44.0857,3.06244,-26.4191
135,1436462335208,44.0857,3.06244,-26.4191
136,1436462335229,41.2827,-0.805664,-28.4378
137,1436462335249,42.8604,-3.0899,-26.2512
138,1436462335269,42.8604,-3.0899,-26.2512
139,1436462335288,41.8091,-7.66144,-27.2598
140,1436462335308,40.7578,-8.36334,-25.2426
141,1436462335329,40.7578,-8.36334,-25.2426
142,1436462335346,39.5309,-10.2982,-24.7375
143,1436462335368,40.4068,-11.879,-21.5424
144,1436462335387,40.4068,-11.879,-21.5424
145,1436462335408,41.4581,-12.5824,-21.5424
146,1436462335428,40.0574,-13.2858,-20.5338
147,1436462335447,40.0574,-13.2858,-20.5338
148,1436462335468,41.4581,-12.2314,-18.8522
149,1436462335485,41.9846,-13.1104,-19.3573
150,1436462335507,41.9846,-13.1104,-19.3573
151,1436462335526,41.9846,-12.7579,-18.0115
152,1436462335547,42.1585,-10.4736,-18.1793
153,1436462335567,42.1585,-10.4736,-18.1793
154,1436462335587,43.2098,-11.1771,-17.5064
155,1436462335607,42.5095,-10.8246,-15.4892
156,1436462335626,42.5095,-10.8246,-15.4892
157,1436462335646,43.0359,-14.1647,-15.9943
158,1436462335666,41.8091,-12.9349,-15.4892
159,1436462335686,41.8091,-12.9349,-15.4892
160,1436462335709,43.3853,-14.8682,-14.6484
161,1436462335726,42.5095,-14.3402,-14.8163
162,1436462335746,42.5095,-14.3402,-14.8163
163,1436462335766,44.6121,-15.0436,-15.152
164,1436462335786,44.0857,-12.7579,-18.6844
165,1436462335804,44.0857,-12.7579,-18.6844
166,1436462335825,45.6635,-11.1771,-20.5338
167,1436462335844,46.1884,-6.43005,-18.0115
168,1436462335866,46.1884,-6.43005,-18.0115
169,1436462335885,46.3638,-5.55115,-19.1879
170,1436462335905,44.7876,-1.15662,-17.6758
171,1436462335925,44.7876,-1.15662,-17.6758
172,1436462335944,44.7876,-0.805664,-16.6656
173,1436462335974,46.1884,0.601196,-16.33
174,1436462335981,46.1884,0.601196,-16.33
175,1436462336004,45.6635,1.12762,-15.4892
176,1436462336024,45.8389,3.06244,-12.6297
177,1436462336044,45.8389,3.06244,-12.6297
178,1436462336064,45.488,3.41339,-14.6484
179,1436462336083,45.8389,6.22559,-12.9669
180,1436462336104,45.8389,6.22559,-12.9669
181,1436462336123,46.3638,3.94135,-14.1434
182,1436462336144,46.1884,4.46777,-12.9669
183,1436462336164,46.1884,4.46777,-12.9669
184,1436462336183,45.8389,1.65558,-12.294
185,1436462336204,46.1884,1.30463,-12.6297
186,1436462336223,46.1884,1.30463,-12.6297
187,1436462336243,44.6121,-2.73895,-13.4705
188,1436462336263,46.1884,-2.91443,-11.6211
189,1436462336283,46.1884,-2.91443,-11.6211
190,1436462336303,46.1884,-5.72662,-14.3112
191,1436462336323,45.3125,-7.66144,-15.4892
192,1436462336342,45.3125,-7.66144,-15.4892
193,1436462336363,44.9615,-9.41925,-19.1879
194,1436462336382,46.0129,-6.95801,-18.5165
195,1436462336401,46.0129,-6.95801,-18.5165
196,1436462336422,46.7148,-8.71582,-20.871
197,1436462336441,44.4366,-5.72662,-20.7016
198,1436462336463,44.4366,-5.72662,-20.7016
199,1436462336482,44.7876,-6.78253,-23.056
200,1436462336502,44.6121,-5.2002,-22.8882
201,1436462336522,44.6121,-5.2002,-22.8882
202,1436462336540,40.9332,-6.78253,-24.4019
203,1436462336561,41.8091,-7.66144,-23.5611
204,1436462336580,41.8091,-7.66144,-23.5611
205,1436462336602,41.9846,-9.24225,-24.0662
206,1436462336621,40.9332,-9.94568,-22.7203
207,1436462336641,40.9332,-9.94568,-22.7203
208,1436462336661,41.8091,-11.879,-22.8882
209,1436462336681,40.5823,-11.7035,-22.0474
210,1436462336701,40.5823,-11.7035,-22.0474
211,1436462336721,41.6336,-12.4069,-22.0474
212,1436462336740,42.334,-11.3525,-20.0302
213,1436462336761,42.334,-11.3525,-20.0302
214,1436462336780,41.4581,-14.6927,-19.8608
215,1436462336803,43.7363,-13.4613,-19.0201
216,1436462336820,43.7363,-13.4613,-19.0201
217,1436462336840,44.4366,-14.1647,-19.0201
218,1436462336859,43.2098,-12.5824,-18.1793
219,1436462336880,43.2098,-12.5824,-18.1793
220,1436462336899,46.5393,-12.7579,-18.6844
221,1436462336920,47.2397,-7.48444,-21.0388
222,1436462336939,47.2397,-7.48444,-21.0388
223,1436462336959,45.137,-4.32129,-20.7016
224,1436462336979,44.9615,1.12762,-20.1981
225,1436462336998,44.9615,1.12762,-20.1981
226,1436462337019,45.3125,0.42572,-20.5338
227,1436462337038,44.7876,2.70996,-19.3573
228,1436462337059,44.7876,2.70996,-19.3573
229,1436462337079,44.2612,3.94135,-21.8796
230,1436462337099,43.9117,4.64325,-19.1879
231,1436462337118,43.9117,4.64325,-19.1879
232,1436462337138,44.7876,4.11682,-19.3573
233,1436462337158,43.7363,4.11682,-17.3386
234,1436462337178,43.7363,4.11682,-17.3386
235,1436462337199,45.137,3.41339,-17.3386
236,1436462337218,46.0129,4.64325,-16.4978
237,1436462337235,46.0129,4.64325,-16.4978
238,1436462337258,46.3638,2.88544,-15.4892
239,1436462337278,44.2612,3.94135,-14.8163
240,1436462337298,44.2612,3.94135,-14.8163
241,1436462337317,44.9615,4.2923,-17.5064
242,1436462337337,45.137,3.76434,-18.3472
243,1436462337356,45.137,3.76434,-18.3472
244,1436462337377,44.7876,3.41339,-17.6758
245,1436462337398,45.3125,2.53448,-18.5165
246,1436462337417,45.3125,2.53448,-18.5165
247,1436462337437,43.7363,0.601196,-19.0201
248,1436462337456,44.0857,1.30463,-22.0474
249,1436462337477,44.0857,1.30463,-22.0474
250,1436462337496,45.6635,-2.73895,-21.8796
251,1436462337516,43.5608,-3.44238,-24.234
252,1436462337537,43.5608,-3.44238,-24.234
253,1436462337555,43.0359,-5.37567,-24.7375
254,1436462337576,42.8604,-6.25458,-24.9069
255,1436462337595,42.8604,-6.25458,-24.9069
256,1436462337616,40.9332,-10.2982,-25.7477
257,1436462337636,39.7064,-12.9349,-24.5697
258,1436462337655,39.7064,-12.9349,-24.5697
259,1436462337676,39.5309,-15.9225,-26.4191
260,1436462337696,41.1087,-15.3946,-22.5525
261,1436462337715,41.1087,-15.3946,-22.5525
262,1436462337736,40.2313,-18.3838,-22.7203
263,1436462337755,40.9332,-17.3294,-23.056
264,1436462337775,40.9332,-17.3294,-23.056
265,1436462337796,40.5823,-18.3838,-22.7203
266,1436462337814,40.7578,-17.5049,-23.2239
267,1436462337835,40.7578,-17.5049,-23.2239
268,1436462337855,42.8604,-18.2083,-22.5525
269,1436462337875,40.4068,-15.3946,-19.8608
270,1436462337895,40.4068,-15.3946,-19.8608
271,1436462337913,41.6336,-18.7347,-20.0302
272,1436462337936,41.8091,-14.6927,-17.8436
273,1436462337953,41.8091,-14.6927,-17.8436
274,1436462337974,42.8604,-15.3946,-17.8436
275,1436462337994,46.0129,-13.2858,-19.1879
276,1436462338014,46.0129,-13.2858,-19.1879
277,1436462338034,44.9615,-9.7702,-21.5424
278,1436462338052,43.9117,-5.2002,-20.1981
279,1436462338073,43.9117,-5.2002,-20.1981
280,1436462338093,44.7876,-2.91443,-20.0302
281,1436462338113,43.9117,2.53448,-20.1981
282,1436462338133,43.9117,2.53448,-20.1981
283,1436462338153,44.4366,6.22559,-20.3659
284,1436462338173,44.4366,9.39026,-19.3573
285,1436462338194,44.4366,9.39026,-19.3573
286,1436462338213,41.4581,11.6745,-18.5165
287,1436462338233,41.2827,13.9603,-18.3472
288,1436462338253,41.2827,13.9603,-18.3472
289,1436462338272,41.4581,13.0814,-19.1879
290,1436462338293,41.4581,16.246,-18.1793
291,1436462338312,41.4581,16.246,-18.1793
292,1436462338332,41.9846,13.6093,-18.0115
293,1436462338352,43.2098,11.3235,-19.1879
294,1436462338370,43.2098,11.3235,-19.1879
295,1436462338392,43.9117,8.15887,-18.5165
296,1436462338411,40.9332,6.92902,-19.3573
297,1436462338432,40.9332,6.92902,-19.3573
298,1436462338452,43.7363,4.46777,-21.0388
299,1436462338471,42.5095,3.23792,-20.1981
300,1436462338492,42.5095,3.23792,-20.1981
301,1436462338509,44.6121,-1.68457,-21.8796
302,1436462338532,44.6121,-2.03552,-20.871
303,1436462338550,44.6121,-2.03552,-20.871
304,1436462338570,44.6121,-6.95801,-22.5525
305,1436462338591,42.334,-9.24225,-22.7203
306,1436462338611,42.334,-9.24225,-22.7203
307,1436462338631,40.7578,-15.0436,-25.5783
308,1436462338650,40.2313,-15.2191,-24.0662
309,1436462338670,40.2313,-15.2191,-24.0662
310,1436462338690,37.4283,-21.5469,-24.0662
311,1436462338710,36.0275,-22.9538,-24.0662
312,1436462338731,36.0275,-22.9538,-24.0662
313,1436462338750,37.2543,-22.7783,-24.9069
314,1436462338770,37.2543,-21.3715,-24.234
315,1436462338786,37.2543,-21.3715,-24.234
316,1436462338810,38.1302,-20.4926,-24.4019
317,1436462338830,37.2543,-19.6136,-22.5525
318,1436462338849,37.2543,-19.6136,-22.5525
319,1436462338869,40.4068,-19.9661,-22.5525
320,1436462338889,40.4068,-18.5593,-21.8796
321,1436462338908,40.4068,-18.5593,-21.8796
322,1436462338930,40.4068,-21.7239,-18.1793
323,1436462338949,40.7578,-20.668,-15.8249
324,1436462338970,40.7578,-20.668,-15.8249
325,1436462338988,43.9117,-19.9661,-15.4892
326,1436462339008,46.0129,-16.098,-16.835
327,1436462339029,46.0129,-16.098,-16.835
328,1436462339048,47.5906,-11.3525,-18.0115
329,1436462339069,46.7148,-5.55115,-17.1707
330,1436462339088,46.7148,-5.55115,-17.1707
331,1436462339107,45.488,-1.86005,-15.9943
332,1436462339129,44.6121,3.94135,-15.4892
333,1436462339147,44.6121,3.94135,-15.4892
334,1436462339168,44.0857,6.22559,-16.33
335,1436462339188,41.9846,12.5534,-14.6484
336,1436462339207,41.9846,12.5534,-14.6484
337,1436462339228,40.9332,15.0146,-14.9841
338,1436462339247,41.6336,18.8828,-15.3214
339,1436462339268,41.6336,18.8828,-15.3214
340,1436462339287,39.7064,19.0582,-15.8249
341,1436462339307,37.2543,20.4636,-14.8163
342,1436462339327,37.2543,20.4636,-14.8163
343,1436462339347,39.7064,18.7057,-15.152
344,1436462339367,40.0574,19.4092,-14.1434
345,1436462339387,40.0574,19.4092,-14.1434
346,1436462339407,41.1087,15.1901,-15.152
347,1436462339425,42.6849,12.9059,-13.9755
348,1436462339446,42.6849,12.9059,-13.9755
349,1436462339466,44.0857,6.92902,-13.9755
350,1436462339486,45.6635,6.40106,-14.1434
351,1436462339506,45.6635,6.40106,-14.1434
352,1436462339527,45.8389,1.65558,-12.9669
353,1436462339546,47.7661,-2.388,-14.1434
354,1436462339564,47.7661,-2.388,-14.1434
355,1436462339586,46.3638,-9.06677,-14.1434
356,1436462339604,44.0857,-12.056,-13.6398
357,1436462339626,44.0857,-12.056,-13.6398
358,1436462339645,42.8604,-16.098,-15.152
359,1436462339666,41.9846,-21.196,-14.3112
360,1436462339685,41.9846,-21.196,-14.3112
361,1436462339705,39.5309,-23.6572,-13.3026
362,1436462339725,39.8819,-24.3607,-13.3026
363,1436462339744,39.8819,-24.3607,-13.3026
364,1436462339765,38.3041,-24.1837,-14.4806
365,1436462339785,40.5823,-23.3047,-16.6656
366,1436462339804,40.5823,-23.3047,-16.6656
367,1436462339825,40.9332,-21.196,-19.0201
368,1436462339844,40.0574,-18.9102,-19.1879
369,1436462339864,40.0574,-18.9102,-19.1879
370,1436462339884,41.1087,-18.9102,-17.5064
371,1436462339903,41.1087,-17.1524,-16.4978
372,1436462339924,41.1087,-17.1524,-16.4978
373,1436462339944,42.334,-18.3838,-14.3112
374,1436462339964,43.2098,-16.8015,-11.7889
375,1436462339983,43.2098,-16.8015,-11.7889
376,1436462340012,42.8604,-16.4505,-10.1074
377,1436462340027,44.9615,-13.6368,-7.75299
378,1436462340041,44.9615,-13.6368,-7.75299
379,1436462340062,47.2397,-12.056,-12.294
380,1436462340083,46.5393,-5.37567,-12.294
381,1436462340102,46.5393,-5.37567,-12.294
382,1436462340122,44.6121,-1.68457,-13.8077
383,1436462340141,45.3125,1.4801,-15.8249
384,1436462340162,45.3125,1.4801,-15.8249
385,1436462340181,44.0857,3.76434,-17.6758
386,1436462340201,43.7363,10.0937,-17.3386
387,1436462340222,43.7363,10.0937,-17.3386
388,1436462340241,41.8091,10.6201,-19.5251
389,1436462340259,41.6336,14.3112,-20.7016
390,1436462340279,41.6336,14.3112,-20.7016
391,1436462340298,39.006,18.0038,-21.5424
392,1436462340319,36.5524,20.1126,-20.871
393,1436462340341,36.5524,20.1126,-20.871
394,1436462340362,37.6038,20.1126,-22.5525
395,1436462340380,38.1302,18.5303,-20.3659
396,1436462340402,38.1302,18.5303,-20.3659
397,1436462340421,37.4283,17.4759,-20.7016
398,1436462340442,39.3555,16.597,-21.2067
399,1436462340461,39.3555,16.597,-21.2067
400,1436462340479,41.8091,12.027,-19.8608
401,1436462340501,41.4581,9.91669,-18.1793
402,1436462340520,41.4581,9.91669,-18.1793
403,1436462340541,42.8604,6.05011,-18.8522
404,1436462340560,44.6121,3.94135,-18.5165
405,1436462340580,44.6121,3.94135,-18.5165
406,1436462340601,45.3125,2.88544,-18.5165
407,1436462340618,46.0129,2.18353,-19.5251
408,1436462340642,46.0129,2.18353,-19.5251
409,1436462340659,46.7148,-1.68457,-19.8608
410,1436462340680,45.8389,-4.32129,-21.0388
411,1436462340700,45.8389,-4.32129,-21.0388
412,1436462340720,44.4366,-10.2982,-21.0388
413,1436462340742,44.0857,-10.2982,-20.3659
414,1436462340759,44.0857,-10.2982,-20.3659
415,1436462340779,42.334,-12.4069,-21.0388
416,1436462340799,41.2827,-12.7579,-22.3831
417,1436462340819,41.2827,-12.7579,-22.3831
418,1436462340840,42.334,-12.7579,-24.7375
419,1436462340859,42.1585,-10.1212,-25.2426
420,1436462340879,42.1585,-10.1212,-25.2426
421,1436462340899,40.7578,-10.1212,-26.5884
422,1436462340919,41.9846,-6.43005,-26.4191
423,1436462340937,41.9846,-6.43005,-26.4191
424,1436462340958,43.2098,-8.71582,-25.5783
425,1436462340976,42.1585,-7.30896,-23.8968
426,1436462340999,42.1585,-7.30896,-23.8968
427,1436462341018,43.3853,-8.54034,-25.4105
428,1436462341038,44.2612,-5.90363,-24.9069
429,1436462341058,44.2612,-5.90363,-24.9069
430,1436462341076,44.7876,-6.43005,-26.7563
431,1436462341098,46.8887,-1.50909,-25.4105
432,1436462341117,46.8887,-1.50909,-25.4105
433,1436462341138,45.137,-0.102234,-22.3831
434,1436462341157,44.6121,2.18353,-20.871
435,1436462341177,44.6121,2.18353,-20.871
436,1436462341198,44.7876,4.46777,-19.3573
437,1436462341216,43.3853,5.87463,-19.3573
438,1436462341239,43.3853,5.87463,-19.3573
439,1436462341256,43.5608,6.40106,-18.5165
440,1436462341277,43.3853,10.7956,-17.3386
441,1436462341297,43.3853,10.7956,-17.3386
442,1436462341316,44.6121,10.6201,-18.1793
443,1436462341339,43.0359,10.7956,-18.3472
444,1436462341356,43.0359,10.7956,-18.3472
445,1436462341376,43.5608,10.2692,-17.5064
446,1436462341396,44.0857,12.2025,-16.33
447,1436462341416,44.0857,12.2025,-16.33
448,1436462341436,45.3125,7.10449,-16.4978
449,1436462341456,45.6635,5.34668,-15.4892
450,1436462341476,45.6635,5.34668,-15.4892
451,1436462341496,44.6121,0.776672,-15.4892
452,1436462341515,45.488,-0.453186,-15.3214
453,1436462341537,45.488,-0.453186,-15.3214
454,1436462341555,46.0129,-4.14581,-14.4806
455,1436462341574,44.4366,-7.48444,-15.3214
456,1436462341596,44.4366,-7.48444,-15.3214
457,1436462341615,44.0857,-11.7035,-15.657
458,1436462341635,44.4366,-15.2191,-15.9943
459,1436462341655,44.4366,-15.2191,-15.9943
460,1436462341673,43.7363,-16.9769,-14.3112
461,1436462341695,44.0857,-14.5157,-14.9841
462,1436462341714,44.0857,-14.5157,-14.9841
