id,attr_time,attr_db
1,1437236130212,3.44311482313906
2,1437236130733,8.2646096861646
3,1437236131272,5.39887288788972
4,1437236131721,10.4012345120805
5,1437236132222,23.1989208898264
6,1437236132733,28.5181491021769
7,1437236133219,42.8326459610519
8,1437236133655,40.3760886274947
9,1437236134125,43.792926116944
10,1437236134636,45.8763691050575
11,1437236135112,54.6868676448308
12,1437236135596,47.7670285767705
13,1437236136062,47.7256306131042
14,1437236136567,47.249045873737
15,1437236137035,42.9723469349799
16,1437236137483,51.7040202258429
17,1437236137976,40.6592195292044
18,1437236138436,22.0946336976472
19,1437236138907,34.0806093712478
20,1437236139458,46.5791167811987
21,1437236139889,57.4697755441079
22,1437236140296,51.0481598521987
23,1437236140763,46.9992907433596
24,1437236141248,46.0969721505155
25,1437236141769,6.81178682054295
26,1437236142261,39.3915608696948
27,1437236142729,35.2894351453501
28,1437236143158,45.6610314958799
29,1437236143643,43.8239236156631
30,1437236144126,44.7405321690086
31,1437236144636,5.79253182266645
32,1437236145110,8.78789338328204
33,1437236145602,2.75644458223689
34,1437236146077,32.5060321929867
35,1437236146609,17.1118492600572
36,1437236147096,6.97351188853475
37,1437236147613,22.1381134385194
38,1437236148075,38.6139531620875
39,1437236148566,23.968943168935
40,1437236149037,4.12885205264047
41,1437236149518,21.4816741278708
42,1437236149998,15.6649065865861
43,1437236150484,9.0546761743208
44,1437236150989,6.27710175559805
45,1437236151487,16.3013560304238
46,1437236151985,3.81477044476013
47,1437236152465,3.56351688463368
48,1437236152989,4.32770524538901
49,1437236153486,2.04267735101872
50,1437236153946,2.38584853826247
51,1437236154382,3.3702089916661
52,1437236155882,3.96947345921497
53,1437236156297,5.1068793744197
54,1437236156758,3.81540965362365
55,1437236157215,6.77564707649257
56,1437236157603,8.42056037932227
57,1437236157982,13.3179040902878
58,1437236158441,12.1758203958697
59,1437236158916,10.8900095610356
60,1437236159389,16.9319322775876
61,1437236159879,3.66251962239188
62,1437236160378,7.12743854380821
63,1437236160792,4.23880149086483
64,1437236162274,3.23392550932422
65,1437236162708,5.38466864982958
66,1437236163158,11.4660083938794
67,1437236163655,2.00250242204272
68,1437236164154,12.4283190120568
69,1437236164678,8.28027900656719
70,1437236165151,1.32527798933974
71,1437236165665,0.891835653819054
72,1437236166136,1.72102987548889
73,1437236166579,13.8556287910258
74,1437236166985,20.9882939982877
75,1437236167421,24.7929573031083
76,1437236167839,26.11335727787
77,1437236169254,6.95402265395449
78,1437236169632,6.91916829330049
79,1437236170068,0.957513771197503
80,1437236170546,1.43488057469135
81,1437236171044,5.71247697359297
82,1437236171516,6.04361833256152
83,1437236171988,0.470238380920739
84,1437236172428,0.447648278101341
85,1437236173963,1.59954692124502
86,1437236174415,2.6144377738781
87,1437236174896,2.03251679410759
88,1437236175365,3.42301091499027
89,1437236175841,4.99157488990018
90,1437236176308,2.93153716319963
91,1437236176799,2.89352651010381
92,1437236177289,4.84764382525034
93,1437236177722,22.5957541726282
94,1437236178124,2.96414570492458
95,1437236178556,26.3216533738506
96,1437236179017,13.9172991825565
97,1437236179490,8.7675302730133
98,1437236179975,7.73478010357531
99,1437236180448,3.82582517118806
100,1437236180939,22.3970740232749
101,1437236181415,37.913562478254
102,1437236181919,13.6323269040136
103,1437236182413,33.9215148006485
104,1437236182900,1.51348644726
105,1437236183852,26.2220502166739
106,1437236184320,35.1720495292923
107,1437236184821,32.8703742991245
108,1437236185307,23.1147894998422
109,1437236185797,34.1102166671744
110,1437236186283,33.0023629592483
111,1437236186820,25.6489357134415
112,1437236187312,29.9456292652988
113,1437236187786,32.2578071221014
114,1437236188254,10.2799780127435
115,1437236188740,2.94642301026734
116,1437236189238,3.88300857654945
117,1437236189719,35.3772737103578
118,1437236190223,39.0519114039465
119,1437236190719,37.2035318581864
120,1437236191215,31.6816050460369
121,1437236191731,30.1896499943404
122,1437236192240,25.4526027196402
123,1437236192726,1.57158626012814
124,1437236193239,12.1776923498076
125,1437236193730,29.3391912741182
126,1437236194152,35.8409821690438
127,1437236194616,41.4730956515535
128,1437236195074,18.6218355112945
129,1437236195586,37.3778935370584
130,1437236196064,7.21236995956168
131,1437236196564,43.4086932276581
132,1437236197053,44.1150108190997
133,1437236197510,44.311344366574
134,1437236197946,38.2358140869807
135,1437236198387,33.246176753939
136,1437236198876,35.5060804064322
137,1437236199345,42.689288575993
138,1437236199828,36.6205719218329
139,1437236200305,26.4882097907341
140,1437236200795,42.2810847510891
141,1437236201298,37.3619091563891
142,1437236201790,38.9962229929253
143,1437236202271,24.3080151720084
144,1437236202762,21.3450505366478
145,1437236203279,42.4306487632032
146,1437236203769,32.4504480248462
147,1437236204215,24.760128434697
148,1437236204688,29.5358642453602
149,1437236205158,41.7044421838237
150,1437236205675,52.6585142178422
151,1437236206223,35.4421456995045
152,1437236206626,37.6557656823402
153,1437236207067,39.7700259474407
154,1437236207550,31.4515417111515
155,1437236208044,18.4232792886504
156,1437236208547,9.92051059250548
157,1437236209015,25.5626075783796
158,1437236209504,29.7308864540588
159,1437236209979,34.6127379739069
160,1437236210479,37.5245669841828
161,1437236211014,28.3691569907867
162,1437236211511,37.7105328977888
163,1437236211987,29.0027662457062
164,1437236212501,3.60561336269459
165,1437236212990,2.51184733355708
166,1437236213483,2.71314212738835
167,1437236214191,4.12885205264047
168,1437236214538,1.28765858176397
169,1437236214885,29.6740375247816
170,1437236215332,5.06878330616495
171,1437236215771,3.65107053933547
172,1437236216151,0.0393589817018015
173,1437236216573,36.6030601827936
174,1437236217017,38.7460725232959
175,1437236217488,45.4653625231791
176,1437236217942,44.5500292118668
177,1437236218295,50.4474294343398
178,1437236218766,43.8022152542187
179,1437236219251,33.1121206637085
180,1437236219728,26.5117804971694
181,1437236220230,27.0561007270146
182,1437236220747,48.9549217956467
183,1437236221247,7.19451138395997
184,1437236221690,4.0912100017968
185,1437236222199,2.88589391766358
186,1437236222716,12.7498006623392
187,1437236223198,9.46675532772321
188,1437236223705,4.48103095380436
189,1437236224205,40.4456194391765
190,1437236224715,37.8183527960986
191,1437236225234,29.4864780894888
192,1437236225724,30.6622471199223
193,1437236226253,32.1019078380726
194,1437236226739,14.9561468970901
195,1437236227252,3.14714337444842
196,1437236227750,17.4186656485127
197,1437236228250,26.6893084149095
198,1437236228735,10.6157485039886
199,1437236229239,13.657256337471
200,1437236229720,17.3293757483564
201,1437236230206,8.50792483853411
202,1437236230733,26.545898356642
203,1437236231228,11.1679127769073
204,1437236231733,42.1215766172364
205,1437236232218,42.9752080466633
206,1437236232724,33.8643126417498
207,1437236233188,25.798522506397
208,1437236233705,34.0248031566858
209,1437236234263,38.8336765622979
210,1437236234643,28.2031879133633
211,1437236235048,28.6524199015601
212,1437236235490,31.6033429967558
213,1437236236016,23.1649282455103
214,1437236236499,33.100809657149
215,1437236236968,22.0106681767479
216,1437236237479,29.5707033054316
217,1437236237964,13.8599474148077
218,1437236238437,30.2704384779189
219,1437236238869,14.2862215839504
220,1437236239294,24.0246799179508
221,1437236239791,28.1445628131406
222,1437236240276,25.6604122509114
223,1437236240798,11.9823267344765
224,1437236241276,21.9589199865598
225,1437236241796,8.21782943393251
226,1437236242285,28.9717973995136
227,1437236242786,19.8386772242071
228,1437236243274,31.7434377345833
229,1437236243780,35.2461444323667
230,1437236244274,34.3339910183499
231,1437236244770,25.6011137623037
232,1437236245254,22.4903929307462
233,1437236245730,36.2259793919651
234,1437236246128,38.4984625023959
235,1437236246530,41.9611096114041
236,1437236246985,29.9435717985797
237,1437236247460,30.1397320475936
238,1437236247934,32.851974060594
239,1437236248416,22.2204764920361
240,1437236248907,21.3930260541937
241,1437236249377,4.88300864273759
242,1437236249854,8.33714886538668
243,1437236250325,9.19884949471963
244,1437236250817,28.4310133826139
245,1437236251307,5.8857280229728
246,1437236251801,9.17692199796696
247,1437236252282,9.69092707744489
248,1437236252770,6.96411665815623
249,1437236253267,9.53449236414227
250,1437236253747,4.87850429191682
251,1437236254257,8.24266544574359
252,1437236254754,1.98334148304267
253,1437236255194,5.74743029898337
254,1437236255686,1.67450652035364
255,1437236256160,1.27550198126584
256,1437236256662,2.84626844000612
257,1437236257159,3.14714337444842
258,1437236257663,8.81170593971447
259,1437236258143,1.4603151159641
260,1437236258627,0.447648278101341
261,1437236259043,13.5328076908908
262,1437236259476,1.66160508517358
263,1437236259942,41.0130514642167
264,1437236260427,20.19585026031
265,1437236260912,1.56031076355805
266,1437236261861,31.5008577762623
267,1437236262325,5.60121977548503
268,1437236262821,1.87476644881471
269,1437236263293,27.8447173468254
270,1437236263793,30.1353449937167
271,1437236264322,27.4729111811862
272,1437236264796,24.4187492583736
273,1437236265268,9.61854838671764
274,1437236265753,1.36741701504883
275,1437236266247,1.79311236086539
276,1437236266734,0.416120513402239
277,1437236267231,3.07080541696596
278,1437236267714,1.47069872704897
279,1437236268204,1.79874067121173
280,1437236268707,2.85324015876152
281,1437236269167,39.9999978375842
282,1437236269675,4.22275447680807
283,1437236270163,1.14289040328558
284,1437236270678,20.9175058373006
285,1437236271233,27.3859936286381
286,1437236271730,11.6595710351715
287,1437236272275,25.2495347258551
288,1437236272755,3.43061427657706
289,1437236273250,1.77606209530446
290,1437236273737,3.73397088872533
291,1437236274223,7.67109061480225
292,1437236274710,18.8714278986632
293,1437236275088,21.1388253076724
294,1437236275517,17.7468882967679
295,1437236276003,45.4316792494503
296,1437236276533,7.45450074744339
297,1437236277023,3.34516686448175
298,1437236277515,28.7279523507174
299,1437236277996,24.8973130755719
300,1437236278478,6.30885288453455
301,1437236278931,11.9837414859772
302,1437236279363,4.78903909911887
303,1437236279804,6.69305354994349
304,1437236280288,2.6144377738781
305,1437236280793,3.95036858820817
306,1437236281307,35.3546805297739
307,1437236281779,31.2929673392874
308,1437236282270,17.0314030771711
309,1437236282768,27.079568024693
310,1437236283243,8.45938395153446
311,1437236283734,10.7740767132017
312,1437236284243,9.19884949471963
313,1437236284721,7.75128711892077
314,1437236285215,9.30284955383618
315,1437236285702,10.8458682566537
316,1437236286226,13.9309742957611
317,1437236286714,15.3929172195857
318,1437236287264,16.914145148918
319,1437236287753,28.7085283698004
320,1437236288243,29.3202556239277
321,1437236288730,21.5455851151207
322,1437236289230,26.7368271217257
323,1437236289708,19.7131902004867
324,1437236290213,21.6501439358883
325,1437236290714,18.2129026780344
326,1437236291210,31.8565702310428
327,1437236291759,16.2824908365094
328,1437236292259,27.1021121420359
329,1437236292787,25.6173425292177
330,1437236293280,25.169646919686
331,1437236293759,25.6088846325497
332,1437236294263,27.5615374444505
333,1437236294723,41.1692497642404
334,1437236295113,40.3762669304361
335,1437236295479,42.495798159957
336,1437236295919,42.9828433120402
337,1437236296395,42.3962631065374
338,1437236296881,45.2610060219835
339,1437236297319,46.6942276317403
340,1437236297714,47.035422463549
341,1437236298168,44.5006576895695
342,1437236298684,43.139963694626
343,1437236299174,40.0037730692778
344,1437236299593,34.1773944523291
345,1437236300057,38.3677640165451
346,1437236300526,43.3503500003415
347,1437236301023,30.9401931464868
348,1437236301498,33.9013471760174
349,1437236302000,38.4423437726581
350,1437236302496,30.4818129759331
351,1437236302996,16.3353298865852
352,1437236303470,15.0132870467876
353,1437236303960,16.5116623220439
354,1437236304483,14.01146735406
355,1437236304978,3.76129008309623
356,1437236305474,33.0885974881194
357,1437236305952,58.2659311511612
358,1437236306433,55.598948237208
359,1437236306900,39.8113947969058
360,1437236307367,18.1918353998916
361,1437236307846,8.29562102922661
362,1437236308325,10.3187005994741
363,1437236308805,3.34631381940723
364,1437236309276,20.7349673605868
365,1437236309758,24.9008446552436
366,1437236310237,7.08300934392905
367,1437236310727,34.9037292561511
368,1437236311218,35.9965109384513
369,1437236311698,31.6570170201539
370,1437236312194,10.3134212790566
371,1437236312689,14.213716272841
372,1437236313169,24.3295081295346
373,1437236313696,40.9335250934658
374,1437236314194,17.5181742296626
375,1437236314691,31.6840426490487
376,1437236315206,35.9774089828547
377,1437236315708,29.5895072636861
378,1437236316190,25.0952566263782
379,1437236316708,20.1564929226655
380,1437236317218,1.84083714927264
381,1437236317727,4.75480130197063
382,1437236318206,40.8358642718727
383,1437236318705,40.3737878905416
384,1437236319200,44.7826699516399
385,1437236319621,37.110183616225
386,1437236320042,35.4340284894771
387,1437236320513,29.3722055788407
388,1437236321017,36.3347322471144
389,1437236321507,38.7425036473749
390,1437236322006,3.14449159923684
391,1437236322491,32.4564059876644
392,1437236322989,42.8448473507203
393,1437236323475,37.4115786476941
394,1437236323948,42.2776689279528
395,1437236324429,33.1407091906644
396,1437236324924,38.1205955363565
397,1437236325404,23.9533735664904
398,1437236325877,22.4319175581391
399,1437236326401,37.6344242629702
400,1437236326891,46.0054889385086
401,1437236327383,36.6027128807316
402,1437236327890,28.7339261454873
403,1437236328360,26.2974590491944
404,1437236328837,25.9331646989946
405,1437236329324,20.8322566938855
406,1437236329797,37.6162390773481
407,1437236330276,42.8510092894445
408,1437236330778,36.7377309730029
409,1437236331264,41.2269065099016
410,1437236331756,34.3922870768562
411,1437236332250,24.3791697451281
412,1437236332745,20.8060601181645
413,1437236333238,41.7024702638724
414,1437236333707,20.7503978334561
415,1437236334181,16.5406479231741
416,1437236334707,19.9920602364207
417,1437236335194,15.8990004361546
418,1437236335599,19.7729515086904
419,1437236336030,14.4846567764638
420,1437236336489,50.0712990433763
421,1437236337027,38.5689999318248
422,1437236337522,2.25247333202218
423,1437236338002,2.6144377738781
424,1437236338487,2.71314212738835
425,1437236338962,2.47281687070668
426,1437236339429,1.61214978131745
427,1437236339840,1.43488057469135
428,1437236340303,1.22867766496779
429,1437236340805,2.56564051273612
430,1437236341293,1.29645709308972
431,1437236341790,1.79188519363559
432,1437236342275,3.90175703509803
433,1437236342750,5.95233926677811
434,1437236343251,14.5199639002631
435,1437236343726,5.71247697359297
436,1437236344221,4.65772171187934
437,1437236344710,1.39209285448032
438,1437236345229,3.95769597993516
439,1437236345722,4.50655893584795
440,1437236346226,4.3336059858592
441,1437236346710,2.03127319905384
442,1437236347210,2.72651532423808
443,1437236347703,7.33121671422583
444,1437236348209,2.23673089067063
445,1437236348702,5.97742661116533
446,1437236349177,28.4262620514322
447,1437236349701,35.0680010032874
448,1437236350194,24.3567777113706
449,1437236350697,30.9253805680866
450,1437236351183,19.9311729009062
451,1437236351705,17.3589883797411
452,1437236352191,14.4028079938648
453,1437236352692,37.1672036291631
454,1437236353198,41.1336155430081
455,1437236353700,20.6450843659776
456,1437236354101,1.47476991982942
457,1437236354541,3.32027891152831
458,1437236355009,11.4538796215685
459,1437236355498,2.4094515137596
460,1437236355991,5.71247697359297
461,1437236356484,2.88589391766358
462,1437236357052,1.69749724218861
463,1437236357513,35.7275670742549
464,1437236357844,18.3733611339288
465,1437236358286,21.2667918268985
466,1437236359985,33.2024204402263
467,1437236360404,14.554660091758
468,1437236360871,2.13619462576988
469,1437236361368,10.476378876152
470,1437236361824,30.9229773078467
471,1437236362267,37.271273745708
472,1437236362799,25.5543289943656
473,1437236363283,37.8199363557067
474,1437236363751,28.2311891667322
475,1437236364230,36.442118130022
476,1437236364719,15.5397108502784
477,1437236365207,38.9996793574214
478,1437236365711,4.68006168315804
479,1437236366233,36.2749525671824
480,1437236366713,35.7691060281115
481,1437236367208,30.8374213196008
482,1437236367708,33.1420491585652
483,1437236368205,32.5426377196701
484,1437236368704,0.714927509260971
485,1437236370442,1.82098367859908
486,1437236370865,20.3810575186844
487,1437236371323,35.9152534713515
488,1437236371816,43.7938999884846
489,1437236372296,39.8200285047468
490,1437236372773,39.2789360080355
491,1437236373226,38.0716216032915
492,1437236373736,18.1885930829909
493,1437236374238,40.0474245928412
494,1437236374717,29.1677701208335
495,1437236375201,28.0853241723142
496,1437236375706,24.3123494396064
497,1437236376189,6.81342830021108
498,1437236376697,42.390693478136
499,1437236377200,6.12663869956045
500,1437236377705,1.18454942625143
501,1437236378120,12.9046763304518
502,1437236378590,42.5858850799179
503,1437236379113,38.6868648264129
504,1437236379623,31.2365119756152
505,1437236380108,1.03081285292561
506,1437236380600,5.84002536889528
507,1437236381048,15.7021952075437
508,1437236381453,30.0930033437378
509,1437236381879,7.92382916081812
510,1437236382317,27.8933555067461
511,1437236382810,7.35160297564091
512,1437236383289,6.37126804514376
513,1437236383758,12.4897264875949
514,1437236385467,4.20614635259235
515,1437236385873,3.81079767671633
516,1437236386346,4.1089758663056
517,1437236386796,3.01608299119694
518,1437236387221,5.01516653320951
519,1437236387665,7.4852267144343
520,1437236388151,41.6070684609259
521,1437236388651,32.7440452720368
522,1437236389135,16.908578441212
523,1437236389654,27.2439206061768
524,1437236390136,39.9036762851182
525,1437236390641,6.54033067675747
526,1437236391107,1.87476644881471
527,1437236391588,3.39061038598505
528,1437236392074,9.10648073627312
529,1437236392529,35.6830828327642
530,1437236394403,2.7499810649067
531,1437236395212,1.32527798933974
532,1437236395707,2.14000506217144
533,1437236396191,4.48974210651333
534,1437236396743,1.87476644881471
535,1437236397273,3.67159439345039
536,1437236397739,1.43488057469135
537,1437236398137,27.9280992285401
538,1437236398599,35.6245145884369
539,1437236399069,1.27550198126584
540,1437236399564,37.7780578756571
541,1437236400060,31.2480836116926
542,1437236400528,41.8700041530174
543,1437236401023,52.2130680462187
544,1437236401506,27.3071133120127
545,1437236401956,46.076101293579
546,1437236402398,31.4587969260838
547,1437236402836,36.0977229177344
548,1437236403316,47.6823807862111
549,1437236403800,3.92992985552935
550,1437236404286,39.4468882519048
551,1437236404798,42.8861946190617
552,1437236405288,49.9592898718381
553,1437236405773,38.3353396975992
554,1437236406269,49.2450117826372
555,1437236406798,41.9917546629566
556,1437236407281,43.9947987046363
557,1437236407744,57.0657339667297
558,1437236408247,14.2106460957372
559,1437236408718,30.255270320257
560,1437236409241,31.0960128326807
561,1437236409725,35.3307657117284
562,1437236410224,3.44311482313906
563,1437236410717,52.5964466717748
564,1437236411243,44.0587498958314
565,1437236411685,54.8745821012887
566,1437236412162,4.70027710649123
567,1437236412679,4.28896515113073
568,1437236413178,45.0329234479627
569,1437236413692,24.8952041016357
570,1437236414213,36.7686236353783
571,1437236414717,19.6688022403065
572,1437236415213,26.6406394520191
573,1437236415722,40.7677736702357
574,1437236416274,36.0667247408871
575,1437236416759,31.5218269535044
