id,attr_time,attr_db
1,1436182170040,27.2340570721345
2,1436182170486,28.3775304201502
3,1436182170903,27.8808709266002
4,1436182171348,26.3798781777501
5,1436182171753,27.5964685558362
6,1436182172179,25.1389254609988
7,1436182172640,25.4033012329218
8,1436182173082,28.1223038664435
9,1436182173522,29.6261237007079
10,1436182173920,35.562852879045
11,1436182174339,34.0264918114902
12,1436182174754,38.365343481143
13,1436182175147,49.4333791467299
14,1436182175599,36.589221934964
15,1436182176023,41.692243762527
16,1436182176460,39.0325806781151
17,1436182176836,40.1798821826247
18,1436182177243,49.2376547630285
19,1436182177690,43.1541724442553
20,1436182178146,36.5536045400522
21,1436182178578,36.6634656754539
22,1436182178982,44.3226007102298
23,1436182179322,39.8854081890415
24,1436182179709,39.4137849535128
25,1436182180158,46.4506337790238
26,1436182180600,40.7325096287126
27,1436182181039,38.3464274925101
28,1436182181447,40.1323955717454
29,1436182181869,46.2274807711052
30,1436182182309,39.4111174591072
31,1436182182714,38.873373762108
32,1436182183150,49.6373745905351
33,1436182183588,41.4014011248795
34,1436182184030,39.1101586307053
35,1436182184464,36.8894247139146
36,1436182184893,43.7802406562189
37,1436182185331,39.9978194685769
38,1436182185753,39.1582883478437
39,1436182186206,56.4978979330831
40,1436182186672,58.7428988213229
41,1436182187112,67.694041628209
42,1436182187559,56.8108022992054
43,1436182188011,35.7503246586474
44,1436182188452,47.8744055459108
45,1436182188904,47.7606200421713
46,1436182189353,40.0465672535016
47,1436182189821,37.308998346542
48,1436182190278,36.4781303311704
49,1436182190744,40.6892254386382
50,1436182191177,40.4715916566095
51,1436182191607,40.3359494952564
52,1436182191999,43.9009067289157
53,1436182192440,46.5878995255495
54,1436182192859,38.8378169374615
55,1436182193277,41.9668693571089
56,1436182193717,43.3382386514515
57,1436182194109,52.5375887798824
58,1436182194520,61.1189233018491
59,1436182194964,44.009573822957
60,1436182195422,46.5910746505035
61,1436182195831,40.5386196826822
62,1436182196269,37.6465910222513
63,1436182196703,41.9209338133456
64,1436182197152,44.1941151014172
65,1436182197645,39.5642168308446
66,1436182198100,44.888426275686
67,1436182198541,44.0888677284059
68,1436182198990,50.625341822593
69,1436182199471,51.6677754161567
70,1436182199922,39.1541787303179
71,1436182200354,38.2209536620905
72,1436182200799,39.4717076604483
73,1436182201220,52.8500903107548
74,1436182201603,38.5720577369813
75,1436182202117,38.0327949298039
76,1436182202587,44.0761549507767
77,1436182203030,49.9624355901598
78,1436182203478,43.1082621592622
79,1436182203931,35.3898423724972
80,1436182204381,44.1657108004213
81,1436182204772,49.1653908632538
82,1436182205187,38.1412095218975
83,1436182205588,43.0040756614159
84,1436182205970,45.2130537981616
85,1436182206412,40.6429161107747
86,1436182206861,35.3050263754281
87,1436182207311,35.7822608603618
88,1436182207770,41.1169342772531
89,1436182208182,44.8856356604372
90,1436182208541,42.6356941036901
91,1436182208936,61.0883910504774
92,1436182209401,45.7751245014053
93,1436182209852,42.4975244307025
94,1436182210314,38.1786667108618
95,1436182210761,39.2183519930299
96,1436182211205,45.4287453308005
97,1436182211662,42.0660915590558
98,1436182212099,42.8086748826536
99,1436182212538,37.0288125655958
100,1436182212978,43.5217442894632
101,1436182213397,38.5578874559312
102,1436182213917,39.5706086639117
103,1436182214337,39.825392806268
104,1436182214738,46.9399750484502
105,1436182215182,47.8868780043538
106,1436182215629,38.3333470476498
107,1436182216104,39.8697723336702
108,1436182216540,40.5562990745897
109,1436182216943,57.4241655268157
110,1436182217367,41.4497914663937
111,1436182217826,44.0593749433685
112,1436182218280,44.0026157758123
113,1436182218716,46.7948914636135
114,1436182219142,45.9331375097643
115,1436182219632,43.0582361623977
116,1436182220055,45.0386966963644
117,1436182220517,47.739450698714
118,1436182221001,45.9952056456963
119,1436182221436,46.2615179614424
120,1436182221853,43.1459844850008
121,1436182222280,39.084706671668
122,1436182222679,51.1732763705508
123,1436182223123,40.0069688492994
124,1436182223580,39.6518169633219
125,1436182224031,39.6277999987403
126,1436182224450,43.8492576061881
127,1436182224926,52.0702128486819
128,1436182225318,38.2904945002324
129,1436182225697,36.5854974555336
130,1436182226111,39.7592573601433
131,1436182226537,47.3748422184068
132,1436182226943,40.0188424087348
133,1436182227383,45.172194984948
134,1436182227832,49.1319045250823
135,1436182228272,42.8184861263298
136,1436182228711,37.6635508093596
137,1436182229147,43.9693044217506
138,1436182229559,45.8193872925089
139,1436182229993,46.1899084188003
140,1436182230451,47.0163046423025
141,1436182230900,41.8208487257508
142,1436182231328,43.4213641925747
143,1436182231791,55.575374245217
144,1436182232250,41.8818265926124
145,1436182232655,37.614914753771
146,1436182233092,42.6109522970249
147,1436182233505,51.6322112171759
148,1436182233930,38.8465376801151
149,1436182234401,44.911844612834
150,1436182234883,45.8909481698109
151,1436182235329,52.0521405154432
152,1436182235755,43.6739561707434
153,1436182236170,42.2122237917214
154,1436182236628,39.1672876888071
155,1436182237044,41.8135277923369
156,1436182237443,41.1317633298126
157,1436182237880,35.5460337646614
158,1436182238312,46.9389118675718
159,1436182238726,44.1838288814247
160,1436182239124,36.0949084161591
161,1436182239518,41.8275846847688
162,1436182239950,45.1333776653666
163,1436182240391,37.0176926283193
164,1436182240817,38.4423755877125
165,1436182241261,40.726268677582
166,1436182241695,39.0727932745017
167,1436182242132,38.3987777715365
168,1436182242551,38.8712321349725
169,1436182242928,47.9481865911357
170,1436182243385,38.3759162441401
171,1436182243823,43.0091035642677
172,1436182244276,39.7068020513273
173,1436182244701,50.7095884802676
174,1436182245097,40.895978974133
175,1436182245514,38.2488836360894
176,1436182245954,56.9796689177865
177,1436182246397,40.821114822913
178,1436182246810,41.0861619066034
179,1436182247252,39.4567028939632
180,1436182247714,45.6096225654538
181,1436182248149,46.1853864618539
182,1436182248589,52.6701305453938
183,1436182249068,45.3097613455209
184,1436182249500,50.0692206270697
185,1436182249951,42.6211797172371
186,1436182250409,42.988941715662
187,1436182250871,41.1440441216891
188,1436182251320,43.5662867401255
189,1436182251772,43.8537472835671
190,1436182252240,36.8641653071388
191,1436182252682,46.943132864932
192,1436182253124,45.286418719661
193,1436182253574,44.2834095949954
194,1436182254043,38.5134316065581
195,1436182254450,37.5011991325767
196,1436182254888,42.6448895763069
197,1436182255319,40.4614114998316
198,1436182255731,35.5643612515916
199,1436182256152,48.7588022106056
200,1436182256608,41.3608100931595
201,1436182257058,45.8516135467584
202,1436182257517,46.4939569001955
203,1436182257953,47.9408624292844
204,1436182258393,42.6613692039018
205,1436182258768,46.1189060368311
206,1436182259161,48.2861626312807
207,1436182259591,44.2062130703772
208,1436182260055,40.3039154938564
209,1436182260503,44.9686130314082
210,1436182260953,45.9598519154575
211,1436182261399,40.6375401518528
212,1436182261861,40.8171555406841
213,1436182262311,46.4336215180063
214,1436182262753,48.1102830534141
215,1436182263203,38.2588741511909
216,1436182263591,46.3715790712987
217,1436182264101,55.1843610457925
218,1436182264529,40.5764816887054
219,1436182264957,49.8205141375789
220,1436182265396,54.7542445080407
221,1436182265793,47.6911919518034
222,1436182266201,44.6808298346959
223,1436182266672,43.5847902134755
224,1436182267122,51.3562194989733
225,1436182267550,41.2515182788704
226,1436182267937,42.4320870391454
227,1436182268332,47.0931515448511
228,1436182268788,47.5334619929558
229,1436182269253,40.7534950456767
230,1436182269700,44.9343457472151
231,1436182270158,50.8570089269169
232,1436182270599,56.1147070340741
233,1436182271044,40.818183818315
234,1436182271502,48.546235406914
235,1436182271956,54.1149006522207
236,1436182272416,45.5756951034532
237,1436182272866,40.2124345176336
238,1436182273293,42.3863498225855
239,1436182273751,54.5149382476737
240,1436182274184,45.6840161713315
241,1436182274600,41.9225456548602
242,1436182275054,43.3382045993215
243,1436182275441,48.6953307159598
244,1436182275860,44.5431162283803
245,1436182276323,38.6758981854015
246,1436182276770,45.3789687849084
247,1436182277213,46.520339077444
248,1436182277659,41.1702873132604
249,1436182278026,48.3726354863492
250,1436182278455,43.6869222699084
251,1436182278884,39.863939102223
252,1436182279318,45.3589721517451
253,1436182279746,45.7138377352641
254,1436182280195,44.9246382754716
255,1436182280650,40.7607421029784
256,1436182281113,38.4710038880909
257,1436182281559,49.4260036920753
258,1436182282012,55.54971302
259,1436182282460,50.1984212219531
260,1436182282910,38.7537644122652
261,1436182283365,50.8428240384417
262,1436182283775,50.9485331848497
263,1436182284165,45.9123957745121
264,1436182284642,43.8117355257668
265,1436182285117,51.7676500818872
266,1436182285460,43.0502741035444
267,1436182285920,43.2403693665745
268,1436182286371,44.3571625839416
269,1436182286779,56.2718618904876
270,1436182287190,47.2684048010168
271,1436182287675,41.9375453233599
272,1436182288138,44.4127725791782
273,1436182288613,48.9967961707125
274,1436182289062,52.6651488713301
275,1436182289507,48.8075026590809
276,1436182289866,40.7487595812682
277,1436182290302,42.4265739872794
278,1436182290751,60.8113133096325
279,1436182291146,43.5565465000606
280,1436182292272,40.9433979782597
281,1436182292730,46.4462910948669
282,1436182293171,54.5423132306032
283,1436182293605,43.9232532323042
284,1436182294031,41.6291754013016
285,1436182294450,42.0067550170323
286,1436182294891,58.1181732022762
287,1436182295316,44.386793196122
288,1436182295750,41.4600305656711
289,1436182296163,43.1458305329582
290,1436182296583,62.7630512466115
291,1436182297033,39.8204687989374
292,1436182297476,41.0645401378883
293,1436182297907,52.8949001629421
294,1436182298327,57.1587614983321
295,1436182298769,41.2857733275876
296,1436182299219,42.9916434576889
297,1436182299624,48.3203797947693
298,1436182300005,40.4743131357087
299,1436182300457,40.4836548881473
300,1436182300904,45.7705563394275
301,1436182301360,44.1910003837266
302,1436182301808,45.6430468175654
303,1436182302270,41.9295135958122
304,1436182302698,46.4329690941178
305,1436182303824,47.0513636238335
306,1436182304171,44.2244393083429
307,1436182304612,40.0062429152061
308,1436182305025,42.0076541576903
309,1436182305415,53.7691228582178
310,1436182305842,42.9879221284707
311,1436182306242,47.890098408246
312,1436182306686,43.0295754424495
313,1436182307142,54.5087144946199
314,1436182307580,41.5781595996575
315,1436182308033,39.7635890386296
316,1436182308445,50.5767210428763
317,1436182308837,51.8351439458283
318,1436182309264,38.8967754655123
319,1436182309746,43.5581674546473
320,1436182310179,57.2213702603257
321,1436182310639,49.2267668781307
322,1436182311092,42.1194302400039
323,1436182311541,40.6380784351551
324,1436182312001,43.4343611070501
325,1436182312471,50.13434716503
326,1436182312921,46.4189326190271
327,1436182313348,39.7882093398571
328,1436182313803,44.3340467908191
329,1436182314236,51.6884916972111
330,1436182314725,49.452042821186
331,1436182315169,41.8149732111927
332,1436182315623,42.5378042853443
333,1436182316063,49.5775245024205
334,1436182316488,50.6080952975373
335,1436182316901,41.5569641777002
336,1436182318182,43.3542685066998
337,1436182318621,41.2030871213041
338,1436182319048,46.2888987568818
339,1436182319476,49.5549962379041
340,1436182319906,42.5283808136269
341,1436182320355,47.4692321213639
342,1436182320811,54.8472949294007
343,1436182321270,49.0646116623428
344,1436182321713,49.7432724486995
345,1436182322172,41.1136299704838
346,1436182322630,49.9625513845285
347,1436182323051,54.1710817740576
348,1436182323495,43.3793235307379
349,1436182323929,40.3435543632509
350,1436182324370,53.8100902872515
351,1436182324776,44.9427229661572
352,1436182325304,44.2506371423761
353,1436182325654,42.7834780118329
354,1436182326056,46.208782779744
355,1436182326418,40.876316903268
356,1436182327297,41.7445385365525
357,1436182327739,45.7231136582203
358,1436182328138,35.5636386391165
359,1436182328547,44.1673881379513
360,1436182328932,44.4542641974132
361,1436182329370,40.8727069504091
362,1436182329851,41.0674605856428
363,1436182330322,48.6212859459468
364,1436182330755,51.3157206699122
365,1436182331202,49.7925363627506
366,1436182331652,44.9771281738183
367,1436182332099,45.999235722985
368,1436182332551,57.8569088596293
369,1436182332989,42.214275743742
370,1436182333490,46.488356256853
371,1436182333900,51.7313313199499
372,1436182334345,49.0139577613876
373,1436182334761,50.8367197813763
374,1436182335170,45.9260095831226
375,1436182335554,44.8467436929982
376,1436182335887,40.5304622503096
377,1436182336214,43.8349904774649
378,1436182336588,49.2083234018088
379,1436182337015,42.6681581597722
380,1436182337461,49.7679802193684
381,1436182337894,46.6422828030261
382,1436182338341,44.4337455302664
383,1436182338773,39.6040833788882
384,1436182339187,40.9493278077846
385,1436182339575,42.0734287217062
386,1436182339974,40.129940314515
387,1436182340417,44.8557753096692
388,1436182340867,47.259009540115
389,1436182341319,44.4667037085364
390,1436182341749,39.2768297152372
391,1436182342211,41.2912550666845
392,1436182342672,42.8541928989317
393,1436182343136,45.7917896029631
394,1436182343577,43.5649505656411
395,1436182344026,42.658541199522
396,1436182344487,53.6344929998721
397,1436182344892,54.7548144384532
398,1436182345281,38.8465073117623
399,1436182345667,45.5465163838521
400,1436182346099,60.4927487055202
401,1436182346505,37.1322068432247
402,1436182346965,45.5594711865766
403,1436182347454,42.626319689815
404,1436182347893,54.4618303920107
405,1436182348328,40.0507614492118
406,1436182348785,37.981481756254
407,1436182349224,47.5212659376831
408,1436182349694,43.5174862134352
409,1436182350125,45.422879245341
410,1436182350559,42.1304188944074
411,1436182351032,39.3155897932796
412,1436182351474,50.14400462229
413,1436182351926,44.2430999466615
414,1436182352364,44.0311249701925
415,1436182352824,37.6289353612932
416,1436182353281,41.1874706220514
417,1436182353725,50.7372543570399
418,1436182354169,41.3683699834054
419,1436182354618,38.1579103601638
420,1436182355062,44.7150907346064
421,1436182355510,43.9295664185701
422,1436182355934,45.9749767437034
423,1436182356403,37.7263213509382
424,1436182356875,43.9318528856728
425,1436182357283,43.8607818518085
426,1436182357731,55.5892315731431
427,1436182358164,37.517803434138
428,1436182358611,43.9537357550826
429,1436182359052,52.2235561290062
430,1436182359479,44.7953756504127
431,1436182359910,38.1571398976877
432,1436182360318,42.7176718174913
433,1436182360772,41.3470842138266
434,1436182361261,40.230767722005
435,1436182361709,39.2310230066113
436,1436182362161,42.185409590402
437,1436182362603,47.5327524298547
438,1436182363051,41.5979310883049
439,1436182363501,45.1148763773119
440,1436182363948,44.8906212118828
441,1436182364406,46.7720431752719
442,1436182364881,53.7633537186388
443,1436182365315,38.2619464814444
444,1436182365733,44.5313884695639
445,1436182366187,44.4698339958026
446,1436182366584,41.5950962648966
447,1436182367012,37.9391844623353
448,1436182367437,43.0687354069938
449,1436182367877,55.8923155254624
450,1436182368355,39.7448960070589
451,1436182368798,42.162140853251
452,1436182369229,42.4840751384007
453,1436182369665,53.9120945269838
454,1436182370055,39.6983944200854
455,1436182370487,43.2091458285658
456,1436182370941,47.3802282816454
457,1436182371398,40.138784368646
458,1436182371857,48.3653717704245
459,1436182372316,38.6331914478086
460,1436182372755,53.4607352770896
461,1436182373200,46.6589480211417
462,1436182373669,38.9371386830281
463,1436182374088,41.5543564597448
464,1436182374460,44.4655184559045
465,1436182374907,40.3325798489973
466,1436182375354,43.2550611855557
467,1436182375750,48.0168096922334
468,1436182376139,37.9001304362621
469,1436182376599,42.6950586987412
470,1436182377045,47.5476070552106
471,1436182377498,49.6853218043335
472,1436182377930,40.930254985875
473,1436182378368,40.1959665074282
474,1436182378764,46.1607858132622
475,1436182379162,44.6294528548577
476,1436182379634,40.8851884960907
477,1436182380075,39.7569876784435
478,1436182380473,49.7552724019218
479,1436182380914,49.9446537950093
480,1436182381354,41.093821327693
481,1436182381806,42.3188260423221
482,1436182382199,55.9065526607578
483,1436182382657,67.6612774857246
484,1436182383140,54.9768158986093
485,1436182383558,45.0763142743304
486,1436182383960,49.7409693912845
487,1436182384407,39.5525075863653
488,1436182384844,40.4174334722028
489,1436182385253,42.0103652395759
490,1436182385651,52.2729975239033
491,1436182386035,53.4243301652267
492,1436182386470,42.6897820469553
493,1436182386913,44.5884981381387
494,1436182387328,42.2251994552248
495,1436182387783,40.0903736013733
496,1436182388179,53.9140851505204
497,1436182388559,40.7652777919455
498,1436182388955,43.5442301353099
499,1436182389388,49.4867109734918
500,1436182389841,50.6598498888536
501,1436182390303,40.2517675770725
502,1436182390735,40.6278500773154
503,1436182391184,44.9939441306529
504,1436182391644,52.1936476493218
505,1436182392092,37.7424045125742
506,1436182392542,40.8343859790222
507,1436182392977,43.9092313932869
508,1436182393424,45.1851906817043
509,1436182393863,62.947344417061
510,1436182394313,70.0052004407777
511,1436182394725,70.5100086338134
512,1436182395174,44.2500506722248
513,1436182395628,39.9398934783469
514,1436182396081,44.7554199587778
515,1436182396525,44.6645073916843
516,1436182396922,38.5555341663065
517,1436182397380,50.87834705231
518,1436182397843,45.5272089731075
519,1436182398281,51.8277272832522
520,1436182398697,45.3179302157594
521,1436182399131,39.998784085714
522,1436182399534,45.0034400941199
523,1436182399961,42.2591730509921
524,1436182400445,45.7700394895292
525,1436182400845,40.9702578143165
526,1436182401311,69.150723336377
527,1436182401750,67.7787679594518
528,1436182402211,38.0671614867469
529,1436182402649,42.7322931187385
530,1436182403111,48.9096808326958
531,1436182403556,52.0926643582388
532,1436182404019,36.3117837534518
533,1436182404479,50.8478188353003
534,1436182404938,46.8397304250316
535,1436182405366,48.9451762940051
536,1436182405719,41.2547291077886
537,1436182406054,46.3498402089183
538,1436182406407,42.4559953483845
539,1436182406821,39.9082735306695
540,1436182407210,54.5218221621759
541,1436182407663,44.4946270979253
542,1436182408061,39.2544806016835
543,1436182408462,41.8484975531343
544,1436182408923,53.0545152968284
545,1436182409407,41.840058207146
546,1436182409838,38.7178697521592
547,1436182410271,43.8601205865177
548,1436182410663,59.2211234372041
549,1436182411037,37.9436377485744
550,1436182411482,41.3586544898356
551,1436182411926,58.4323104999798
552,1436182412370,43.9403829355405
553,1436182412818,38.8272998461519
554,1436182413286,42.9660781563821
555,1436182413745,43.3209927782291
556,1436182414223,48.9397823956096
557,1436182414593,38.5477972233071
558,1436182415007,43.2597221896001
559,1436182415460,52.6588454352566
560,1436182415861,41.6639447936384
561,1436182416344,37.3032681304753
562,1436182416785,47.6100010616114
563,1436182417181,50.0614215184009
564,1436182417634,39.5603293476846
565,1436182418071,40.9889281766198
566,1436182418470,42.9608285217925
567,1436182418896,42.6546861187128
568,1436182419309,44.4847026773057
569,1436182419768,46.4586541368391
570,1436182420218,46.5677104613133
571,1436182420647,44.5013469784372
572,1436182421009,41.5263366691894
573,1436182421449,51.6692923567671
574,1436182421909,51.5956563630561
575,1436182422347,40.8564176486711
