id,attr_time,attr_db
1,1436182170565,24.4063084784356
2,1436182171253,23.5622770024794
3,1436182171873,22.9489869334065
4,1436182172572,24.6412365955938
5,1436182173309,25.5145319286032
6,1436182174040,26.60642016238
7,1436182174780,57.9089969910214
8,1436182175519,52.3656654899051
9,1436182176248,67.8369388638967
10,1436182176986,60.4995332766285
11,1436182177628,69.3055861269406
12,1436182178358,65.7323801723717
13,1436182179100,65.9478159238009
14,1436182179846,72.4107006175713
15,1436182180575,59.6064037306769
16,1436182181297,65.8553521742375
17,1436182181993,64.6383314592062
18,1436182182733,52.4296799422719
19,1436182183458,67.9197697885464
20,1436182184213,65.9011785113889
21,1436182184950,61.7885136170805
22,1436182185676,72.3563886198084
23,1436182186376,58.5236591416673
24,1436182187107,70.8542965952549
25,1436182187870,70.2963096921308
26,1436182188555,60.5472179504366
27,1436182189229,69.9576949004377
28,1436182189977,60.7655749736601
29,1436182190728,69.3237669237485
30,1436182191415,70.5611227568877
31,1436182192085,59.2898702990762
32,1436182192821,68.0350651800928
33,1436182193541,63.8007394281774
34,1436182194299,65.1165996690226
35,1436182195035,69.4149993043194
36,1436182195770,61.0520829546565
37,1436182196497,69.7340465543243
38,1436182197219,69.9682366044815
39,1436182197888,62.793450460789
40,1436182198609,74.1304418988446
41,1436182199305,59.9840597821673
42,1436182199986,69.3894278456093
43,1436182200756,68.6664637801995
44,1436182201438,60.7740797577304
45,1436182202164,70.5268565471088
46,1436182202925,65.813441289844
47,1436182203590,65.5047343427775
48,1436182204332,72.1142647497497
49,1436182205080,57.1487740430167
50,1436182205806,68.1100872297406
51,1436182206549,68.4705747884021
52,1436182207288,57.4225759601894
53,1436182208061,68.4667885213154
54,1436182208805,62.9148967381863
55,1436182209503,67.5721248615131
56,1436182210187,73.4311880698312
57,1436182210937,59.7674574829883
58,1436182211685,65.990567506437
59,1436182212449,68.6464265584756
60,1436182213157,56.8469598736391
61,1436182213925,67.7458413693138
62,1436182214761,70.6599128983161
63,1436182215521,57.0161240901628
64,1436182216344,63.0288004266164
65,1436182216984,67.6772855779725
66,1436182217736,59.5323358749304
67,1436182218451,68.2331881652906
68,1436182219154,62.370470336715
69,1436182219843,66.8130639918196
70,1436182220552,73.1801685369307
71,1436182221284,58.8768288121196
72,1436182222020,70.5118243051673
73,1436182222738,69.4871562912254
74,1436182223464,54.5734360301909
75,1436182224198,66.7158168366736
76,1436182224932,66.1511059836181
77,1436182225665,61.2757875400667
78,1436182226410,69.9396343416294
79,1436182227151,63.0455889366432
80,1436182227889,66.2759231218442
81,1436182228613,72.245648468378
82,1436182229291,57.1025688191035
83,1436182230043,67.8531093474159
84,1436182230777,66.9562393642032
85,1436182231504,57.7785595575262
86,1436182232286,70.2987954497438
87,1436182233148,67.3653673760595
88,1436182233868,57.7378304555139
89,1436182234613,68.4900629702314
90,1436182235341,66.9420740191824
91,1436182236093,63.1073731755531
92,1436182236825,71.3447941384585
93,1436182237571,63.6413535428454
94,1436182238285,64.014941653884
95,1436182239014,70.8269077266552
96,1436182239738,57.7123935806527
97,1436182240425,67.737272615538
98,1436182241153,65.1250021381281
99,1436182241874,64.2392373907029
100,1436182242616,71.3208702738087
101,1436182243365,65.8423554533204
102,1436182244048,68.5606074943045
103,1436182244782,68.2709037493347
104,1436182245506,60.7930910554772
105,1436182246297,67.8817349444539
106,1436182246939,65.4255834503798
107,1436182247602,67.7352405683082
108,1436182248252,64.5642974676313
109,1436182248946,62.9001711037241
110,1436182249669,71.9570979590553
111,1436182250363,58.9493192843954
112,1436182251038,66.7518899922693
113,1436182251781,63.2615478917179
114,1436182252525,66.1367252169292
115,1436182253217,66.2506911390056
116,1436182253894,54.9551414982317
117,1436182254567,73.0258022001865
118,1436182255302,62.3545138762504
119,1436182256030,70.6032358650376
120,1436182256768,68.8155720773636
121,1436182257526,58.5793847989736
122,1436182258328,66.2413615449542
123,1436182259050,63.7644755447231
124,1436182259789,64.570546036544
125,1436182260459,71.2292316671888
126,1436182261108,65.9426747054556
127,1436182261886,72.7676241147118
128,1436182262604,62.1936180034681
129,1436182263183,65.3666689032714
130,1436182263880,58.4227225667113
131,1436182264608,66.4072142452482
132,1436182265331,71.4482886136218
133,1436182266052,66.2368074639233
134,1436182266780,72.0205505223234
135,1436182267531,60.3394768501199
136,1436182268321,66.547058123125
137,1436182269066,69.0548694808542
138,1436182269798,67.4391600215475
139,1436182270488,70.1465346039692
140,1436182271179,61.3478517859903
141,1436182271926,67.2714825343251
142,1436182272755,70.9548427326902
143,1436182273470,58.2219481152793
144,1436182274138,71.0395680366534
145,1436182274860,67.9785690294886
146,1436182275544,66.066055789637
147,1436182276287,70.9657718807125
148,1436182277000,56.5699882408479
149,1436182277780,68.2349947690446
150,1436182278519,68.2075875358379
151,1436182279314,56.1013218504109
152,1436182280037,66.309346842081
153,1436182280737,63.6563762413281
154,1436182281504,68.2928721506359
155,1436182282249,71.6853790523889
156,1436182282967,56.6766593301391
157,1436182283637,72.0401484083381
158,1436182284386,68.2209733326722
159,1436182285094,62.8712146910768
160,1436182285820,70.9537067112799
161,1436182286537,58.2917528422471
162,1436182287280,70.5757273569585
163,1436182288030,67.620713794516
164,1436182288793,55.3718641162065
165,1436182289531,69.1223855903837
166,1436182290272,72.6619816589075
167,1436182290982,63.0377922052868
168,1436182291614,73.4026749801235
169,1436182292370,55.6239544886185
170,1436182293051,70.0863044667174
171,1436182293697,69.3629265104894
172,1436182294431,62.7156899505504
173,1436182295156,73.7014395801062
174,1436182295873,60.4730149478216
175,1436182296598,71.2030873707887
176,1436182297344,71.4966348493286
177,1436182298079,58.1650841400081
178,1436182298766,70.3190782063926
179,1436182299523,67.3544568237428
180,1436182300236,65.1069307800898
181,1436182300938,73.2595223866331
182,1436182301567,60.8109317645175
183,1436182302280,70.8941460256132
184,1436182303016,60.5036575882891
185,1436182303747,65.3301866833808
186,1436182304415,69.1504490457321
187,1436182305120,57.9101032806241
188,1436182305844,67.1196791040225
189,1436182306585,67.6214279338097
190,1436182307330,64.2295262577905
191,1436182308070,70.0968705143381
192,1436182308792,57.4434379086514
193,1436182309530,69.5481027642873
194,1436182310268,67.6975985754301
195,1436182310996,55.1463656216433
196,1436182311696,68.7908546729697
197,1436182312358,62.9043850325892
198,1436182313083,66.7093919608192
199,1436182313825,70.8443988738442
200,1436182314516,55.6953547215395
201,1436182315205,66.7130923654295
202,1436182315855,59.7983282637341
203,1436182316540,66.3643568613074
204,1436182317278,69.7378076064025
205,1436182318009,56.5890900895871
206,1436182318706,68.0558883880998
207,1436182319436,62.1738227132917
208,1436182320158,64.2140118274594
209,1436182320886,71.1634447948198
210,1436182321549,60.2370903048185
211,1436182322315,68.4259296010641
212,1436182323045,67.3232947006629
213,1436182323775,67.2273369642035
214,1436182324499,69.907307224362
215,1436182325207,52.5517223784788
216,1436182325900,68.6607007904644
217,1436182326591,68.3728685255027
218,1436182327334,66.546468967578
219,1436182328079,71.1623890629282
220,1436182328819,56.9089462189255
221,1436182329560,68.6782754459031
222,1436182330284,70.75166207633
223,1436182331003,60.0033070632449
224,1436182331697,72.2618058500665
225,1436182332304,61.5813213075722
226,1436182333015,67.7705685449783
227,1436182333736,66.0137540668561
228,1436182334425,64.8059766578843
229,1436182335140,70.74156272432
230,1436182335878,56.2916254181897
231,1436182336633,69.4786144588889
232,1436182337369,70.5268145785392
233,1436182338085,61.9654207416673
234,1436182338787,71.402745860728
235,1436182339513,61.5875642181876
236,1436182340223,67.3912729211579
237,1436182340881,69.8624698554453
238,1436182341615,60.8579760687271
239,1436182343652,69.2245060100518
240,1436182344247,67.0489055955691
241,1436182344929,68.096128394779
242,1436182345689,70.5658686282152
243,1436182346348,64.6786153603077
244,1436182347177,71.2946534152158
245,1436182347923,66.369388951195
246,1436182348662,63.7547807229661
247,1436182349390,70.9136289804108
248,1436182350110,63.7411670553824
249,1436182350846,66.5802445607885
250,1436182351605,69.3912026119907
251,1436182352269,56.1888157388066
252,1436182353006,70.4020697256976
253,1436182353765,70.8840611850617
254,1436182354428,65.0468009774744
255,1436182355820,52.5763242841648
256,1436182356549,70.7920062406286
257,1436182357333,66.5237385254885
258,1436182358067,57.6211389232458
259,1436182358798,70.3469646401633
260,1436182359525,66.1696808116725
261,1436182360265,64.7503296653414
262,1436182360982,69.9397111387359
263,1436182361705,52.8871479945276
264,1436182362445,72.009343462703
265,1436182363104,63.4361284702802
266,1436182363839,65.5252274765073
267,1436182364547,71.001277496511
268,1436182365277,57.3110756608172
269,1436182366023,70.0996409658821
270,1436182366742,71.398948463865
271,1436182367455,60.7420705391416
272,1436182368178,72.689194588465
273,1436182368897,57.4930950211112
274,1436182369604,67.7585474675797
275,1436182370947,67.1898721543051
276,1436182371670,69.6171643638641
277,1436182372376,52.2196107050997
278,1436182373100,70.5926163332206
279,1436182373791,58.0264365202629
280,1436182374520,69.3129542587488
281,1436182375236,69.6207720681336
282,1436182375959,60.3832943521993
283,1436182378035,69.5303319382221
284,1436182378722,68.24853814161
285,1436182379440,59.7065205004841
286,1436182380154,71.1575895302804
287,1436182380885,61.5438939863317
288,1436182381620,67.2334159548645
289,1436182382303,69.5939330922235
290,1436182382895,64.7016871566995
291,1436182383572,72.7087210179008
292,1436182384281,59.3104981474917
293,1436182384995,67.1668390358198
294,1436182385775,66.6203369815626
295,1436182386484,62.6386110137804
296,1436182387151,71.2168726012327
297,1436182387941,62.3183845587723
298,1436182388607,68.2385738287416
299,1436182389317,67.0067067474621
300,1436182390042,64.0888575090171
301,1436182390786,74.0229438966407
302,1436182391529,56.1968699555116
303,1436182392253,71.6510216387285
304,1436182393055,68.4553570853414
305,1436182393795,54.4076698230394
306,1436182394526,71.0380227985622
307,1436182395247,71.9797705680199
308,1436182395997,65.1802709410643
309,1436182396743,71.7640616143575
310,1436182397465,53.4649391166504
311,1436182398111,71.0698402702729
312,1436182398808,66.6196993719919
313,1436182399547,66.9745826821878
314,1436182400285,71.08012584019
315,1436182401010,56.2868208299427
316,1436182401759,69.5426228907932
317,1436182402547,67.2563995385522
318,1436182403235,61.7218544623565
319,1436182403886,71.6396992565014
320,1436182404663,60.8540512071073
321,1436182405384,67.9064829386147
322,1436182406108,68.0863201321509
323,1436182406874,58.4151069652752
324,1436182407620,71.6846368205752
325,1436182408260,60.5458889523593
326,1436182408997,69.3152823345135
327,1436182409744,68.5467590048963
328,1436182410473,59.190439217597
329,1436182411229,71.4015813990579
330,1436182411951,68.1725201155804
331,1436182412692,62.2737452723774
332,1436182413476,72.2857411059721
333,1436182414167,63.4312781071188
334,1436182414893,67.348148150727
335,1436182415650,70.6640858973595
336,1436182416366,54.5632712761106
337,1436182417092,68.8372099786423
338,1436182417836,68.0732105994533
339,1436182418451,63.6026031368227
340,1436182419117,67.3543407249807
341,1436182419836,58.2099150974869
342,1436182420558,68.5060614847396
343,1436182421281,61.3777491828549
344,1436182422003,66.5582254121456
345,1436182422725,71.655819652112
346,1436182423398,55.5355524026336
347,1436182424047,72.20704942075
348,1436182424735,58.9421332737125
349,1436182425454,68.7927609648658
350,1436182426176,69.5042709355582
351,1436182426884,60.8949863955764
352,1436182427616,72.1656164433503
353,1436182428379,59.5382314294721
354,1436182429003,66.2597943528888
355,1436182429696,67.538470341041
356,1436182430437,64.2641738652964
357,1436182431169,71.8667413963707
358,1436182431911,61.1685759838497
359,1436182432652,72.1595914629593
360,1436182433403,66.2549318454745
361,1436182434148,52.9540999056972
362,1436182434807,70.8293398140838
363,1436182435527,65.8792323839754
364,1436182436252,66.4840883127748
365,1436182437007,68.8452910983968
366,1436182437763,63.0089389159897
367,1436182438441,70.4443587156564
368,1436182439175,69.4139589421671
369,1436182439909,66.402262029442
370,1436182440646,72.0049873576184
371,1436182441380,55.4733172135947
372,1436182442118,65.9530068307339
373,1436182442911,66.7590152464167
374,1436182443656,60.3942456801479
375,1436182444304,72.3487205421059
376,1436182445033,50.6858441553202
377,1436182445793,69.5513249817733
378,1436182446535,68.0574339378679
379,1436182447275,65.8266987268054
380,1436182447903,72.9141952192514
381,1436182448601,55.70694432482
382,1436182449340,67.895437535851
383,1436182450076,67.2934993456389
384,1436182450818,65.7527456295935
385,1436182451550,71.2973266427154
386,1436182452294,64.8725333592327
387,1436182453031,69.9555403135178
388,1436182453755,51.6910683616745
389,1436182454475,67.9915141476683
390,1436182455184,64.6243927339011
391,1436182455852,69.5904231929651
392,1436182456630,68.6629080315644
393,1436182457385,58.0251004722328
394,1436182458105,68.7794870998495
395,1436182458946,68.1767263332933
396,1436182459664,65.1671438486371
397,1436182460392,72.045662006894
398,1436182461133,60.3699575347228
399,1436182461867,71.0664412619966
400,1436182462684,69.6449188379312
401,1436182463508,59.3219092696618
402,1436182464273,69.0407734807474
403,1436182464983,71.513789041392
404,1436182465646,64.4101598148161
405,1436182466368,72.3697465897834
406,1436182467174,60.1320682821605
407,1436182467897,67.5487685492337
408,1436182468634,71.4263752931983
409,1436182469313,62.4443854951017
410,1436182470011,71.8710316739762
411,1436182470737,54.1012698496273
412,1436182471502,68.5850655083959
413,1436182472243,70.7026741220868
414,1436182472974,60.0262633498379
415,1436182473734,69.5532337298841
416,1436182474472,61.4903120329374
417,1436182475211,67.0994327304498
418,1436182475864,69.5054896036006
419,1436182476583,59.0066747427474
420,1436182477308,70.8974119256701
421,1436182478053,60.9989597128168
422,1436182478804,64.877725977567
423,1436182479524,70.594713831148
424,1436182480266,50.716861676515
425,1436182481000,69.8104121682454
426,1436182481749,70.0918010195067
427,1436182482481,63.1347148595213
428,1436182483280,72.3897645725287
429,1436182483941,54.0273030125031
430,1436182484614,66.9056801761147
431,1436182485335,67.5662987869793
432,1436182485998,72.5192822042266
433,1436182486753,69.6542442599047
434,1436182487481,58.9260761865101
435,1436182488260,72.1319987296816
436,1436182488993,67.3296908946874
437,1436182489740,67.371772849148
438,1436182490474,70.6507970310088
439,1436182491212,55.8818406256653
440,1436182491935,68.8943669109507
441,1436182492674,72.540139375175
442,1436182493424,66.5232250267159
443,1436182494122,69.7152270166423
444,1436182494809,61.3342339018479
445,1436182495497,72.4241474564066
446,1436182496153,57.6341067542294
447,1436182496931,68.2120783064906
448,1436182497759,69.8928102092196
449,1436182498484,64.7317180658324
450,1436182499197,70.1314862585684
451,1436182499913,62.4873235655265
452,1436182500654,71.1245328650844
453,1436182501368,65.5575908739684
454,1436182502089,67.1300210645423
455,1436182502889,71.2899359016863
456,1436182503629,56.2165876639473
457,1436182504265,71.8765559868225
458,1436182504975,56.8345096306965
459,1436182505694,69.996689314631
460,1436182506401,62.4258705254408
461,1436182507132,66.6300369454311
462,1436182507921,69.6927646527291
463,1436182508682,55.8608699998094
464,1436182509407,64.989646219431
465,1436182510157,65.1242577925955
466,1436182510874,61.6397860273893
467,1436182511616,70.0899778467925
468,1436182512403,56.2168926749103
469,1436182513137,71.1324516844344
470,1436182513879,65.553464043135
471,1436182514634,63.723385076768
472,1436182515365,71.2682760961831
473,1436182516084,59.6092034392265
474,1436182516748,69.8640564138683
475,1436182517472,57.7188031635793
476,1436182518205,68.5869183255894
477,1436182518940,69.9373758559219
478,1436182519743,60.8366974305056
479,1436182520458,72.1513629257265
480,1436182521210,57.4103827440826
481,1436182521946,66.5854372106882
482,1436182522717,70.4526634361128
483,1436182523438,64.2939942860616
484,1436182524197,73.5260731191897
485,1436182524924,56.358679110523
486,1436182525661,67.5188312968887
487,1436182526339,69.221300150456
488,1436182526985,68.9709321748906
489,1436182527734,70.4593435050195
490,1436182528421,56.9153119438875
491,1436182529161,72.0637161560429
492,1436182529888,56.5377638938406
493,1436182530695,68.826296841114
494,1436182531434,67.3523489574757
495,1436182532172,69.094135695749
496,1436182532938,67.9558214475678
497,1436182533742,56.0633490331436
498,1436182534479,66.7595870305199
499,1436182535232,52.1397455531579
500,1436182535946,70.1742217871152
501,1436182536630,67.4176039202952
502,1436182537273,69.6802684523287
503,1436182538009,71.1852110241264
504,1436182538753,59.8817282678747
505,1436182539475,70.9530099957742
506,1436182540134,63.6726938390951
507,1436182540858,69.0027264601298
508,1436182541454,59.8790747610067
509,1436182542146,70.2540595652525
510,1436182542887,64.5309386493589
511,1436182543615,68.3047400056508
512,1436182544316,71.2762529107355
513,1436182544983,63.1889909333455
514,1436182545702,73.1463105210987
515,1436182546360,60.3828868439314
516,1436182547810,66.458160825702
517,1436182548495,67.3758504627327
518,1436182549215,70.6727355692517
519,1436182549947,65.6111104433043
520,1436182550715,69.2332062275248
521,1436182551440,61.983531778945
522,1436182552151,65.6940309410844
523,1436182552889,69.4424876711806
524,1436182553613,57.8718533614979
525,1436182554371,65.316924371803
526,1436182555094,57.1692567055625
527,1436182555829,64.9879389312386
528,1436182556548,70.2881201697235
529,1436182557307,54.9434739847021
530,1436182558050,70.9850330209104
531,1436182558800,61.1207711687077
532,1436182559547,69.1270777819646
533,1436182560274,66.6490273700985
534,1436182560993,63.3939568260683
535,1436182561706,69.5162687347136
536,1436182562348,56.2051533186636
537,1436182563985,70.5725927718623
538,1436182564580,62.2304377078438
539,1436182565238,72.0182085541707
540,1436182565962,64.5572242238996
541,1436182566734,71.5182538749699
542,1436182567413,66.9168260798633
543,1436182568054,66.6506978314189
544,1436182568826,72.0085087980129
545,1436182569503,59.8466533447689
546,1436182570180,72.5844020039722
547,1436182570904,55.7918136076659
548,1436182571641,69.6043826971066
549,1436182572380,67.654620834466
550,1436182573139,65.4255840590729
551,1436182573882,72.7709932619446
552,1436182574621,60.1369413500388
553,1436182575361,66.671396166289
554,1436182576105,69.9989205316302
555,1436182576833,59.8289461326805
556,1436182577518,72.6571363955201
557,1436182578181,56.2713338743613
558,1436182578870,70.9469601256593
559,1436182579611,64.9633878149374
560,1436182580332,66.2485536160477
561,1436182581075,66.3414285996179
562,1436182581793,60.3286867166943
563,1436182582534,67.7408179803025
564,1436182583264,58.9499647384197
565,1436182584005,70.3000880981745
566,1436182584717,68.6092367909138
567,1436182585363,65.3157040175408
568,1436182587383,72.2780416982281
569,1436182588052,52.0676698836361
570,1436182588722,67.9563418367193
571,1436182589455,59.7660967923185
572,1436182590151,72.0667471383829
573,1436182590839,67.4526258487556
574,1436182591598,60.8039488748549
575,1436182592359,71.8043778503452
