id,attr_time,attr_db
1,1436182170262,31.6147083070263
2,1436182171035,31.593863947798
3,1436182171699,32.7040449851578
4,1436182172450,31.4498747958063
5,1436182173197,31.754764512717
6,1436182173942,35.4826039509876
7,1436182174639,32.4165256039323
8,1436182175268,36.2392457459927
9,1436182175909,37.0045357187772
10,1436182176632,37.2430931978714
11,1436182177358,38.5686240347019
12,1436182178025,36.1473939651894
13,1436182178695,36.6751942887166
14,1436182179455,36.6072529924654
15,1436182180234,36.1063808595295
16,1436182180954,35.7397490364438
17,1436182181695,36.4507776389009
18,1436182182419,37.3892090697778
19,1436182183176,38.5407627070682
20,1436182183916,36.6040713914852
21,1436182184626,36.83869258428
22,1436182185379,38.6921178046537
23,1436182186095,38.654880138966
24,1436182186838,57.2810297746916
25,1436182187568,67.9297382034763
26,1436182188304,38.5936159218885
27,1436182189048,38.1101333557646
28,1436182189766,37.2385752417104
29,1436182190386,34.1757577889111
30,1436182191108,37.9512510003058
31,1436182191837,36.8057539549956
32,1436182192580,37.7664580552347
33,1436182193326,38.3457664697398
34,1436182194081,50.2381311134902
35,1436182194823,34.9375216555297
36,1436182195563,33.8206324513702
37,1436182196302,32.2934713609573
38,1436182197066,29.2402089142937
39,1436182197792,31.9623017761632
40,1436182198516,29.901337480444
41,1436182199295,32.5787844290839
42,1436182200057,42.4288015568953
43,1436182200788,35.7912138875302
44,1436182201497,27.7128438191356
45,1436182202195,32.3917068656105
46,1436182202762,30.5873070164213
47,1436182203441,31.6652164352429
48,1436182204201,32.770673207413
49,1436182204932,41.7310974666393
50,1436182205695,36.4503535129596
51,1436182206453,39.5461264270089
52,1436182207158,31.898978018164
53,1436182207773,35.0787615097175
54,1436182208435,34.8641503176011
55,1436182209169,70.4794409295237
56,1436182209911,34.8524409318315
57,1436182210651,30.9506248139602
58,1436182211451,28.2768828460813
59,1436182212035,33.6409136541491
60,1436182212700,30.4426097209914
61,1436182213442,32.6311576192877
62,1436182214179,33.1815351806609
63,1436182214959,28.6805835467851
64,1436182215672,30.1961816902003
65,1436182216405,30.0536046490701
66,1436182217164,32.2605365385211
67,1436182217883,33.9848386920376
68,1436182218612,34.0146196704556
69,1436182219338,35.0989822190726
70,1436182220058,33.053679235999
71,1436182220730,31.8630882916338
72,1436182221494,44.271719280692
73,1436182222217,34.3628838007716
74,1436182222958,28.3605630995861
75,1436182223676,33.1907182349656
76,1436182224470,32.4032771120073
77,1436182225152,34.5053625063101
78,1436182225883,33.289822094965
79,1436182226632,36.0078906132366
80,1436182227355,32.6764397159884
81,1436182228152,35.8545839982873
82,1436182228825,33.8554916583724
83,1436182229514,34.4791942824977
84,1436182230241,35.8407587776595
85,1436182230987,34.8010005614429
86,1436182231799,34.6613397375084
87,1436182232463,34.3500720215276
88,1436182233183,36.9107322602113
89,1436182233883,35.8156701427202
90,1436182234670,36.9045687444332
91,1436182235475,35.7819100826121
92,1436182236219,34.7159784108692
93,1436182236982,36.2491064064568
94,1436182237723,35.4674549940259
95,1436182238475,37.2643677190222
96,1436182239235,33.7868206150441
97,1436182239996,36.8220842208706
98,1436182240728,35.5193353326597
99,1436182241484,35.5100750716343
100,1436182242240,36.6877549467102
101,1436182242992,35.7007687033071
102,1436182243783,53.2792878189015
103,1436182244546,41.8332335370957
104,1436182245346,40.0248723796866
105,1436182245964,37.1920270851607
106,1436182246642,35.8660906881788
107,1436182247369,43.1426904023794
108,1436182248145,42.657487362908
109,1436182248903,38.3798563881689
110,1436182249729,35.3448595731504
111,1436182250462,37.7408654958182
112,1436182251204,36.772982583645
113,1436182251922,36.7367758736794
114,1436182252582,36.8747753468206
115,1436182253290,34.4976142886423
116,1436182254883,36.8601216373709
117,1436182255550,35.6998576665863
118,1436182256264,33.0658415320579
119,1436182256996,38.2189769974541
120,1436182257726,36.8221583210534
121,1436182258466,46.4982833779401
122,1436182259226,38.515477792315
123,1436182259896,36.2916264717351
124,1436182261222,35.0265482840328
125,1436182261849,37.0572310690031
126,1436182262538,37.5594910064047
127,1436182263270,37.9545318133338
128,1436182263982,42.2766736034361
129,1436182264673,36.0730960257597
130,1436182265412,37.3262280560188
131,1436182266127,36.1019997187175
132,1436182268064,37.9679638206038
133,1436182268794,40.5249035660554
134,1436182269574,37.2147670327206
135,1436182270293,37.3234978808761
136,1436182271029,34.2424888774658
137,1436182272575,37.057003466857
138,1436182273309,33.9690560887041
139,1436182274070,35.0516558181296
140,1436182274877,35.1032979289932
141,1436182275640,34.5643765008521
142,1436182276362,37.9682286505836
143,1436182277135,32.7289170976503
144,1436182277886,41.0904870973213
145,1436182278565,34.2154574041129
146,1436182279319,37.1622869425435
147,1436182279962,35.1092463893101
148,1436182280677,40.1128391113115
149,1436182281447,40.9030162338623
150,1436182282229,34.6822075822078
151,1436182282978,35.0096489025252
152,1436182283738,40.5697296266694
153,1436182284462,39.2471275172163
154,1436182285191,38.1628119925622
155,1436182285936,45.6192301624866
156,1436182286677,37.8029706562402
157,1436182287419,39.1402155271441
158,1436182288154,37.8951387308096
159,1436182288888,36.2689902067812
160,1436182289712,40.7315830137289
161,1436182290440,38.5802904237009
162,1436182291060,35.6195608950851
163,1436182291701,37.1587197413889
164,1436182292324,35.9972456016315
165,1436182292984,47.853752410225
166,1436182293718,42.8648390687124
167,1436182294468,41.6082098865064
168,1436182295187,35.4630603206135
169,1436182295820,34.8877582493856
170,1436182296560,39.0279607101283
171,1436182297304,39.4233715664495
172,1436182298056,37.45567612813
173,1436182298778,40.0803773745254
174,1436182299487,41.334031414698
175,1436182300209,40.2231829925684
176,1436182300943,45.4785565110958
177,1436182301734,55.7044531528954
178,1436182302398,61.7356000891202
179,1436182303002,44.3582302390362
180,1436182303764,39.9993742916524
181,1436182304507,37.5579528444503
182,1436182305248,35.8077648756082
183,1436182306008,38.0774025087833
184,1436182306747,37.5297986127096
185,1436182307489,64.2040507550435
186,1436182308219,37.5707199864367
187,1436182308960,59.4518408577389
188,1436182309680,35.8230706100229
189,1436182310381,36.120652197138
190,1436182311116,39.3296515013094
191,1436182311849,43.2150944426135
192,1436182312536,38.658882258781
193,1436182313268,35.7739638453063
194,1436182313895,35.1897736832552
195,1436182314632,34.7087578245566
196,1436182315342,37.8243585050333
197,1436182316043,39.025769128572
198,1436182316773,55.7270426777342
199,1436182317517,46.51528253003
200,1436182318257,61.7701925615933
201,1436182318908,39.3002599510622
202,1436182319640,52.5844450996293
203,1436182320385,38.2072006478331
204,1436182321124,42.7699783246779
205,1436182321855,56.1634823176285
206,1436182322609,38.2256559395726
207,1436182323336,36.7252875243722
208,1436182324057,34.5692068956686
209,1436182324749,49.6777459600701
210,1436182325384,39.0441397495039
211,1436182326158,35.6471574234613
212,1436182326873,57.2838644378885
213,1436182327572,49.6276998222106
214,1436182328266,44.5960102883599
215,1436182329000,60.110129086328
216,1436182329729,37.8660525635347
217,1436182330478,60.737665721886
218,1436182331235,47.5096732560732
219,1436182331982,44.17944636342
220,1436182332685,49.5479409457231
221,1436182333269,66.4533833524458
222,1436182333925,64.7085043907648
223,1436182334658,62.7124560046219
224,1436182335381,36.8058413782322
225,1436182336067,43.6491909748117
226,1436182336641,59.221388944192
227,1436182337312,38.9493847499357
228,1436182338069,59.6332841553043
229,1436182338727,65.6480103394232
230,1436182339470,37.0109749464846
231,1436182340210,68.2826749326271
232,1436182340944,61.5328814342108
233,1436182341653,60.150945253044
234,1436182342312,65.398533572795
235,1436182343046,40.1324659286619
236,1436182343775,65.0084868617122
237,1436182344532,38.4429728954053
238,1436182345255,36.2416457206765
239,1436182345979,45.1401183557786
240,1436182346732,58.6892438741788
241,1436182347451,60.2743857779676
242,1436182348124,57.0956329584272
243,1436182348863,35.798133659744
244,1436182349598,71.0559592258827
245,1436182350311,35.6016796358683
246,1436182351053,34.1071706455701
247,1436182351778,30.1671846524188
248,1436182352619,60.9709110212468
249,1436182353405,48.4306462482593
250,1436182354066,57.4201128884375
251,1436182354729,43.2710709900948
252,1436182355461,63.6069494949518
253,1436182356025,53.0820631115214
254,1436182356587,67.0073687500122
255,1436182357154,41.2216427149763
256,1436182357805,64.1930343370595
257,1436182358546,37.194890744201
258,1436182359314,59.224461126362
259,1436182360057,36.9047885385424
260,1436182360631,35.5892049015865
261,1436182361208,43.309038199146
262,1436182361774,31.0819742797738
263,1436182362337,53.3232358756088
264,1436182363892,39.8424296777847
265,1436182364597,37.5109335563127
266,1436182365318,34.8432666044677
267,1436182366068,51.3947957060495
268,1436182366755,66.9681633042643
269,1436182367332,35.0851919477045
270,1436182367887,48.8682245114099
271,1436182368438,62.6766985517445
272,1436182369058,40.974171457887
273,1436182369798,37.7703797353717
274,1436182370535,35.5808697788412
275,1436182371273,34.6750878845779
276,1436182371853,33.9869281896952
277,1436182372398,47.5604336656103
278,1436182372958,64.1047145901215
279,1436182374335,61.5831307370744
280,1436182375078,57.2847272733079
281,1436182375800,36.1678932636682
282,1436182376475,57.3200873948094
283,1436182377177,60.1086208497944
284,1436182377922,32.7497441721024
285,1436182378495,35.0999290610868
286,1436182379047,57.9859844873092
287,1436182379600,61.5842679496329
288,1436182380194,61.6117739820967
289,1436182380838,39.2044497595242
290,1436182381544,64.1298854797551
291,1436182382254,70.513907662626
292,1436182382904,54.1496800990007
293,1436182383503,73.004158464648
294,1436182384073,36.7774688656902
295,1436182384628,64.3784776934827
296,1436182385210,61.2147111606218
297,1436182385803,38.5859005495626
298,1436182387283,55.5762485181735
299,1436182387931,60.8915994695183
300,1436182388701,68.9654529120344
301,1436182389510,48.2696965436156
302,1436182390238,46.0268203997644
303,1436182390967,57.5264346028354
304,1436182391685,56.6223149773018
305,1436182392404,65.0775834887048
306,1436182393196,54.6331094250137
307,1436182393907,68.4945343192222
308,1436182394657,62.5641435066675
309,1436182395374,38.3901433852629
310,1436182396104,33.6173342965696
311,1436182396830,45.9930942926937
312,1436182397607,64.3068736246628
313,1436182398288,59.2498789302398
314,1436182398903,72.3704596098995
315,1436182399647,42.093961855567
316,1436182400373,58.5526013186508
317,1436182401129,60.8517600482637
318,1436182401918,60.0236591362579
319,1436182402580,39.7446987909324
320,1436182403275,61.8520847518318
321,1436182404043,41.8469828530883
322,1436182404772,64.7473549541701
323,1436182405524,38.6599847248367
324,1436182406272,35.1367355231777
325,1436182406929,38.7647464161721
326,1436182407664,58.2549791854634
327,1436182408404,55.1608107134066
328,1436182409211,34.9130875210636
329,1436182409946,41.3442037399685
330,1436182410682,60.9332108435748
331,1436182411438,69.2880554680887
332,1436182412149,66.5683585320165
333,1436182412846,36.7478459844942
334,1436182413565,64.8648495088633
335,1436182414334,67.3579417401929
336,1436182415000,72.0605604447855
337,1436182415733,37.9001282505737
338,1436182416453,63.1938520626668
339,1436182417215,63.3814045619475
340,1436182417975,63.5019826047336
341,1436182418712,63.4743260928353
342,1436182419455,39.733584115014
343,1436182420258,57.9955472007967
344,1436182420908,38.2225270567335
345,1436182421642,47.4935981542933
346,1436182422389,64.3222348775002
347,1436182423140,47.5115187839615
348,1436182423884,56.2220341750529
349,1436182424625,37.7786700275344
350,1436182425453,47.315097255017
351,1436182426214,66.8133643282683
352,1436182426988,47.2569547004862
353,1436182427578,44.1328958427438
354,1436182428228,44.6460760616436
355,1436182428960,33.5029966141191
356,1436182429740,65.4147834230596
357,1436182430471,64.97242683445
358,1436182431226,42.7494509762814
359,1436182431991,61.7186383620567
360,1436182432726,71.2957852723117
361,1436182433456,60.5457345522884
362,1436182434200,33.3867441028929
363,1436182434825,40.4595108896673
364,1436182435537,31.8365695622497
365,1436182436276,65.9745416397395
366,1436182436996,57.0915424224444
367,1436182437717,42.7805188890445
368,1436182438409,37.0537444852446
369,1436182439154,37.5447212043572
370,1436182439887,50.8524888494491
371,1436182440622,52.3784825008965
372,1436182441338,59.5868692466061
373,1436182442102,39.4940379200908
374,1436182442828,63.8432726957522
375,1436182443560,69.180080449521
376,1436182444325,61.724530622307
377,1436182445100,64.0656102697989
378,1436182445846,58.3026095130208
379,1436182446597,59.4427602338036
380,1436182447339,38.4908645593016
381,1436182448038,63.0667547631432
382,1436182448674,59.6022018215223
383,1436182449400,44.0738740900762
384,1436182450156,70.3133194458483
385,1436182450874,73.0149671969458
386,1436182451605,41.6958597843265
387,1436182452340,65.4952338051754
388,1436182453066,67.9947113735039
389,1436182453729,39.7397144963116
390,1436182454446,33.0662601393691
391,1436182455046,37.7532559619711
392,1436182455712,37.7038280981532
393,1436182456437,54.1707833392732
394,1436182457163,34.2863836772579
395,1436182459182,65.4700840196853
396,1436182459771,50.5897202900165
397,1436182460441,33.4290319452915
398,1436182461200,33.6509179193296
399,1436182462007,31.6668744703176
400,1436182462729,69.8306632596848
401,1436182463471,33.8290670830613
402,1436182464208,47.0853554930853
403,1436182464948,37.5613018307636
404,1436182465630,36.9765366692847
405,1436182466343,58.6762249293933
406,1436182467071,64.2563458177448
407,1436182467783,48.83836082506
408,1436182469550,42.4375144039717
409,1436182470330,66.9834089445384
410,1436182471003,68.8418214161723
411,1436182471752,33.442589716267
412,1436182472496,35.9605671094564
413,1436182473223,52.358491224595
414,1436182473871,57.1831071555251
415,1436182474573,47.581973471235
416,1436182475239,58.2725427990753
417,1436182475909,32.1648682970759
418,1436182476649,47.0002525327188
419,1436182477420,58.0225293847743
420,1436182478168,46.3679593396418
421,1436182478893,74.0522011331206
422,1436182479548,59.7783045359662
423,1436182480248,70.6392251227332
424,1436182480989,53.8406086174312
425,1436182481718,66.194159475558
426,1436182482460,68.3183822247383
427,1436182484363,64.5836444255228
428,1436182485028,65.3801550030302
429,1436182485699,45.9153967485759
430,1436182486273,43.0366904065681
431,1436182486936,37.2532846748138
432,1436182487673,63.1539948010107
433,1436182488409,52.4162988330879
434,1436182489150,69.778338820147
435,1436182489858,64.130746683763
436,1436182490534,51.4715839415765
437,1436182491274,41.7967890196073
438,1436182492817,68.8078270581128
439,1436182493509,60.7447827973912
440,1436182494233,49.0505454185884
441,1436182494937,63.9556307637619
442,1436182495596,53.650974585557
443,1436182496312,41.0321095974672
444,1436182497050,45.5921471783466
445,1436182497790,63.2223692886963
446,1436182498574,41.4668771526755
447,1436182499334,28.125280373071
448,1436182500022,51.482397624024
449,1436182500766,57.7846027608211
450,1436182501498,62.3851824564277
451,1436182502236,59.9786935745607
452,1436182503002,49.14185704488
453,1436182503751,64.4024674761021
454,1436182504470,39.3771781760122
455,1436182505244,67.2476157624206
456,1436182505975,36.1031996158403
457,1436182506736,52.4064943823299
458,1436182507499,58.0819588867934
459,1436182508224,42.1457739346723
460,1436182508982,58.5039713496367
461,1436182509671,63.3018527272577
462,1436182510289,38.0128274564536
463,1436182510992,59.4967787882534
464,1436182511716,44.9102980584841
465,1436182512465,34.3807557458451
466,1436182513219,55.2789837440425
467,1436182514072,61.2253521484556
468,1436182514747,57.3103142493898
469,1436182515303,57.4266649557466
470,1436182515887,69.727602809943
471,1436182516436,33.2892408629215
472,1436182517038,53.9671089852189
473,1436182517760,69.8306489821401
474,1436182518503,63.5338269059523
475,1436182519245,40.8983229457751
476,1436182519976,52.1009402864845
477,1436182520567,28.3655210740329
478,1436182521144,40.3057066231114
479,1436182521685,42.5813558549362
480,1436182522242,37.107011889369
481,1436182523550,70.7301148747608
482,1436182524290,47.5666426390757
483,1436182525063,68.6025181157339
484,1436182525798,64.563960943614
485,1436182526472,62.3537101703282
486,1436182527038,64.7703166268732
487,1436182527586,70.0716218171169
488,1436182528132,59.1756193714087
489,1436182528720,61.8091716275642
490,1436182529392,62.0542587480093
491,1436182530124,73.2636872750811
492,1436182530820,59.9445567378512
493,1436182531450,47.0470600276335
494,1436182532030,54.3302727167103
495,1436182532611,66.1877715194118
496,1436182533196,56.1215799046504
497,1436182533771,51.5411264505907
498,1436182534312,59.1225720757081
499,1436182535285,64.5060217359046
500,1436182535942,65.9288702146699
501,1436182536632,46.3121942063208
502,1436182537250,41.6948726499514
503,1436182537863,39.0916078047897
504,1436182538562,59.9815937821523
505,1436182539336,40.2218396185313
506,1436182539883,62.0503051290659
507,1436182540442,51.3136635504981
508,1436182541012,64.9964800344401
509,1436182541619,59.6249098858262
510,1436182542248,46.6341473030421
511,1436182542870,50.8703200992767
512,1436182543624,52.3167158103507
513,1436182544346,56.0408332018454
514,1436182544941,57.4417997566613
515,1436182545509,69.6514633302236
516,1436182546092,55.9704151952003
517,1436182546669,60.0057869923401
518,1436182547224,50.6787598051559
519,1436182548846,44.7676491996113
520,1436182549539,66.0171714375969
521,1436182550315,70.4220313872151
522,1436182551042,50.4647560559447
523,1436182551777,59.6802989844511
524,1436182552528,61.9370928751784
525,1436182553196,41.7761833634232
526,1436182553926,61.0713789144049
527,1436182554641,64.1942651939318
528,1436182555372,54.9743013704503
529,1436182556116,58.8781683882073
530,1436182556863,42.0894445609326
531,1436182557591,65.4769412304409
532,1436182558283,58.0978328159035
533,1436182558893,37.6860954725102
534,1436182559678,62.944989108444
535,1436182560412,55.8361129454026
536,1436182561148,41.1536780127354
537,1436182561892,34.5142905770712
538,1436182562612,63.0884526758036
539,1436182563307,53.0926213592214
540,1436182563986,48.0597126079815
541,1436182564758,32.2727183969512
542,1436182565467,36.7752419735689
543,1436182566144,46.1498702049945
544,1436182566872,61.3331887823263
545,1436182567537,62.9766809173321
546,1436182568272,65.2457881055514
547,1436182569006,66.24474036554
548,1436182569850,50.923206760682
549,1436182570596,71.1109460568054
550,1436182571362,65.6268302323134
551,1436182572099,67.5944816684684
552,1436182572818,58.0193285458962
553,1436182573543,59.7626146234247
554,1436182574317,66.0851470102337
555,1436182575134,50.9483270622486
556,1436182575895,50.3455163553691
557,1436182576543,51.6558575256795
558,1436182577278,67.5230438666448
559,1436182578028,41.2951993455896
560,1436182578755,59.2448491792508
561,1436182579466,33.8887100119684
562,1436182580193,50.6136721125361
563,1436182580942,63.8168087930525
564,1436182581720,62.4115910812126
565,1436182582455,39.6618040222098
566,1436182583156,35.8109346343743
567,1436182583807,37.4125963905361
568,1436182584534,36.4534848376001
569,1436182585341,56.4519677012312
570,1436182586096,59.5536015954681
571,1436182586843,71.2113401124478
572,1436182587591,40.2896937589384
573,1436182588316,62.7932086557586
574,1436182589067,50.2015158141209
575,1436182589865,51.8344203126327
