id,attr_time,attr_x,attr_y,attr_z
1,1437232431073,-41.743,-21.568,-9.973
2,1437232431074,-41.743,-21.568,-9.973
3,1437232431075,-41.743,-21.568,-9.973
4,1437232431076,-41.743,-21.568,-9.973
5,1437232431077,-41.743,-21.568,-9.973
6,1437232431092,-41.743,-21.568,-9.973
7,1437232431112,-41.743,-21.568,-9.973
8,1437232431132,-41.262,-21.568,-9.973
9,1437232431152,-41.262,-21.568,-9.973
10,1437232431177,-41.262,-21.568,-9.973
11,1437232431193,-42.594,-21.568,-9.973
12,1437232431213,-41.505,-21.568,-9.973
13,1437232431234,-41.505,-21.568,-9.973
14,1437232431252,-43.193,-21.568,-9.973
15,1437232431275,-43.688,-21.568,-9.973
16,1437232431292,-43.688,-21.568,-9.973
17,1437232431315,-41.563,-21.568,-9.973
18,1437232431334,-41.563,-21.568,-9.973
19,1437232431355,-43.859,-21.568,-9.973
20,1437232431375,-41.571,-21.568,-9.973
21,1437232431395,-41.571,-21.568,-9.973
22,1437232431415,-41.571,-21.568,-9.973
23,1437232431435,-44.012,-21.568,-9.973
24,1437232431455,-44.349,-21.568,-9.973
25,1437232431473,-44.349,-21.568,-9.973
26,1437232431494,-41.682,-21.568,-9.973
27,1437232431515,-41.682,-21.568,-9.973
28,1437232431534,-44.346,-21.568,-9.973
29,1437232431554,-41.677,-21.568,-9.973
30,1437232431575,-44.349,-21.568,-9.973
31,1437232431596,-41.676,-21.568,-9.973
32,1437232431617,-41.676,-21.568,-9.973
33,1437232431636,-41.676,-21.568,-9.973
34,1437232431656,-41.676,-21.568,-9.973
35,1437232431675,-44.175,-21.568,-9.973
36,1437232431693,-41.586,-21.568,-9.973
37,1437232431714,-41.586,-21.568,-9.973
38,1437232431732,-44.158,-21.568,-9.973
39,1437232431805,-41.587,-21.568,-9.973
40,1437232431817,-41.587,-21.568,-9.973
41,1437232431818,-41.587,-21.568,-9.973
42,1437232431819,-41.587,-21.568,-9.973
43,1437232431832,-41.587,-21.568,-9.973
44,1437232431852,-41.587,-21.568,-9.973
45,1437232431882,-41.587,-21.568,-9.973
46,1437232431893,-41.587,-21.568,-9.973
47,1437232431915,-43.565,-21.568,-9.973
48,1437232431937,-41.514,-21.568,-9.973
49,1437232431958,-43.562,-21.568,-9.973
50,1437232431973,-41.561,-21.568,-9.973
51,1437232431993,-43.557,-21.568,-9.973
52,1437232432019,-43.942,-21.568,-9.973
53,1437232432033,-43.942,-21.568,-9.973
54,1437232432055,-41.433,-21.568,-9.973
55,1437232432077,-41.433,-21.568,-9.973
56,1437232432096,-41.433,-21.568,-9.973
57,1437232432116,-41.433,-21.568,-9.973
58,1437232432136,-41.433,-21.568,-9.973
59,1437232432156,-43.891,-21.568,-9.973
60,1437232432177,-41.429,-21.568,-9.973
61,1437232432196,-44.053,-21.568,-9.973
62,1437232432216,-44.389,-21.568,-9.973
63,1437232432238,-44.389,-21.568,-9.973
64,1437232432252,-41.641,-21.568,-9.973
65,1437232432277,-41.641,-21.568,-9.973
66,1437232432295,-44.363,-21.568,-9.973
67,1437232432315,-44.363,-21.568,-9.973
68,1437232432337,-41.555,-21.568,-9.973
69,1437232432356,-44.381,-21.568,-9.973
70,1437232432374,-44.381,-21.568,-9.973
71,1437232432396,-41.683,-21.568,-9.973
72,1437232432416,-41.683,-21.568,-9.973
73,1437232432436,-44.308,-21.568,-9.973
74,1437232432458,-41.511,-21.568,-9.973
75,1437232432478,-44.378,-21.568,-9.973
76,1437232432497,-44.378,-21.568,-9.973
77,1437232432521,-44.694,-21.568,-9.973
78,1437232432594,-42.021,-21.568,-9.973
79,1437232432595,-44.566,-21.568,-9.973
80,1437232432596,-41.906,-21.568,-9.973
81,1437232432597,-41.906,-21.568,-9.973
82,1437232432615,-41.906,-21.568,-9.973
83,1437232432636,-41.906,-21.568,-9.973
84,1437232432653,-44.38,-21.568,-9.973
85,1437232432678,-44.38,-21.568,-9.973
86,1437232432693,-41.717,-21.568,-9.973
87,1437232432713,-44.371,-21.568,-9.973
88,1437232432734,-41.395,-21.568,-9.973
89,1437232432755,-41.395,-21.568,-9.973
90,1437232432777,-41.395,-21.568,-9.973
91,1437232432796,-41.395,-21.568,-9.973
92,1437232432816,-41.395,-21.568,-9.973
93,1437232432836,-44.218,-21.568,-9.973
94,1437232432858,-41.453,-21.568,-9.973
95,1437232432875,-41.453,-21.568,-9.973
96,1437232432893,-41.453,-21.568,-9.973
97,1437232432915,-43.911,-21.568,-9.973
98,1437232432933,-41.354,-21.568,-9.973
99,1437232432956,-43.891,-21.568,-9.973
100,1437232432980,-41.532,-21.568,-9.973
101,1437232432997,-41.532,-21.568,-9.973
102,1437232433017,-41.532,-21.568,-9.973
103,1437232433036,-44.067,-21.568,-9.973
104,1437232433054,-44.067,-21.568,-9.973
105,1437232433081,-41.456,-21.568,-9.973
106,1437232433093,-41.456,-21.568,-9.973
107,1437232433114,-41.456,-21.568,-9.973
108,1437232433135,-41.456,-21.568,-9.973
109,1437232433156,-41.456,-21.568,-9.973
110,1437232433181,-41.456,-21.568,-9.973
111,1437232433200,-43.888,-21.568,-9.973
112,1437232433215,-43.888,-21.568,-9.973
113,1437232433243,-41.621,-21.568,-9.973
114,1437232433314,-44.039,-21.568,-9.973
115,1437232433315,-41.561,-21.568,-9.973
116,1437232433316,-41.561,-21.568,-9.973
117,1437232433317,-41.561,-21.568,-9.973
118,1437232433337,-41.561,-21.568,-9.973
119,1437232433354,-43.87,-21.568,-9.973
120,1437232433374,-41.72,-21.568,-9.973
121,1437232433395,-41.72,-21.568,-9.973
122,1437232433434,-41.72,-21.568,-9.973
123,1437232433435,-41.72,-21.568,-9.973
124,1437232433456,-41.72,-21.568,-9.973
125,1437232433476,-43.598,-21.568,-9.973
126,1437232433497,-43.971,-21.568,-9.973
127,1437232433517,-41.461,-21.568,-9.973
128,1437232433537,-41.461,-21.568,-9.973
129,1437232433557,-44.018,-21.568,-9.973
130,1437232433576,-41.496,-21.568,-9.973
131,1437232433599,-41.496,-21.568,-9.973
132,1437232433617,-43.841,-21.568,-9.973
133,1437232433637,-44.149,-21.568,-9.973
134,1437232433657,-44.149,-21.568,-9.973
135,1437232433675,-41.58,-21.568,-10.273
136,1437232433698,-41.58,-21.568,-10.273
137,1437232433714,-44.168,-21.568,-10.273
138,1437232433737,-41.612,-21.568,-10.273
139,1437232433758,-41.612,-21.568,-10.273
140,1437232433777,-44.175,-21.568,-10.273
141,1437232433797,-44.496,-21.568,-10.273
142,1437232433817,-41.516,-21.568,-10.273
143,1437232433838,-41.516,-21.568,-10.273
144,1437232433859,-44.372,-21.568,-10.273
145,1437232433875,-41.615,-21.568,-10.273
146,1437232433900,-44.288,-21.568,-10.273
147,1437232433921,-41.629,-21.568,-10.273
148,1437232433940,-41.629,-21.568,-10.273
149,1437232433956,-44.282,-21.568,-10.273
150,1437232434095,-44.282,-21.568,-10.273
151,1437232434096,-41.714,-21.568,-10.273
152,1437232434097,-41.714,-21.568,-10.273
153,1437232434098,-41.714,-21.568,-10.273
154,1437232434099,-44.177,-21.568,-10.273
155,1437232434100,-41.6,-21.568,-10.273
156,1437232434101,-44.265,-21.568,-10.273
157,1437232434177,-44.265,-21.568,-10.273
158,1437232434178,-41.651,-21.568,-10.273
159,1437232434179,-41.651,-21.568,-10.273
160,1437232434180,-41.651,-21.568,-10.273
161,1437232434223,-44.174,-21.568,-10.273
162,1437232434224,-44.485,-21.568,-10.273
163,1437232434249,-41.806,-21.568,-10.273
164,1437232434256,-44.277,-21.568,-10.273
165,1437232434276,-41.682,-21.568,-10.273
166,1437232434297,-44.274,-21.568,-10.273
167,1437232434317,-44.274,-21.568,-10.273
168,1437232434338,-41.801,-21.568,-10.273
169,1437232434358,-41.801,-21.568,-10.273
170,1437232434377,-44.284,-21.568,-10.273
171,1437232434398,-44.284,-21.568,-10.273
172,1437232434417,-44.633,-21.568,-10.273
173,1437232434438,-44.633,-21.568,-10.273
174,1437232434458,-44.633,-21.568,-10.273
175,1437232434477,-44.633,-21.568,-10.273
176,1437232434499,-44.633,-21.568,-10.273
177,1437232434515,-41.894,-21.568,-10.273
178,1437232434537,-41.894,-21.568,-10.273
179,1437232434558,-41.894,-21.568,-10.273
180,1437232434577,-44.558,-21.568,-10.273
181,1437232434597,-44.558,-21.568,-10.273
182,1437232434617,-44.558,-21.568,-10.273
183,1437232434637,-44.558,-21.568,-10.273
184,1437232434658,-41.893,-21.568,-10.273
185,1437232434678,-44.607,-21.568,-10.273
186,1437232434697,-44.607,-21.568,-10.273
187,1437232434717,-44.607,-21.568,-9.973
188,1437232434737,-44.607,-21.568,-9.973
189,1437232434757,-44.607,-21.568,-9.973
190,1437232434783,-42.471,-21.568,-9.973
191,1437232434858,-44.734,-21.568,-9.973
192,1437232434859,-42.324,-21.568,-9.973
193,1437232434861,-42.324,-21.568,-9.973
194,1437232434889,-44.639,-21.568,-9.973
195,1437232434890,-41.801,-21.568,-9.973
196,1437232434901,-41.801,-21.568,-9.973
197,1437232434933,-41.801,-21.568,-9.973
198,1437232434940,-41.801,-21.568,-9.973
199,1437232434977,-41.801,-21.568,-10.289
200,1437232434978,-41.801,-21.568,-10.289
201,1437232435022,-41.801,-21.568,-10.289
202,1437232435023,-41.801,-21.568,-10.289
203,1437232435044,-44.223,-21.568,-10.289
204,1437232435056,-41.648,-21.568,-10.604
205,1437232435075,-44.223,-21.568,-10.604
206,1437232435095,-41.598,-21.568,-10.604
207,1437232435115,-41.598,-21.568,-10.604
208,1437232435137,-41.598,-21.568,-10.604
209,1437232435159,-43.605,-21.568,-10.604
210,1437232435178,-43.978,-21.568,-10.604
211,1437232435197,-41.638,-21.568,-10.604
212,1437232435216,-41.638,-21.568,-10.604
213,1437232435235,-41.638,-21.568,-10.604
214,1437232435257,-43.612,-21.568,-10.604
215,1437232435278,-43.971,-21.568,-10.604
216,1437232435299,-43.971,-21.568,-10.604
217,1437232435318,-44.308,-21.568,-10.604
218,1437232435336,-41.648,-21.568,-10.604
219,1437232435356,-41.648,-21.568,-10.604
220,1437232435375,-41.648,-21.568,-10.604
221,1437232435396,-41.648,-21.568,-10.604
222,1437232435421,-41.648,-21.568,-10.604
223,1437232435437,-41.648,-21.568,-10.604
224,1437232435457,-41.648,-21.568,-10.604
225,1437232435477,-44.053,-21.568,-10.604
226,1437232435496,-41.584,-21.568,-10.604
227,1437232435516,-41.584,-21.568,-10.604
228,1437232435537,-41.584,-21.568,-10.604
229,1437232435558,-41.584,-21.568,-10.604
230,1437232435580,-41.584,-21.568,-10.604
231,1437232435646,-41.584,-21.568,-10.604
232,1437232435647,-41.584,-21.568,-10.604
233,1437232435648,-41.584,-21.568,-10.604
234,1437232435656,-41.584,-21.568,-10.604
235,1437232435680,-41.584,-21.568,-10.604
236,1437232435697,-41.584,-21.568,-10.604
237,1437232435716,-41.584,-21.568,-10.604
238,1437232435737,-41.584,-21.568,-10.604
239,1437232435756,-41.584,-21.568,-10.264
240,1437232435783,-41.584,-21.568,-10.264
241,1437232435798,-42.584,-21.568,-10.264
242,1437232435817,-41.531,-21.568,-10.264
243,1437232435837,-41.531,-21.568,-10.264
244,1437232435859,-43.177,-21.568,-10.264
245,1437232435876,-41.5,-21.568,-10.264
246,1437232435898,-41.5,-21.568,-10.264
247,1437232435917,-41.5,-21.568,-10.264
248,1437232435938,-43.176,-21.568,-10.264
249,1437232435956,-41.561,-21.568,-10.264
250,1437232435977,-41.561,-21.568,-10.264
251,1437232435999,-43.563,-21.568,-10.264
252,1437232436019,-43.946,-21.568,-10.264
253,1437232436041,-43.946,-21.568,-10.264
254,1437232436059,-44.279,-21.568,-10.264
255,1437232436077,-44.279,-21.568,-10.264
256,1437232436100,-44.279,-21.568,-10.264
257,1437232436122,-41.537,-21.568,-10.264
258,1437232436138,-41.537,-21.568,-10.264
259,1437232436157,-41.537,-21.568,-10.264
260,1437232436176,-41.537,-21.568,-10.264
261,1437232436197,-41.537,-21.568,-10.264
262,1437232436222,-41.537,-21.568,-10.264
263,1437232436237,-41.537,-21.568,-10.264
264,1437232436260,-41.537,-21.568,-10.264
265,1437232436276,-41.537,-21.568,-10.264
266,1437232436299,-44.19,-21.568,-10.264
267,1437232436367,-41.632,-21.568,-10.264
268,1437232436368,-44.201,-21.568,-10.264
269,1437232436369,-44.505,-21.568,-10.264
270,1437232436378,-41.558,-21.568,-10.264
271,1437232436405,-41.558,-21.568,-10.264
272,1437232436417,-41.558,-21.568,-10.264
273,1437232436437,-44.091,-21.568,-10.264
274,1437232436458,-41.551,-21.568,-10.264
275,1437232436476,-43.89,-21.568,-10.264
276,1437232436499,-41.529,-21.568,-10.264
277,1437232436524,-43.856,-21.568,-10.264
278,1437232436538,-43.856,-21.568,-10.264
279,1437232436557,-41.596,-21.568,-10.264
280,1437232436577,-41.596,-21.568,-10.264
281,1437232436598,-41.596,-21.568,-10.264
282,1437232436620,-41.596,-21.568,-10.264
283,1437232436637,-44.155,-21.568,-10.264
284,1437232436657,-44.461,-21.568,-10.264
285,1437232436677,-41.812,-21.568,-10.264
286,1437232436698,-41.812,-21.568,-10.264
287,1437232436720,-41.812,-21.568,-10.264
288,1437232436738,-41.812,-21.568,-10.264
289,1437232436760,-41.812,-21.568,-10.264
290,1437232436777,-41.812,-21.568,-10.264
291,1437232436798,-41.812,-21.568,-10.264
292,1437232436823,-44.018,-21.568,-10.264
293,1437232436837,-44.018,-21.568,-10.264
294,1437232436859,-41.725,-21.568,-10.264
295,1437232436881,-41.725,-21.568,-10.264
296,1437232436898,-41.725,-21.568,-10.264
297,1437232436918,-41.725,-21.568,-10.264
298,1437232436945,-41.725,-21.568,-10.264
299,1437232436964,-43.652,-21.568,-10.264
300,1437232437111,-41.595,-21.568,-10.264
301,1437232437112,-41.595,-21.568,-10.264
302,1437232437113,-41.595,-21.568,-10.264
303,1437232437114,-41.595,-21.568,-10.264
304,1437232437118,-41.595,-21.568,-10.264
305,1437232437119,-41.595,-21.568,-10.264
306,1437232437120,-41.595,-21.568,-10.264
307,1437232437121,-41.595,-21.568,-10.264
308,1437232437144,-41.595,-21.568,-10.264
309,1437232437172,-43.252,-21.568,-10.264
310,1437232437177,-41.627,-21.568,-10.264
311,1437232437197,-41.627,-21.568,-10.264
312,1437232437222,-41.627,-21.568,-10.264
313,1437232437248,-41.627,-21.568,-10.264
314,1437232437257,-41.627,-21.568,-10.264
315,1437232437282,-41.627,-21.568,-10.264
316,1437232437297,-41.627,-21.568,-10.264
317,1437232437316,-41.627,-21.568,-10.264
318,1437232437341,-41.627,-21.568,-10.264
319,1437232437357,-41.627,-21.568,-10.264
320,1437232437378,-41.627,-21.568,-10.264
321,1437232437397,-41.627,-21.568,-10.264
322,1437232437417,-41.627,-21.568,-10.264
323,1437232437438,-41.627,-21.568,-10.264
324,1437232437457,-41.627,-21.568,-10.264
325,1437232437481,-41.627,-21.568,-10.264
326,1437232437499,-41.627,-21.568,-10.264
327,1437232437522,-41.627,-21.568,-10.264
328,1437232437539,-41.627,-21.568,-10.264
329,1437232437558,-41.21,-21.568,-10.264
330,1437232437577,-41.21,-21.568,-10.264
331,1437232437599,-41.21,-21.568,-10.264
332,1437232437621,-41.21,-21.568,-10.264
333,1437232437640,-41.575,-21.568,-10.264
334,1437232437660,-42.547,-21.568,-10.264
335,1437232437681,-41.567,-21.568,-10.264
336,1437232437701,-41.567,-21.568,-10.264
337,1437232437721,-41.567,-21.568,-10.264
338,1437232437739,-41.567,-21.568,-10.264
339,1437232437757,-43.174,-21.568,-10.264
340,1437232437830,-41.612,-21.568,-10.264
341,1437232437831,-41.612,-21.568,-10.264
342,1437232437832,-41.612,-21.568,-10.264
343,1437232437839,-41.612,-21.568,-10.264
344,1437232437867,-41.612,-21.568,-10.264
345,1437232437880,-41.612,-21.568,-10.264
346,1437232437898,-41.612,-21.568,-10.264
347,1437232437921,-41.612,-21.568,-10.264
348,1437232437938,-41.612,-21.568,-10.264
349,1437232437960,-41.612,-21.568,-10.264
350,1437232437979,-41.612,-21.568,-10.264
351,1437232438001,-41.612,-21.568,-10.264
352,1437232438018,-41.612,-21.568,-10.264
353,1437232438044,-41.612,-21.568,-10.264
354,1437232438061,-41.612,-21.568,-10.264
355,1437232438080,-41.612,-21.568,-10.264
356,1437232438100,-41.612,-21.568,-10.264
357,1437232438121,-41.612,-21.568,-10.264
358,1437232438142,-41.612,-21.25,-10.264
359,1437232438161,-41.166,-21.25,-10.264
360,1437232438179,-41.166,-21.25,-10.264
361,1437232438201,-41.166,-21.25,-10.264
362,1437232438219,-41.166,-21.25,-10.264
363,1437232438242,-41.166,-21.25,-10.264
364,1437232438263,-41.517,-21.25,-10.264
365,1437232438282,-41.517,-21.25,-10.264
366,1437232438300,-41.517,-21.25,-10.264
367,1437232438322,-41.517,-21.25,-10.264
368,1437232438342,-41.517,-21.25,-10.264
369,1437232438362,-41.517,-21.25,-10.264
370,1437232438383,-41.517,-21.25,-10.264
371,1437232438400,-41.517,-21.25,-10.264
372,1437232438421,-41.517,-21.25,-10.264
373,1437232438442,-42.579,-21.25,-10.264
374,1437232438460,-41.506,-21.25,-10.264
375,1437232438482,-43.186,-21.25,-10.264
376,1437232438542,-41.525,-21.25,-10.264
377,1437232438543,-43.56,-21.25,-10.264
378,1437232438553,-41.654,-21.25,-10.264
379,1437232438559,-41.654,-21.25,-10.264
380,1437232438581,-41.654,-21.25,-10.264
381,1437232438604,-41.654,-21.25,-10.264
382,1437232438619,-41.654,-21.25,-10.264
383,1437232438639,-41.654,-21.25,-10.264
384,1437232438661,-43.17,-21.25,-10.264
385,1437232438681,-41.543,-21.25,-10.264
386,1437232438705,-41.543,-21.25,-10.264
387,1437232438720,-41.543,-21.25,-10.264
388,1437232438745,-41.543,-21.25,-10.574
389,1437232438762,-43.545,-21.25,-10.574
390,1437232438782,-43.923,-21.25,-10.574
391,1437232438802,-41.587,-21.25,-10.574
392,1437232438822,-41.587,-21.25,-10.574
393,1437232438842,-41.587,-21.25,-10.574
394,1437232438862,-41.587,-21.25,-10.574
395,1437232438882,-41.587,-21.25,-10.574
396,1437232438902,-41.587,-21.25,-10.574
397,1437232438923,-43.234,-21.25,-10.574
398,1437232438941,-43.707,-21.25,-10.574
399,1437232438962,-41.546,-21.25,-10.574
400,1437232438979,-43.826,-21.25,-10.574
401,1437232439001,-41.564,-21.25,-10.574
402,1437232439020,-41.564,-21.25,-10.574
403,1437232439044,-41.564,-21.25,-10.574
404,1437232439065,-43.843,-21.25,-10.574
405,1437232439085,-41.567,-21.25,-10.574
406,1437232439104,-43.994,-21.25,-10.574
407,1437232439120,-41.609,-21.25,-10.574
408,1437232439139,-41.609,-21.25,-10.574
409,1437232439164,-41.609,-21.25,-10.574
410,1437232439181,-41.609,-21.25,-10.574
411,1437232439366,-41.609,-21.25,-10.574
412,1437232439367,-41.609,-21.25,-10.574
413,1437232439368,-41.609,-21.25,-10.273
414,1437232439369,-41.609,-21.25,-10.273
415,1437232439370,-41.609,-21.25,-10.273
416,1437232439371,-41.609,-21.25,-10.273
417,1437232439372,-41.609,-21.25,-10.273
418,1437232439373,-41.609,-21.25,-10.273
419,1437232439374,-41.609,-21.25,-10.273
420,1437232439416,-41.609,-21.25,-10.273
421,1437232439417,-41.609,-21.25,-10.273
422,1437232439420,-41.609,-21.25,-10.273
423,1437232439439,-41.609,-21.25,-10.273
424,1437232439472,-41.609,-21.25,-10.273
425,1437232439490,-41.609,-21.25,-10.273
426,1437232439499,-41.207,-21.25,-10.273
427,1437232439520,-41.207,-21.25,-10.273
428,1437232439539,-41.207,-21.25,-10.273
429,1437232439559,-41.207,-21.25,-10.273
430,1437232439579,-41.207,-21.25,-10.273
431,1437232439600,-41.207,-21.25,-10.273
432,1437232439620,-41.207,-21.25,-10.273
433,1437232439640,-41.207,-21.25,-10.273
434,1437232439660,-41.207,-21.25,-10.273
435,1437232439680,-41.207,-21.25,-10.273
436,1437232439700,-41.207,-21.25,-10.273
437,1437232439720,-41.207,-21.25,-10.273
438,1437232439745,-41.207,-21.25,-10.273
439,1437232439760,-41.207,-21.25,-10.273
440,1437232439780,-41.207,-21.25,-10.273
441,1437232439798,-41.207,-21.25,-10.273
442,1437232439829,-41.207,-21.25,-10.273
443,1437232439838,-41.207,-21.25,-10.273
444,1437232439858,-41.207,-21.25,-10.273
445,1437232439880,-41.207,-21.25,-10.273
446,1437232439900,-41.207,-21.25,-10.273
447,1437232439921,-41.207,-21.25,-10.273
448,1437232439943,-41.207,-21.25,-10.273
449,1437232439960,-41.575,-21.25,-10.273
450,1437232439981,-41.575,-21.25,-10.273
451,1437232439999,-41.575,-21.25,-10.273
452,1437232440019,-41.575,-21.25,-10.273
453,1437232440040,-41.575,-21.25,-10.273
454,1437232440059,-41.575,-21.25,-10.273
455,1437232440079,-41.575,-21.25,-10.273
456,1437232440103,-41.575,-21.25,-10.273
457,1437232440122,-41.575,-21.25,-10.273
458,1437232440139,-42.469,-21.25,-10.273
459,1437232440159,-41.74,-21.25,-10.273
460,1437232440181,-41.74,-21.25,-10.273
461,1437232440204,-42.472,-21.25,-10.273
462,1437232440223,-41.735,-21.25,-10.273
463,1437232440244,-43.101,-21.25,-10.273
464,1437232440264,-41.761,-21.25,-10.273
465,1437232440284,-41.761,-21.58,-9.971
466,1437232440301,-41.761,-21.58,-9.971
467,1437232440320,-41.761,-21.58,-9.971
468,1437232440342,-41.761,-21.58,-9.971
469,1437232440363,-41.761,-21.58,-9.971
470,1437232440383,-41.761,-21.58,-9.971
471,1437232440402,-41.761,-21.58,-9.971
472,1437232440421,-41.761,-21.58,-9.635
473,1437232440442,-41.761,-21.905,-9.635
474,1437232440464,-43.197,-21.905,-9.635
475,1437232440484,-41.432,-21.905,-9.635
476,1437232440505,-41.432,-21.905,-9.635
477,1437232440524,-41.432,-22.212,-9.635
478,1437232440542,-41.432,-22.212,-9.635
479,1437232440562,-41.432,-22.212,-9.635
480,1437232440582,-41.432,-22.212,-9.635
481,1437232440668,-41.432,-22.212,-9.635
482,1437232440669,-41.432,-22.212,-9.635
483,1437232440670,-41.432,-22.212,-9.635
484,1437232440671,-41.432,-22.212,-9.635
485,1437232440694,-41.432,-22.212,-9.635
