id,attr_time,attr_db
1,1436181038747,41.9230635433732
2,1436181039437,40.6079448923353
3,1436181040088,40.4769142382066
4,1436181040958,34.2376959242974
5,1436181041695,46.470570964998
6,1436181042429,37.4186858753388
7,1436181043161,48.0980445659118
8,1436181043904,39.3285630626812
9,1436181044714,53.5602806146653
10,1436181045453,59.4165228337002
11,1436181046215,33.055846196327
12,1436181047010,49.5914822056521
13,1436181047742,56.5045762012641
14,1436181048482,38.4041840537347
15,1436181049213,30.8223812902809
16,1436181049890,42.9979283670112
17,1436181050605,35.3452476477116
18,1436181051367,44.3507402695305
19,1436181052107,37.3680209806099
20,1436181052813,41.3603822488354
21,1436181053569,45.0921620838226
22,1436181054287,43.9555630105984
23,1436181055028,36.2999771967468
24,1436181055763,32.3335075793277
25,1436181056454,35.1931127078801
26,1436181057133,34.9700205849115
27,1436181057807,40.6404041590106
28,1436181058563,28.4233682363459
29,1436181059293,47.7375871766091
30,1436181059982,62.5947231430418
31,1436181060604,44.6649429333249
32,1436181061273,40.0617658819087
33,1436181061997,27.0973477110198
34,1436181062744,36.2993098009657
35,1436181063469,27.493953607542
36,1436181064202,44.0229117902338
37,1436181064948,48.5884999486613
38,1436181065689,54.0425362447574
39,1436181066425,50.7939791982389
40,1436181067160,48.5258293840185
41,1436181067891,32.2575962345856
42,1436181068630,49.3430891313044
43,1436181069354,40.6000522749136
44,1436181070037,61.7893842864066
45,1436181070676,33.7290271805904
46,1436181071399,66.0600016427867
47,1436181072139,53.9814827841442
48,1436181072866,48.1505501812453
49,1436181073574,62.1560106797623
50,1436181074308,30.4616126051666
51,1436181075051,61.7920828576418
52,1436181075774,58.8559131053474
53,1436181076465,59.4067860411907
54,1436181077285,66.9592840043012
55,1436181077930,44.9481284362689
56,1436181078645,29.1289501429983
57,1436181079382,24.6706762701439
58,1436181080067,57.273486724238
59,1436181080730,27.8648155734287
60,1436181081433,27.9515196490182
61,1436181082184,57.9768572415717
62,1436181082930,37.5130569216298
63,1436181083660,56.9846566760163
64,1436181084396,42.5405642524476
65,1436181085127,49.8591229551308
66,1436181085886,37.8174016791654
67,1436181086649,45.8564383989727
68,1436181087372,52.8606515702488
69,1436181088099,55.9454154219309
70,1436181088835,62.2225693807283
71,1436181089589,28.0809437717753
72,1436181090192,42.1035515220864
73,1436181090852,66.1126671381288
74,1436181091567,37.2660653218919
75,1436181092288,29.667802578618
76,1436181093030,41.9155505595368
77,1436181093800,54.9649311946957
78,1436181094525,45.6740276853363
79,1436181095266,55.3705773232022
80,1436181096004,62.8891245734199
81,1436181096743,65.3297428702541
82,1436181097483,52.5793650151172
83,1436181098132,27.4465607736293
84,1436181098803,37.1687199786859
85,1436181099534,34.7935554077293
86,1436181100334,62.6471475440423
87,1436181100981,51.857085102665
88,1436181101677,43.9797285829171
89,1436181102399,34.4463289268741
90,1436181103146,67.4066321243705
91,1436181103854,56.771362402613
92,1436181104617,36.835083896319
93,1436181105313,34.2187240730537
94,1436181105976,53.9787214594711
95,1436181106678,56.3386597605413
96,1436181107423,26.8988622399644
97,1436181108170,53.5171954578438
98,1436181108906,31.6737863033372
99,1436181109652,25.0172348484087
100,1436181110359,62.6828161666348
101,1436181111018,47.0937684489687
102,1436181111752,31.4753803599186
103,1436181112464,42.9300072153173
104,1436181113135,62.9801800216518
105,1436181113861,66.6772103432745
106,1436181114609,53.1959244647685
107,1436181115354,47.5356941142949
108,1436181116110,28.9046335388802
109,1436181116846,56.0467699368878
110,1436181117588,64.2958579046816
111,1436181118304,28.4631586115235
112,1436181119025,24.5868701691902
113,1436181119789,62.1622327975774
114,1436181120482,53.2474562800994
115,1436181121160,59.4567823494415
116,1436181121843,32.9445929802967
117,1436181122487,40.0666727310305
118,1436181123225,29.1160343069453
119,1436181123960,26.2243012657914
120,1436181124635,33.5895928325484
121,1436181126034,33.4539251116064
122,1436181126711,26.6691989042888
123,1436181127450,52.4548638566119
124,1436181128198,32.9663942611993
125,1436181128927,49.5267172710642
126,1436181129664,39.4273117456382
127,1436181130406,29.4105186262715
128,1436181131215,35.4406890657239
129,1436181131891,53.8537043330887
130,1436181132486,44.5035668069706
131,1436181133157,29.1432894082939
132,1436181133924,44.294858370718
133,1436181134644,42.1099944827129
134,1436181135459,56.4688588750585
135,1436181136185,50.191888687567
136,1436181136989,59.9832757154613
137,1436181137828,40.6109054085099
138,1436181138572,41.8938689031951
139,1436181139238,44.1036922703289
140,1436181140831,33.9035471875414
141,1436181141937,36.7785685935711
142,1436181142567,49.5728083353268
143,1436181143233,55.450664206814
144,1436181143958,65.4654696235342
145,1436181144778,41.758249984327
146,1436181145366,57.170613792573
147,1436181146050,32.2313219891288
148,1436181146787,40.5360291199824
149,1436181147539,34.4535911568237
150,1436181148269,31.3421148077257
151,1436181148989,31.8889764714282
152,1436181149703,32.9791881189376
153,1436181150507,31.226512883663
154,1436181151305,52.1912216051326
155,1436181152031,34.0181282619556
156,1436181152782,41.2128307023395
157,1436181153407,42.794045108036
158,1436181154111,65.8483449658774
159,1436181154888,47.689084914213
160,1436181155620,60.2572433064884
161,1436181156347,33.8340412785186
162,1436181157071,58.8240933346981
163,1436181157796,52.1874198140102
164,1436181158527,41.8022184728649
165,1436181159242,36.3992989211725
166,1436181160002,63.2435007308402
167,1436181160712,53.1130519697035
168,1436181161440,59.5016280089338
169,1436181163403,34.0642898216991
170,1436181164122,42.8259672148473
171,1436181164849,46.5599596988679
172,1436181165505,40.518167973385
173,1436181166196,33.587026488147
174,1436181166935,51.2737115722838
175,1436181167785,64.2751834602422
176,1436181168526,56.0970481203749
177,1436181169249,57.1581031027865
178,1436181170018,62.7225357245403
179,1436181170736,54.1558101001045
180,1436181171488,44.6702809619696
181,1436181172216,49.779091354571
182,1436181172966,41.3794184582637
183,1436181173686,50.752889987895
184,1436181174415,39.4304553218664
185,1436181175126,30.7534867708081
186,1436181176661,30.3333122611354
187,1436181177385,67.3181256579767
188,1436181178105,32.6648162227493
189,1436181178771,62.0368678817318
190,1436181179488,45.7888486280687
191,1436181180215,28.4356538552434
192,1436181180974,66.7372923448077
193,1436181181763,40.7719204114176
194,1436181182463,43.1961709870534
195,1436181183098,61.6422180123668
196,1436181183752,44.9715693499637
197,1436181184477,56.4346313866728
198,1436181185189,42.4632641269452
199,1436181185824,28.8495869957031
200,1436181186527,66.2404070858736
201,1436181187250,63.7585575741875
202,1436181187983,46.9825673753909
203,1436181188716,58.9364488810678
204,1436181189418,41.6939656403785
205,1436181190090,61.7334306785843
206,1436181190882,64.0395555881668
207,1436181191615,42.7875404837577
208,1436181192366,50.4965978153173
209,1436181193104,58.7665877953567
210,1436181193837,69.0573513455515
211,1436181194567,67.4230453234381
212,1436181195293,46.9198542844794
213,1436181196015,51.6776206093615
214,1436181196721,57.5899169082043
215,1436181197446,33.4570268838019
216,1436181198151,48.7562655586693
217,1436181198837,47.126484871776
218,1436181199558,25.448866392093
219,1436181200347,42.8756395252375
220,1436181201081,66.1380721857083
221,1436181201874,46.5705118285939
222,1436181202615,48.8155412759288
223,1436181203376,40.9619954408248
224,1436181204097,26.7776381818285
225,1436181204820,58.9436983433019
226,1436181205559,27.7906293793469
227,1436181206283,25.0032582011631
228,1436181207056,47.2845195103427
229,1436181207766,44.5582040108697
230,1436181208473,56.7114182907851
231,1436181209141,28.263065086262
232,1436181209873,48.3002261689437
233,1436181210574,31.1385203317514
234,1436181211166,47.9068103209036
235,1436181211864,28.6460576206714
236,1436181212593,62.6215128270467
237,1436181213337,58.3610378280221
238,1436181214029,50.1815448535538
239,1436181214776,49.7605355016532
240,1436181215446,54.3516510038117
241,1436181216174,53.9874759334908
242,1436181216906,29.0993108459926
243,1436181217626,22.5041423252668
244,1436181218355,20.284829625692
245,1436181219071,68.418137753811
246,1436181219794,48.0861424143127
247,1436181220519,23.7747141464961
248,1436181221237,42.0883912967288
249,1436181221889,49.7270775366215
250,1436181222629,46.9372869866473
251,1436181223352,58.7317360545392
252,1436181224100,43.0631793011957
253,1436181224835,38.3251093520226
254,1436181225557,43.6657331395904
255,1436181226273,62.6146827773187
256,1436181226987,60.1534082974707
257,1436181227777,61.0323481777849
258,1436181228545,46.2374021680627
259,1436181229232,59.1008997146489
260,1436181229956,53.1517129572638
261,1436181230667,54.316403916115
262,1436181231387,57.8539619067012
263,1436181232025,43.7520940901153
264,1436181232750,52.3956363867404
265,1436181233459,36.5736852956258
266,1436181234145,41.0239439434125
267,1436181234865,44.6668425293172
268,1436181235611,27.1587552027478
269,1436181236347,22.192456152761
270,1436181237088,49.6858150461234
271,1436181237825,44.1621952399897
272,1436181238573,43.2016148479881
273,1436181239307,39.8556289168562
274,1436181240055,30.1451338501771
275,1436181240787,60.1323719041587
276,1436181241532,70.1413149090288
277,1436181242297,53.8227598928488
278,1436181242945,51.4525255201338
279,1436181243685,43.4595050461697
280,1436181244329,42.6708484995389
281,1436181245057,42.8394204846038
282,1436181245770,40.5734100595218
283,1436181246494,41.2591604111677
284,1436181247233,62.4436243336684
285,1436181247996,37.7614525280173
286,1436181248728,44.4766059781631
287,1436181249482,68.0262274768513
288,1436181250232,61.3116624112775
289,1436181250970,49.0785539961754
290,1436181251714,39.239850223499
291,1436181252430,58.7734862944921
292,1436181253157,37.7849021530025
293,1436181253856,50.4583634692031
294,1436181254513,67.27224112302
295,1436181255256,44.5045215752873
296,1436181256011,49.0071120482698
297,1436181256744,62.4825552104666
298,1436181257473,41.702855761314
299,1436181258196,39.3875229559544
300,1436181258881,58.8249322341571
301,1436181259568,36.1600239123694
302,1436181260252,62.5865667750153
303,1436181260910,27.894867291073
304,1436181261635,34.6552560295173
305,1436181262351,47.9775459395634
306,1436181263034,29.4010864297997
307,1436181263771,55.4816666688136
308,1436181264493,52.9891153263667
309,1436181265159,62.5807832592935
310,1436181265874,61.1644833326575
311,1436181266636,52.1353810786871
312,1436181267357,63.1457033484008
313,1436181268074,37.8675927573764
314,1436181268811,43.0829656394572
315,1436181269534,34.7332827459497
316,1436181270122,61.5030707281723
317,1436181270816,59.8701155889723
318,1436181271582,39.2111943553543
319,1436181272317,42.2731106008641
320,1436181273054,67.2265791544868
321,1436181273831,42.9685859046437
322,1436181274562,72.8113601745297
323,1436181275235,59.102801751322
324,1436181275885,45.7051129293722
325,1436181276605,36.3285618402291
326,1436181277327,39.40321859994
327,1436181278057,53.6964409750883
328,1436181278777,54.4552705925436
329,1436181279523,51.5250677402911
330,1436181280261,65.3924537738996
331,1436181280996,52.4828226429758
332,1436181281780,27.0805761803641
333,1436181282495,52.8028409590719
334,1436181283221,66.6350710129027
335,1436181283960,27.1829965523156
336,1436181284669,23.6258838261256
337,1436181285327,65.8381773580551
338,1436181286057,60.5802761995014
339,1436181286822,64.9492978963932
340,1436181287576,57.6749206543189
341,1436181288284,60.8941721342847
342,1436181289016,64.4067540438841
343,1436181289759,39.3774030810972
344,1436181290487,45.8342980960525
345,1436181291194,29.1666726946668
346,1436181291911,29.8346734751394
347,1436181292713,64.8613839019475
348,1436181293435,28.0317281245764
349,1436181294153,28.8156869923986
350,1436181294856,29.8136325252083
351,1436181295606,29.4288263316994
352,1436181296404,65.2064756965734
353,1436181297145,72.2011216477445
354,1436181297863,39.0171491398381
355,1436181298619,59.3626320413445
356,1436181299350,60.3126938616975
357,1436181300006,43.1619948685978
358,1436181300670,49.7409018151445
359,1436181301436,51.2594878541549
360,1436181302134,41.0443655304757
361,1436181302801,61.1469012011103
362,1436181303492,44.4609917374547
363,1436181304078,43.1399901342441
364,1436181304756,47.4844511131328
365,1436181305492,61.1887452187191
366,1436181306234,32.6463707772273
367,1436181306948,39.0383509006177
368,1436181307688,46.3806674894833
369,1436181308437,27.9256885897701
370,1436181309143,43.4102671208613
371,1436181309859,57.6146552575599
372,1436181310540,41.3173766587442
373,1436181311217,41.0788998927085
374,1436181311961,51.2644936068892
375,1436181312712,45.4047292762569
376,1436181313481,61.5998297194454
377,1436181314154,54.5802029213334
378,1436181314814,63.9910985931691
379,1436181315564,52.5629175018755
380,1436181316264,34.2054698936828
381,1436181316974,52.5906869374223
382,1436181317703,44.1917059674906
383,1436181318418,30.4182706570379
384,1436181319130,52.217214730935
385,1436181319816,48.761128676332
386,1436181320521,40.3221155603109
387,1436181321185,49.8316414069002
388,1436181321950,29.9370181564209
389,1436181322705,54.1945393129808
390,1436181323429,32.7625190131637
391,1436181324159,47.8841257084548
392,1436181324849,54.3467378528048
393,1436181325519,45.5084465050545
394,1436181326259,62.309560167265
395,1436181326999,62.9892751857552
396,1436181327741,42.2430847321722
397,1436181328457,56.1274619401356
398,1436181330273,59.3679239303833
399,1436181330924,33.3227993086989
400,1436181331713,37.8672681124251
401,1436181332445,39.5993353623393
402,1436181333165,46.7874178842814
403,1436181333897,63.0757915116088
404,1436181334729,39.5228695552327
405,1436181335468,45.0777908272033
406,1436181336228,50.0773360633626
407,1436181336966,56.1699324473961
408,1436181337713,33.6895324451443
409,1436181338443,47.2943422668812
410,1436181339176,55.200060399839
411,1436181339912,44.4206424231143
412,1436181340657,39.8676350010258
413,1436181341377,49.9793183173976
414,1436181342024,43.8084288038438
415,1436181342731,62.3578328129566
416,1436181343455,55.9843965596076
417,1436181344186,45.4361979435418
418,1436181344948,55.3830440359156
419,1436181345693,44.8461035667275
420,1436181346425,50.1828163026866
421,1436181347152,67.2204341416339
422,1436181349224,60.9020404953133
423,1436181349955,64.5876875382068
424,1436181350694,66.3588375704945
425,1436181351421,45.4689438808972
426,1436181352131,57.725080797655
427,1436181352830,66.6341248038106
428,1436181353596,55.0628733998037
429,1436181354303,31.1286002914444
430,1436181354986,45.0421829885632
431,1436181355713,31.5516373581277
432,1436181356455,26.0365647783836
433,1436181357184,37.2387903432058
434,1436181357901,36.050907554132
435,1436181358645,56.1200422381586
436,1436181359363,64.2281785126787
437,1436181360047,52.8311844791926
438,1436181360777,51.3141339502313
439,1436181361505,50.6225213464519
440,1436181362191,47.9339163681784
441,1436181362927,38.3324412675761
442,1436181363686,30.6236127766489
443,1436181364376,52.4703598265844
444,1436181365039,46.6957206359806
445,1436181365767,54.8364611093569
446,1436181366425,63.0205677650355
447,1436181367083,36.5741570239337
448,1436181367805,69.1715792877467
449,1436181368545,61.9839415996131
450,1436181369271,50.5732211109202
451,1436181370021,45.3747540580533
452,1436181370753,44.6676430146254
453,1436181371494,32.0248139207899
454,1436181372221,39.5041966169691
455,1436181372910,60.9233347925158
456,1436181373588,43.4413066264675
457,1436181374234,61.0397698652051
458,1436181374985,37.6988578495063
459,1436181375738,58.3432052454309
460,1436181376471,48.2261297356469
461,1436181377188,29.0067723902021
462,1436181377844,57.5829028626903
463,1436181379540,20.9007867529159
464,1436181380197,56.6112365663359
465,1436181380876,40.0650382450258
466,1436181381513,57.6482261620322
467,1436181382203,45.7485116949082
468,1436181382913,50.2565640005518
469,1436181383564,37.5960440015358
470,1436181384247,63.8987265166201
471,1436181384926,53.7431902888727
472,1436181385584,38.2983535145836
473,1436181386301,28.9379677785719
474,1436181387104,51.9360054938784
475,1436181388072,47.9889850056907
476,1436181388722,54.1953806292658
477,1436181389458,41.0264274943975
478,1436181390194,52.1709376208902
479,1436181390938,47.1238901695492
480,1436181391657,39.250478890837
481,1436181392389,60.8099054232131
482,1436181393070,64.2834317586252
483,1436181393725,47.318183952242
484,1436181394462,40.4716266667277
485,1436181395125,37.9160474110998
486,1436181396931,59.0152227286853
487,1436181397575,29.0066275071019
488,1436181398232,53.212572738745
489,1436181398963,53.3604041461285
490,1436181399643,23.9902510722255
491,1436181400328,39.1978822916933
492,1436181401045,21.9806644611732
493,1436181401756,32.7375203310453
494,1436181402331,51.8174429124785
495,1436181403029,53.5858798387219
496,1436181403761,51.6884029978825
497,1436181404509,26.4026939961562
498,1436181405232,49.2212720063301
499,1436181405997,27.1792442515821
500,1436181406727,17.7435238011726
501,1436181407473,58.5629768662792
502,1436181408160,48.7833218900511
503,1436181408934,30.042978851411
504,1436181409803,19.1798746116978
505,1436181410561,55.6051651901808
506,1436181411297,54.4641842405386
507,1436181412023,23.0682199041756
508,1436181412765,18.7035131214811
509,1436181413407,49.6006727725274
510,1436181414126,57.2094074070482
511,1436181414764,42.8478737605444
512,1436181415506,42.8798841455165
513,1436181416269,32.5057560967777
514,1436181417013,43.8033164814996
515,1436181417791,63.3033967151318
516,1436181418514,25.5882214203307
517,1436181419252,19.3008499540725
518,1436181419924,23.7116754360512
519,1436181420523,37.1435596402394
520,1436181421169,40.7474101345819
521,1436181421891,43.2588824391736
522,1436181422612,58.4461082455238
523,1436181423302,60.4904464783852
524,1436181424046,27.5767543225548
525,1436181424780,54.2304299505521
526,1436181425507,63.9925638458146
527,1436181426230,24.2777229171335
528,1436181426970,22.6572416184656
529,1436181427689,29.4575377374825
530,1436181428425,19.3925205316044
531,1436181429145,38.2427174248199
532,1436181429904,25.0108317299501
533,1436181430660,26.7942342139541
534,1436181431433,20.1180909633598
535,1436181432156,27.0120046614766
536,1436181432868,36.2144143382149
537,1436181433590,42.6712449192234
538,1436181434320,31.3318449110145
539,1436181435029,27.737638847687
540,1436181435795,18.9821769995823
541,1436181436544,61.0812764330482
542,1436181437280,59.2820291693078
543,1436181438017,26.3106984369316
544,1436181438737,32.6876276954947
545,1436181439495,58.4306609259498
546,1436181440224,69.7887693819957
547,1436181440802,44.0186584800127
548,1436181441459,47.8263278669271
549,1436181442182,46.3871539308848
550,1436181442857,46.2627338125575
551,1436181443511,52.8685067836503
552,1436181444195,41.2646467310198
553,1436181444950,41.4472392469487
554,1436181445654,42.9785495183807
555,1436181446388,33.5483795621209
556,1436181447128,23.5945578455369
557,1436181447855,25.2254141538379
558,1436181448587,37.9226384249452
559,1436181449314,42.5877107240481
560,1436181450041,29.3026170353502
561,1436181450759,36.5115319336547
562,1436181451506,59.1932994376987
563,1436181452195,52.1099156977586
564,1436181452920,49.1037111119378
565,1436181453609,42.3146475051324
566,1436181454294,27.4864522764812
567,1436181454997,58.5555511089969
568,1436181455779,39.0630240597995
569,1436181456561,60.5561088067936
570,1436181457209,62.632745129457
571,1436181457932,54.3476072491751
572,1436181458654,41.9804673731198
573,1436181459392,56.7626214530846
574,1436181460110,54.936812132818
575,1436181460813,55.6870271222405
