id,attr_time,attr_db
1,1436181038770,38.5601425633906
2,1436181039523,37.2813147014989
3,1436181040250,57.4554486974315
4,1436181041000,42.4601521947643
5,1436181041741,42.4000151586033
6,1436181042466,38.5736200966153
7,1436181043117,34.0298885008183
8,1436181043860,40.2331625318975
9,1436181044591,40.3155335554267
10,1436181045340,31.987828380921
11,1436181046071,34.5272161563639
12,1436181046741,54.2525996184847
13,1436181047446,31.9945685971136
14,1436181048172,40.028144347353
15,1436181048902,43.5006366864471
16,1436181049629,45.4580696178028
17,1436181050353,39.4357094616966
18,1436181051087,32.4622848661427
19,1436181051818,33.7842906960104
20,1436181052518,48.349306351868
21,1436181053152,33.1309886781809
22,1436181053855,33.667666676385
23,1436181054595,33.7412053235947
24,1436181055315,33.2056159219033
25,1436181056003,33.9479544757931
26,1436181056726,38.2725345291106
27,1436181057373,31.6916489208656
28,1436181058112,38.3665683672953
29,1436181058829,40.3031177786142
30,1436181059566,44.9528991326473
31,1436181060328,27.9701802334579
32,1436181061080,35.3256497403158
33,1436181061820,44.1872091824905
34,1436181062553,36.5581495205494
35,1436181063263,40.5540708090848
36,1436181064004,62.0507600712751
37,1436181064730,48.1601229699614
38,1436181065521,41.0900539702331
39,1436181066130,48.4566272443399
40,1436181066846,29.7749831416789
41,1436181067637,50.106877525331
42,1436181068371,50.902140693787
43,1436181069129,33.7219678990867
44,1436181069808,24.3357340580184
45,1436181070497,52.3562037106296
46,1436181071237,38.5754264571543
47,1436181071951,51.2440284156595
48,1436181072662,28.5276258679828
49,1436181073335,33.8660985354927
50,1436181074046,56.0188211565402
51,1436181074766,41.582087218084
52,1436181075525,54.8111638342317
53,1436181076231,58.4034035601441
54,1436181076972,51.2743598248682
55,1436181077724,30.030658873484
56,1436181078448,29.4366532937893
57,1436181079162,47.6053574282006
58,1436181079942,33.5692550287243
59,1436181080660,22.9625446693378
60,1436181081390,50.8609664953275
61,1436181082124,37.8536306032624
62,1436181082826,55.911949926805
63,1436181083501,55.6824329386322
64,1436181084133,56.7209738433094
65,1436181084817,43.6009003731742
66,1436181085558,43.2298106650309
67,1436181086279,48.7627397767095
68,1436181086995,51.6265207322977
69,1436181087785,58.9352581140679
70,1436181088536,33.0175975451718
71,1436181089256,55.4181617497787
72,1436181089993,39.5983430935069
73,1436181090685,39.804077132124
74,1436181091354,41.3621097462579
75,1436181092074,43.4826764857374
76,1436181092811,48.6774775168875
77,1436181093531,49.8877345422971
78,1436181094176,56.9810010099513
79,1436181094878,36.6625299935668
80,1436181095624,56.4134973817871
81,1436181096357,37.8932425098661
82,1436181097049,31.6199423909541
83,1436181097758,39.3434669970617
84,1436181098450,32.1255194103346
85,1436181099191,57.2079091617052
86,1436181099922,49.6670421586051
87,1436181100664,51.4580477478579
88,1436181101392,53.1917428835021
89,1436181102118,38.6668053726758
90,1436181102857,58.9995556079339
91,1436181103573,47.9885338306092
92,1436181104271,24.5157943323991
93,1436181104938,47.7560492680157
94,1436181105662,52.1363574856352
95,1436181106400,26.5641789864897
96,1436181107124,34.5696452411472
97,1436181107905,28.7883388666321
98,1436181108657,24.4836443579519
99,1436181109293,60.1613430315006
100,1436181110024,53.2775511836833
101,1436181110755,26.6824237119698
102,1436181111495,31.190590718745
103,1436181112234,39.3065421109497
104,1436181112969,37.9574551778905
105,1436181113687,36.1456659344463
106,1436181114404,35.309471496207
107,1436181115069,60.1833525047827
108,1436181115850,52.0433515099176
109,1436181116592,38.8713546574216
110,1436181117319,35.9156586637857
111,1436181118063,43.248376497607
112,1436181118768,32.7297277293629
113,1436181119442,46.2173697665829
114,1436181120172,51.927284243072
115,1436181120922,42.9665354080105
116,1436181121658,32.5323979790105
117,1436181122389,44.4889944681784
118,1436181123110,29.4265196894716
119,1436181123830,35.0266077730557
120,1436181124537,33.1476405237634
121,1436181125210,27.3953702851765
122,1436181125900,40.6236421420636
123,1436181126522,40.4678210464934
124,1436181127213,44.2705757182447
125,1436181127944,39.2791694000556
126,1436181128729,45.4635292870397
127,1436181129368,36.0282757434697
128,1436181130029,36.81851959364
129,1436181130723,43.6456778530163
130,1436181131433,42.4897167403654
131,1436181132173,45.8218089436702
132,1436181132923,27.6777142928952
133,1436181133733,37.8885809617423
134,1436181134456,67.1208692724667
135,1436181135119,39.5882050973766
136,1436181135868,56.5600826830336
137,1436181136596,60.8483760519316
138,1436181137325,44.3251003705495
139,1436181138056,54.5265869377388
140,1436181138812,33.7310994217532
141,1436181139612,35.3702077144922
142,1436181140311,37.1707214100218
143,1436181142146,52.1637742129091
144,1436181142846,54.7376896299524
145,1436181143550,36.2121358332902
146,1436181144196,39.9875104675047
147,1436181144871,40.0602093000802
148,1436181145601,37.812969232985
149,1436181146308,33.9438189591711
150,1436181146968,36.5698687260434
151,1436181147769,33.3967072230973
152,1436181148496,37.5066622217884
153,1436181149224,35.421552825183
154,1436181149962,52.0781389882923
155,1436181150703,35.2014468794495
156,1436181151419,39.9629832817501
157,1436181152148,44.2830616423108
158,1436181152896,42.7222208735074
159,1436181153601,45.8990828431637
160,1436181154336,33.9480875940812
161,1436181155058,41.4819593547263
162,1436181155721,37.9336220895198
163,1436181156494,55.8170975818532
164,1436181157218,45.4720514819801
165,1436181157951,48.5260576812707
166,1436181158669,36.4766152884074
167,1436181159403,57.8786995331947
168,1436181160124,53.2300996642975
169,1436181160871,50.9008174154503
170,1436181161668,36.0739393595429
171,1436181162343,31.5312359743641
172,1436181163083,43.1721650521425
173,1436181163839,46.5673503045944
174,1436181164582,48.0164279585911
175,1436181165315,36.5406104688901
176,1436181166004,59.535994473724
177,1436181166684,59.5027922049927
178,1436181167321,48.3510780091966
179,1436181167993,40.179759891474
180,1436181168724,52.2683330232857
181,1436181169407,50.3653740357619
182,1436181170128,35.7862006821644
183,1436181170804,31.5748068709694
184,1436181171544,49.5261227915319
185,1436181172275,49.0908986980168
186,1436181173008,42.2847513784423
187,1436181174920,49.7454098473285
188,1436181175616,40.3039743387769
189,1436181176358,48.3610637253493
190,1436181177143,31.4565302742316
191,1436181177850,57.011584522958
192,1436181178541,55.346716551112
193,1436181179279,29.4763291256296
194,1436181180010,48.8902639302302
195,1436181180731,50.8106405833201
196,1436181181476,42.0318057260127
197,1436181182253,42.6445108481624
198,1436181182989,33.2018366141935
199,1436181183721,42.7787124818065
200,1436181184454,37.4638804121243
201,1436181185186,26.6952085446783
202,1436181185858,57.6005303469618
203,1436181186637,50.8196049213835
204,1436181187243,39.0850714986724
205,1436181187863,41.3232178318439
206,1436181188598,49.0775184824857
207,1436181189297,32.9724372090066
208,1436181189969,42.5431917597087
209,1436181190643,44.9799276996989
210,1436181192198,53.0180045003766
211,1436181192977,53.0030376599603
212,1436181193693,52.9780013580763
213,1436181194428,42.3707281057431
214,1436181195149,49.1625070758951
215,1436181195823,25.4754725735723
216,1436181196496,22.5396663826901
217,1436181197194,29.5250862676244
218,1436181197907,26.0297017586436
219,1436181198650,35.0291097150286
220,1436181199376,51.0040059279553
221,1436181200104,49.9485425613736
222,1436181200765,53.5016609325021
223,1436181201365,39.0820916408502
224,1436181202068,39.8182417684814
225,1436181202799,25.8538329550276
226,1436181203527,31.2629086365372
227,1436181204265,31.2963064018653
228,1436181205003,30.5805290774201
229,1436181205724,57.1830161521292
230,1436181206409,47.515944035173
231,1436181206999,31.7768314832104
232,1436181207701,55.1146620787867
233,1436181208482,44.8411879895026
234,1436181209198,43.7773560070786
235,1436181209904,35.5719543867335
236,1436181210625,33.7751855570752
237,1436181211330,37.5802969316432
238,1436181212036,33.1789848415753
239,1436181212771,54.9933292796632
240,1436181213513,35.2142730413731
241,1436181214251,42.8174795847172
242,1436181214996,43.478172547797
243,1436181215728,38.1415351227958
244,1436181216471,32.6951199584974
245,1436181217137,30.8619833607288
246,1436181217858,41.5159543022083
247,1436181218620,42.7223985804115
248,1436181219364,31.9899263978077
249,1436181220082,51.2551770378713
250,1436181220790,52.7934482022685
251,1436181221465,33.5280322441915
252,1436181222216,37.1713105240867
253,1436181222937,53.4696151946232
254,1436181223649,38.7067577573911
255,1436181224315,34.8509870503922
256,1436181225722,54.3766159209518
257,1436181226368,48.8196709590539
258,1436181226996,50.5296484904363
259,1436181227725,46.897854517905
260,1436181228473,48.7110165623534
261,1436181229203,45.2855234807925
262,1436181229924,46.1203121860126
263,1436181230701,29.6974334640983
264,1436181231369,28.5796983782396
265,1436181232103,39.1582712980543
266,1436181232813,34.4351180381345
267,1436181233540,47.0562735519672
268,1436181234297,43.9816944590268
269,1436181235033,35.7472308010429
270,1436181235742,58.26799610674
271,1436181236472,33.3345261178443
272,1436181237154,40.2092274767368
273,1436181237904,31.826215969225
274,1436181238607,54.90430318855
275,1436181239328,46.522969264171
276,1436181240050,42.1381814425973
277,1436181240757,31.2166382088747
278,1436181241464,46.1429842567576
279,1436181242124,46.3225267934519
280,1436181242834,46.6598040026744
281,1436181243568,32.1639629765231
282,1436181244288,34.0262257381895
283,1436181245034,51.0999594236193
284,1436181245759,48.1758603852428
285,1436181246537,49.161378046599
286,1436181247255,34.2524890668053
287,1436181247817,57.6390856346407
288,1436181248484,66.7452457445279
289,1436181249199,55.1430200660871
290,1436181249929,51.3587612091749
291,1436181250658,40.712594403404
292,1436181251384,59.5323388607561
293,1436181252080,38.3939266012323
294,1436181252803,52.1345327558627
295,1436181253522,47.5325006812468
296,1436181254254,30.2690751728857
297,1436181254999,54.0986432136339
298,1436181255706,56.4470497044902
299,1436181256381,38.1003987754139
300,1436181257099,33.4404357668646
301,1436181257864,57.5844693636465
302,1436181258610,31.8815476888107
303,1436181259352,42.3163389652171
304,1436181260087,35.7076281009561
305,1436181260815,32.6485977551653
306,1436181261662,28.2205218905135
307,1436181262345,33.5433209659254
308,1436181263084,43.7560842647772
309,1436181263839,60.4354604722185
310,1436181264563,55.0700642174485
311,1436181265298,61.3311123979139
312,1436181266028,42.2832369510356
313,1436181266767,60.5212800103038
314,1436181267411,39.6040197213891
315,1436181268087,33.4459491342277
316,1436181268818,59.6523046450473
317,1436181269560,53.4467168197173
318,1436181270281,47.383240527977
319,1436181271002,36.6438830131343
320,1436181271712,40.0653349902793
321,1436181272462,35.9194790610967
322,1436181273166,41.8315150967942
323,1436181273839,53.2469437937724
324,1436181274496,43.4021767267478
325,1436181275227,41.7689390454081
326,1436181275968,39.4044202141552
327,1436181276682,44.5787679785727
328,1436181277396,50.9644369650969
329,1436181278096,51.7786116402022
330,1436181278793,37.3119748353215
331,1436181279560,54.6406402951076
332,1436181280213,32.0144119177862
333,1436181280896,35.3552057689633
334,1436181281617,46.4484904909327
335,1436181282362,55.2628428483394
336,1436181283084,28.1976405294528
337,1436181283826,52.7680679674575
338,1436181284571,54.3943799050178
339,1436181285294,45.681225923094
340,1436181286010,39.6729502591522
341,1436181286739,34.9305693849278
342,1436181287388,45.278803148707
343,1436181288067,46.2797695539722
344,1436181288803,47.0155361066249
345,1436181289563,37.5972525708881
346,1436181290290,31.9824830287458
347,1436181291005,34.2851664103587
348,1436181291725,47.0497550661902
349,1436181292501,35.5571708495365
350,1436181293224,34.5716336335801
351,1436181293974,35.5423908257102
352,1436181294689,35.2062784874896
353,1436181295426,34.8040841714516
354,1436181296160,38.4116961003379
355,1436181296905,38.1527147850348
356,1436181297694,56.815998974539
357,1436181298404,48.4193153670062
358,1436181299057,46.4694916179795
359,1436181299774,46.3473308154339
360,1436181300516,41.1719860988729
361,1436181301235,61.5186549200856
362,1436181301944,33.1518629723103
363,1436181302709,48.8845528077853
364,1436181303453,39.9866374475376
365,1436181304161,40.5931685783949
366,1436181304892,30.456863434335
367,1436181305625,60.5457360211487
368,1436181306358,53.0110001961078
369,1436181307090,28.3410388884556
370,1436181307721,29.5866877399297
371,1436181308386,49.3302732022746
372,1436181309115,51.193604840659
373,1436181309859,32.9418328281237
374,1436181310580,35.1864962979245
375,1436181311222,33.8252825643769
376,1436181311943,47.9794030218045
377,1436181312723,31.3138831906025
378,1436181313468,37.947697381365
379,1436181314204,50.1329102842049
380,1436181314942,38.0902041915988
381,1436181315676,52.1817516629603
382,1436181316401,57.018060680688
383,1436181317132,41.7153238353291
384,1436181317891,37.0971333390602
385,1436181318611,42.2008877524276
386,1436181319294,40.0529562483006
387,1436181319961,44.0604835368412
388,1436181320692,38.8138049180243
389,1436181321421,38.4734525062952
390,1436181322143,52.731655980143
391,1436181322922,36.4509166951894
392,1436181323697,53.8727321702543
393,1436181324424,47.2753740295407
394,1436181325153,56.1056386370646
395,1436181325895,58.5040727238773
396,1436181326648,44.8134564032051
397,1436181327443,46.3951451708804
398,1436181328101,41.0789151570198
399,1436181328824,52.5497622273678
400,1436181329488,41.0574226341488
401,1436181330162,34.3560182965096
402,1436181330869,54.6064997367529
403,1436181331559,40.7253619757281
404,1436181332267,43.5011922961886
405,1436181333007,32.798100910164
406,1436181333726,53.4118219217816
407,1436181334454,47.816920374188
408,1436181335185,54.8153977276178
409,1436181335916,56.6695480444263
410,1436181336644,41.2251488568409
411,1436181337381,44.6090583925265
412,1436181338103,59.1027683390984
413,1436181338757,45.3211547646079
414,1436181339411,57.7081837030033
415,1436181340069,31.7206309697363
416,1436181340786,39.5079210611066
417,1436181341515,61.1424393025106
418,1436181342260,58.4892280365125
419,1436181343037,53.5811693367783
420,1436181343778,34.5620283758052
421,1436181344519,35.4815055688978
422,1436181345256,48.3898883756283
423,1436181345999,43.048139205568
424,1436181346745,36.3212889123609
425,1436181347456,60.7252944167558
426,1436181348217,62.2586235348023
427,1436181348942,44.5904871553161
428,1436181349677,46.2677350262943
429,1436181350347,30.8128270673912
430,1436181351080,48.1097579484714
431,1436181351838,49.4256590140962
432,1436181352638,35.9295615066715
433,1436181353364,31.4108286997597
434,1436181354097,31.2904664946547
435,1436181354822,37.7594331098926
436,1436181355559,24.2964686748371
437,1436181356272,42.4549963973185
438,1436181356994,27.5868748193409
439,1436181358551,51.0963283224138
440,1436181359227,47.26576183401
441,1436181359976,31.0534352095289
442,1436181360646,34.735621142763
443,1436181361369,41.3601836896347
444,1436181362123,42.2570088608062
445,1436181362805,24.9273615061448
446,1436181363492,43.3156554783258
447,1436181364250,51.9966616844237
448,1436181364966,48.4815527006917
449,1436181365712,45.2278102608198
450,1436181366429,55.6782623961268
451,1436181367151,53.4659683294892
452,1436181367913,30.4947789807322
453,1436181368517,39.3490871905357
454,1436181369250,39.6717841687455
455,1436181369920,38.1024022441712
456,1436181370606,27.0631502008625
457,1436181371350,44.3884655673675
458,1436181372061,54.4351327236699
459,1436181372765,43.1307828479393
460,1436181373564,38.1078719005752
461,1436181374322,28.2082212156527
462,1436181375047,34.4940452484791
463,1436181375768,49.7785137405221
464,1436181376495,28.4933439358505
465,1436181377225,39.7247630575313
466,1436181379072,50.6068304163928
467,1436181379786,37.3133746443764
468,1436181380502,32.8531647842682
469,1436181381234,21.877932862632
470,1436181381934,58.1384826705563
471,1436181382649,49.318640198126
472,1436181383407,38.9563737376479
473,1436181384085,50.0687093231392
474,1436181384832,38.276931786311
475,1436181385571,37.7889828687375
476,1436181386277,43.4226201879988
477,1436181386999,38.0563947655312
478,1436181387771,43.526801396656
479,1436181388450,27.9499959318509
480,1436181389180,53.4528113106094
481,1436181389907,42.9398943975174
482,1436181390614,38.9079412681828
483,1436181391306,53.3843640556874
484,1436181391997,61.0698472700786
485,1436181392741,57.2781103426324
486,1436181393550,53.315814994854
487,1436181394273,49.9088379904805
488,1436181395011,47.5784312323498
489,1436181395768,33.4142605605594
490,1436181396500,30.9113024758663
491,1436181397206,53.037507659145
492,1436181397945,47.2958851780286
493,1436181398640,31.1130240552331
494,1436181400023,27.1781814079042
495,1436181400649,41.6667238647323
496,1436181401347,49.3056854461692
497,1436181402106,53.5052490811833
498,1436181402876,40.1411185569072
499,1436181403621,34.4256162769985
500,1436181404295,44.5976523631675
501,1436181405018,42.4777606187071
502,1436181405760,24.1437376520296
503,1436181406457,49.7355391398124
504,1436181407189,35.4923956234932
505,1436181407889,32.1271244095887
506,1436181408549,28.8022154098116
507,1436181409290,45.2162701608604
508,1436181410035,46.2509941570438
509,1436181410748,50.5183031704562
510,1436181411425,47.1338839016003
511,1436181412179,57.3502940273575
512,1436181412893,33.0339164346029
513,1436181413661,41.8233913772882
514,1436181414387,43.734961271289
515,1436181415103,33.5487177460253
516,1436181415840,42.5211513353681
517,1436181416568,45.1450152379135
518,1436181417294,34.6772941790605
519,1436181418004,21.3617578007169
520,1436181418700,27.5527462348344
521,1436181419427,42.1552622445416
522,1436181420160,39.7402440617754
523,1436181420958,33.5008945935827
524,1436181421535,34.2120525985359
525,1436181422174,53.2419628500877
526,1436181422867,37.5513142756873
527,1436181423583,38.1206399536495
528,1436181424309,45.4534552676391
529,1436181425019,36.6038237521031
530,1436181425711,35.3456412779202
531,1436181426298,38.7133847826906
532,1436181426992,35.9076183327616
533,1436181427685,37.0133857513085
534,1436181428380,37.6852549575302
535,1436181429005,54.1147958744259
536,1436181429683,27.7364849994174
537,1436181430433,38.595105274623
538,1436181431144,26.4957058244971
539,1436181431773,34.9328970025028
540,1436181432436,39.2296199790407
541,1436181433162,27.8145668060595
542,1436181433901,36.2681438751133
543,1436181434624,25.5690300774189
544,1436181435336,42.0203690349404
545,1436181436061,33.2788999500156
546,1436181436790,34.0646093291041
547,1436181437512,56.6727909661838
548,1436181438247,34.7245290903195
549,1436181438998,37.1140658489776
550,1436181439724,47.3053836413156
551,1436181440452,41.3451397679582
552,1436181441144,53.2231849181291
553,1436181441827,48.5414924141923
554,1436181442592,47.2033854124975
555,1436181443310,45.6552750163288
556,1436181444049,34.3766496729157
557,1436181444716,48.3735772236965
558,1436181446168,39.1389354592898
559,1436181446843,29.3876329735906
560,1436181447576,49.1448082927628
561,1436181448286,41.6244451157656
562,1436181448945,28.0966790139388
563,1436181449644,36.3654697020818
564,1436181450373,51.3834407190166
565,1436181451089,57.1434570939355
566,1436181451822,50.639466257709
567,1436181452499,37.4064931528195
568,1436181453196,29.5411767193091
569,1436181453908,55.0677344082049
570,1436181454646,36.3195225631136
571,1436181455380,50.7840060576366
572,1436181456098,41.5894404000415
573,1436181456797,50.0923424211603
574,1436181457529,39.4190926972978
575,1436181458246,36.7081063364011
