id,attr_time,attr_db
1,1436181038099,36.1138264817037
2,1436181038938,36.6805749237799
3,1436181039586,34.2938168189003
4,1436181040313,33.6809161703708
5,1436181041018,42.5684571538459
6,1436181041705,32.2702251206834
7,1436181042457,43.0850792531282
8,1436181043203,37.1659773994961
9,1436181043888,41.074310467413
10,1436181044537,44.1794513964349
11,1436181045251,31.0484300146791
12,1436181045973,61.8754921831789
13,1436181046726,62.4805177571727
14,1436181047446,59.2281222513338
15,1436181048198,33.0398537444275
16,1436181048972,42.6169837527184
17,1436181049703,27.1475641242633
18,1436181050422,34.6632163805555
19,1436181051164,40.5975754036824
20,1436181051885,23.9631770547072
21,1436181052636,47.0918834532325
22,1436181053371,52.8329116519109
23,1436181054102,28.3678695621443
24,1436181054816,27.6155616218662
25,1436181055533,31.2494880274634
26,1436181056257,59.0027604980361
27,1436181056984,32.2145647751594
28,1436181057719,30.4893828778208
29,1436181058380,26.9586286208163
30,1436181059106,59.8218386948953
31,1436181059877,50.066136128745
32,1436181060597,43.3594543357834
33,1436181061328,26.2744460540537
34,1436181062055,34.0791725166032
35,1436181062733,24.7194713342513
36,1436181063457,52.1369189446039
37,1436181064129,59.2590432087036
38,1436181064810,61.2145162611106
39,1436181065549,64.2983561642954
40,1436181066268,39.6509246223203
41,1436181066986,38.5583446619917
42,1436181067663,63.5043196630846
43,1436181068308,45.793430509202
44,1436181069035,56.8744791169899
45,1436181069728,35.3079081751131
46,1436181070377,35.4433975764017
47,1436181071164,45.5766470731313
48,1436181071860,43.7183182388967
49,1436181072581,52.9612960633913
50,1436181073300,39.5170235977039
51,1436181074041,61.7258745949998
52,1436181074697,46.4763101775317
53,1436181075422,52.7051088946553
54,1436181076159,51.3599120042956
55,1436181076898,55.5870799195801
56,1436181077617,59.6572759310535
57,1436181078332,30.2118198479623
58,1436181079027,28.3100285090007
59,1436181079685,54.918454519843
60,1436181080414,31.6050196511996
61,1436181081127,27.4797291026501
62,1436181081899,46.5539534596218
63,1436181082620,30.6372809161996
64,1436181083350,60.4728412171616
65,1436181084094,33.9818949412359
66,1436181084832,61.4045063846102
67,1436181085572,33.8858434051346
68,1436181086307,57.5519975314884
69,1436181087029,29.6110111071419
70,1436181087774,46.2441000558077
71,1436181088514,38.7486107048154
72,1436181089266,66.8506969724408
73,1436181089988,38.8622323365752
74,1436181090609,47.3091949259703
75,1436181091308,30.7385299036197
76,1436181092035,65.8633008304951
77,1436181092767,47.8985991895372
78,1436181093480,53.7056581343815
79,1436181094191,63.4133242081779
80,1436181094873,24.1572174743816
81,1436181095597,68.0616382026651
82,1436181096324,40.0935984739326
83,1436181097051,71.2295424373351
84,1436181097801,47.9085665895661
85,1436181098537,42.4583468944948
86,1436181099264,59.4939170674528
87,1436181099936,21.4715614801053
88,1436181100603,65.0510626098535
89,1436181101382,61.9014113571983
90,1436181102102,53.8076249560114
91,1436181102791,28.3401281574234
92,1436181103390,59.0347392547405
93,1436181104091,65.8191286941798
94,1436181104814,45.3732387772098
95,1436181105554,54.8364872048424
96,1436181106292,58.2266451663455
97,1436181107002,68.7994942452255
98,1436181107747,52.7795564805059
99,1436181108455,30.2332329182014
100,1436181109209,32.0388248512935
101,1436181109941,35.4697243228607
102,1436181110564,44.2447379700545
103,1436181111270,31.5419488957046
104,1436181112034,29.6418320163268
105,1436181112735,36.3860630918953
106,1436181113392,44.3859837892262
107,1436181114098,45.1137003602438
108,1436181114824,34.1795267177197
109,1436181115562,58.2553272404814
110,1436181116284,57.8386346891673
111,1436181116999,36.3054356508906
112,1436181117741,31.8125332749512
113,1436181118481,41.3208412138579
114,1436181119221,41.6803228034366
115,1436181119957,40.2481384746875
116,1436181120684,54.0961934935946
117,1436181121357,40.03112102277
118,1436181122079,32.5944789600239
119,1436181122854,44.5366718850642
120,1436181123590,31.319718074546
121,1436181124345,29.3640900773201
122,1436181125106,32.2202162002336
123,1436181125800,39.8548211014956
124,1436181126534,36.524588880604
125,1436181127272,49.8069701399642
126,1436181128030,41.2311109982087
127,1436181128712,33.5176862111462
128,1436181129396,41.2837918422932
129,1436181130112,41.7078882945383
130,1436181130756,37.4335960658262
131,1436181131427,35.2919161860382
132,1436181132160,39.6049871291513
133,1436181132894,32.0450565308958
134,1436181133635,49.1041118470502
135,1436181134380,48.3023686265494
136,1436181135116,57.0058700256792
137,1436181135776,62.8830339232102
138,1436181136515,44.2964637869542
139,1436181137242,34.8941123486968
140,1436181137973,44.4041230495424
141,1436181138705,61.0991653546692
142,1436181139450,32.0005891903559
143,1436181140167,34.3056265403934
144,1436181140905,36.5994268367506
145,1436181141633,61.9343580972003
146,1436181142359,29.5985581801922
147,1436181143058,44.1211745581887
148,1436181143814,53.1035139937392
149,1436181144533,58.8007960774473
150,1436181145270,30.2692888010919
151,1436181146039,32.6265754266222
152,1436181146772,30.7352753859252
153,1436181147490,29.1895993618946
154,1436181148226,29.6301879310895
155,1436181148948,31.6957976829548
156,1436181149671,29.7935431641083
157,1436181150414,58.0951471505206
158,1436181151115,34.7949940614837
159,1436181151831,32.907616626545
160,1436181152541,41.0771798615599
161,1436181153247,33.3900110814972
162,1436181153964,32.3974846167021
163,1436181154640,37.9855721539169
164,1436181155358,68.8353190427818
165,1436181156088,33.012555985134
166,1436181156839,65.2759775934845
167,1436181157512,52.3173503809824
168,1436181158262,46.3445713405616
169,1436181158978,61.7015154443625
170,1436181159739,57.0233292542057
171,1436181160499,60.4690110884609
172,1436181161249,65.2845361485378
173,1436181161987,46.9113273871739
174,1436181162698,39.1298090578992
175,1436181163458,43.5730609340483
176,1436181164125,39.1929832767974
177,1436181164876,59.2865887217338
178,1436181165605,29.0667540825203
179,1436181166327,64.0209219029532
180,1436181167079,65.3820176394327
181,1436181167809,61.1023400218856
182,1436181168571,34.2637398849651
183,1436181169295,61.7795377727096
184,1436181170031,58.5995355793974
185,1436181170777,44.6436059349377
186,1436181171505,44.6197038421677
187,1436181172246,28.6308535734146
188,1436181173017,58.3023804569534
189,1436181173799,44.4349524723828
190,1436181174570,27.7111829015969
191,1436181175329,59.668784479163
192,1436181176048,32.8285758896675
193,1436181176785,56.0118084494488
194,1436181177525,63.1882363747071
195,1436181178204,64.0715785408987
196,1436181179667,36.5694005900457
197,1436181180340,64.1736266361418
198,1436181181081,42.7766264740101
199,1436181181810,46.7752348535
200,1436181182560,51.3376997329554
201,1436181183278,58.337733198931
202,1436181184020,40.2630376270327
203,1436181184688,43.4988641230175
204,1436181185315,23.234109311915
205,1436181186011,60.2932915721606
206,1436181186736,64.7301879995949
207,1436181187448,60.6971078942624
208,1436181188173,49.8803347983016
209,1436181188905,61.5693538561376
210,1436181189576,49.8866899515894
211,1436181190361,43.6310861090481
212,1436181191143,31.3968944353579
213,1436181191822,40.6200040055247
214,1436181192547,58.8656098347622
215,1436181193273,47.2243039452809
216,1436181194014,44.2487116020224
217,1436181194742,44.2398159560167
218,1436181195465,44.8837900066246
219,1436181196180,48.8958151785192
220,1436181196917,35.4001964164724
221,1436181197643,33.7186988217198
222,1436181198316,31.6878325003531
223,1436181199762,64.2253372467797
224,1436181200484,44.2292050244524
225,1436181201212,57.6245584907527
226,1436181201940,52.8586984668137
227,1436181202682,38.1804759603777
228,1436181203421,17.745748100708
229,1436181204142,58.0446110228191
230,1436181204866,20.8636278256773
231,1436181205600,16.8217992232716
232,1436181206282,49.2803794278458
233,1436181207006,44.0897250949606
234,1436181207734,45.6909739507287
235,1436181208475,31.2266997916562
236,1436181209177,56.632560488333
237,1436181209842,62.192536415241
238,1436181210591,43.074832807032
239,1436181211319,55.9718716576918
240,1436181212047,31.848264909074
241,1436181212764,60.6599092217814
242,1436181213516,39.7418682099211
243,1436181214258,65.1550822371116
244,1436181215000,51.8339127765653
245,1436181215689,59.2407018349993
246,1436181216341,21.3567461080352
247,1436181217022,22.5537555134728
248,1436181217742,18.3103828272071
249,1436181218436,61.0177113940595
250,1436181219032,57.9283026246185
251,1436181219717,60.0424404281382
252,1436181220446,61.0034303939772
253,1436181221208,54.2428726482787
254,1436181221947,32.9002042647156
255,1436181222679,61.5038945342765
256,1436181223412,41.178974615634
257,1436181224143,36.5826614702537
258,1436181224874,21.3701485700705
259,1436181225598,60.0858026719221
260,1436181226316,56.2871007661203
261,1436181227022,57.2384817380372
262,1436181227726,62.0934677127526
263,1436181229500,38.8958929511081
264,1436181230126,59.0830301106628
265,1436181230827,49.3403046910123
266,1436181231571,36.341438647239
267,1436181232311,57.6847997723882
268,1436181233045,56.0818915342364
269,1436181233809,47.2457345472942
270,1436181234526,33.3332481154519
271,1436181235268,31.8296015148884
272,1436181235996,30.3127440253845
273,1436181236724,31.9624584621272
274,1436181237453,57.528509678533
275,1436181238128,59.4739543175188
276,1436181238805,59.0146256382837
277,1436181239538,67.7909893664027
278,1436181240255,49.5040870039751
279,1436181241010,40.7066761570483
280,1436181241659,53.5309782283288
281,1436181242396,53.3560863168248
282,1436181243132,58.2574568719491
283,1436181243937,40.1518177710671
284,1436181244667,45.2965691627039
285,1436181245352,47.9193673664405
286,1436181246745,42.4537747721972
287,1436181247471,28.6396389955442
288,1436181248148,73.8364369633159
289,1436181248856,56.6686833287679
290,1436181249546,58.8933944268706
291,1436181250233,57.96065540785
292,1436181250970,46.6635690974043
293,1436181251855,57.1811295067779
294,1436181252448,38.7039124822375
295,1436181253119,59.7308217767332
296,1436181253883,55.3041694621859
297,1436181254601,28.8555838814891
298,1436181255339,53.6806966756039
299,1436181256069,61.6051135558909
300,1436181256794,45.0071629263356
301,1436181257526,28.1282772942771
302,1436181258315,63.6360824269455
303,1436181258994,35.926662253527
304,1436181259680,46.2759046845431
305,1436181260442,28.4708654131084
306,1436181261176,25.0259010254329
307,1436181261905,24.7125530203975
308,1436181262497,23.8741542892558
309,1436181263188,57.0475378813981
310,1436181263905,50.002864463697
311,1436181264632,35.6612061281408
312,1436181265352,53.9984704846662
313,1436181266058,43.9105163310781
314,1436181266794,45.5432851596015
315,1436181267530,46.0554479273686
316,1436181268294,29.520719919269
317,1436181269016,46.2515246333457
318,1436181269723,49.62908300786
319,1436181270367,60.9363240773277
320,1436181271089,42.3127064237336
321,1436181271822,64.8505113956442
322,1436181272505,55.5416871209154
323,1436181273120,29.7140911834153
324,1436181273829,68.827928547075
325,1436181274543,58.0542567174466
326,1436181275269,28.4364164602617
327,1436181275996,37.286919268245
328,1436181276732,56.5426293411188
329,1436181277449,56.7670501196754
330,1436181278180,40.682986863299
331,1436181278922,38.2848684495884
332,1436181279624,54.8164120857933
333,1436181280273,51.5338830200834
334,1436181280965,44.2287993362515
335,1436181281769,53.8458960849746
336,1436181282503,59.8236487375044
337,1436181283222,27.2834301504724
338,1436181283854,26.1501715082248
339,1436181284573,54.4727920582762
340,1436181285294,51.4619791649102
341,1436181286004,46.4457128246895
342,1436181286741,51.3300807213408
343,1436181287487,26.9567071911696
344,1436181288230,47.8432895125487
345,1436181288973,60.2427130951289
346,1436181289716,41.4151998895255
347,1436181290453,36.0678321159144
348,1436181291122,41.245640706859
349,1436181291794,52.6631008536637
350,1436181292454,35.9126043483661
351,1436181293133,33.0521208054599
352,1436181293839,31.8122608852344
353,1436181294456,34.036756838867
354,1436181295143,34.1739328432941
355,1436181295872,41.5478126875379
356,1436181296608,45.6885460748216
357,1436181297345,44.370789366823
358,1436181298102,59.913420139901
359,1436181298844,57.7303121906462
360,1436181299567,43.5658787093228
361,1436181300285,61.9193088733674
362,1436181301006,45.7914483637078
363,1436181301746,45.1075285760444
364,1436181302543,40.0507870041873
365,1436181303278,60.1128419828471
366,1436181304036,57.1256855866111
367,1436181304717,50.8910221575581
368,1436181305424,28.8737925138989
369,1436181306145,57.5687499512403
370,1436181306905,53.9013188027955
371,1436181307577,25.7485929908582
372,1436181308299,57.9788439241057
373,1436181309003,57.7124924355516
374,1436181309746,35.7774248584052
375,1436181310473,45.0850701214616
376,1436181311211,46.4067570561136
377,1436181311869,54.9064013336662
378,1436181312449,47.4840345024654
379,1436181313166,38.7464659253072
380,1436181313906,38.8375274030865
381,1436181314609,59.9389074163483
382,1436181315303,42.35108706191
383,1436181316038,61.624915852775
384,1436181316768,58.111715548224
385,1436181317526,49.4740396187918
386,1436181318271,57.9647229635536
387,1436181319004,56.3268106833449
388,1436181319726,47.2584611940644
389,1436181320466,59.8367998092595
390,1436181321204,32.1250610104214
391,1436181321958,49.6381830631493
392,1436181322637,28.9911293640574
393,1436181323438,43.4275180066099
394,1436181324154,58.1571204399789
395,1436181324879,61.7844989989946
396,1436181325492,63.4829521496384
397,1436181326231,65.4209830638003
398,1436181326950,56.3724123997672
399,1436181327675,25.3546586427758
400,1436181328406,60.9486603635825
401,1436181329154,36.8588036582921
402,1436181329894,48.1824400666289
403,1436181330637,46.8288276976711
404,1436181331367,65.9420751213107
405,1436181332093,32.0006770984147
406,1436181332796,40.7366508196658
407,1436181333403,28.567510247293
408,1436181334084,44.8775946494396
409,1436181334780,48.6144276798736
410,1436181335501,59.5768124180055
411,1436181336261,60.7211489492669
412,1436181336850,32.0590186093566
413,1436181337594,43.9980278582765
414,1436181338341,69.655662839941
415,1436181339075,52.4495472213932
416,1436181339806,59.6756596310745
417,1436181340535,37.1786044670046
418,1436181341257,33.1052625861203
419,1436181342006,52.6704483057717
420,1436181342746,41.3472682308774
421,1436181343470,54.5511706302634
422,1436181344203,49.0736569350101
423,1436181344920,44.0212610597847
424,1436181345635,63.315640441705
425,1436181346344,45.9000862030792
426,1436181347064,28.2419867975405
427,1436181347664,57.0026918649096
428,1436181348362,59.1034073405923
429,1436181349099,58.5614053625996
430,1436181349838,41.065720294237
431,1436181350570,25.9779518444709
432,1436181351311,64.0403544380876
433,1436181352037,58.0887729105607
434,1436181352711,54.7647191908363
435,1436181353368,49.6335777830258
436,1436181354088,24.461520975097
437,1436181354833,27.5216389996854
438,1436181355552,57.9755286400406
439,1436181356225,47.6287679772575
440,1436181356904,47.4136994482531
441,1436181357666,55.4520733492987
442,1436181358397,52.4702563559083
443,1436181359130,50.7555372643441
444,1436181359853,48.3326281506931
445,1436181360587,69.5809072426886
446,1436181361295,66.9606754769315
447,1436181362029,57.8690818401245
448,1436181362783,42.2311408093241
449,1436181363522,41.3301586167231
450,1436181364236,33.0048846284889
451,1436181364915,54.5305858221144
452,1436181365567,61.8238795327071
453,1436181366313,35.9814175867203
454,1436181367079,48.2018151864631
455,1436181367780,59.5298156558836
456,1436181368454,39.7811355427786
457,1436181369183,66.7300472009582
458,1436181369936,50.8687473957767
459,1436181370657,42.3893105474734
460,1436181371376,47.0149171773104
461,1436181372110,48.1536762727558
462,1436181372909,37.6682285313759
463,1436181373604,61.9652910438928
464,1436181374348,28.7744588695906
465,1436181375069,55.3090162541921
466,1436181375793,45.11858857603
467,1436181376472,37.6347602423236
468,1436181377219,61.4691647278284
469,1436181377956,58.6177830385843
470,1436181378674,19.5146168532056
471,1436181379429,44.2128995477314
472,1436181380146,49.1815855424146
473,1436181380859,45.3324457007388
474,1436181381580,22.9115026745025
475,1436181382316,62.6452427010935
476,1436181384023,17.8024675349444
477,1436181384761,52.1025320424109
478,1436181385446,44.7216413346655
479,1436181386101,38.6505298851952
480,1436181386821,55.0117623593736
481,1436181387535,41.6582325789623
482,1436181388271,54.5937770908263
483,1436181389016,18.822981620458
484,1436181389683,55.5839388017973
485,1436181390411,46.8492741205251
486,1436181391140,49.4814808771619
487,1436181391868,52.2369232636845
488,1436181392578,40.7092874694603
489,1436181393289,56.6094739400864
490,1436181393966,61.8283806463877
491,1436181394692,54.2618210651265
492,1436181395428,51.6315735212517
493,1436181396150,35.633628619741
494,1436181396868,38.711026735225
495,1436181397556,56.1835881265052
496,1436181398300,54.9022556254587
497,1436181399028,16.6726277435825
498,1436181399764,42.5922773713286
499,1436181400482,26.5445749424848
500,1436181401214,41.0074041150998
501,1436181401950,33.2683630830779
502,1436181402692,63.2794231709681
503,1436181403452,64.7006126873078
504,1436181404177,58.8460315204994
505,1436181404906,54.3301151875071
506,1436181405639,30.799086476458
507,1436181406340,50.4431030277105
508,1436181408117,23.7097506166445
509,1436181408843,20.8369831774376
510,1436181409573,39.9368937047124
511,1436181410294,60.8372023572263
512,1436181411012,33.6422987471163
513,1436181411744,59.6267754579546
514,1436181412466,50.5507393253787
515,1436181413210,45.2021720406471
516,1436181413881,56.0806291899408
517,1436181414633,46.4297510796202
518,1436181415368,18.0733399013361
519,1436181416085,59.9072843324173
520,1436181416774,40.437037046783
521,1436181417487,28.5154963646729
522,1436181418224,14.6321172723715
523,1436181418959,46.4541044571914
524,1436181419668,44.1771374792823
525,1436181420404,39.7280799230139
526,1436181421114,42.762673993512
527,1436181421846,16.168707210161
528,1436181422565,58.2543514154134
529,1436181423303,36.1645637809976
530,1436181424056,44.9931837797452
531,1436181424777,49.7871280638023
532,1436181425490,16.9823854675491
533,1436181426219,22.8747966020216
534,1436181426936,22.5123164058399
535,1436181427680,16.1518105921914
536,1436181428351,18.8432685333236
537,1436181429040,19.5844895152715
538,1436181429770,19.0255261793302
539,1436181430502,42.439251091435
540,1436181431231,27.6098475930119
541,1436181432001,58.1429744229919
542,1436181432727,47.4001519749181
543,1436181433420,26.1005573977965
544,1436181434101,43.0175578010095
545,1436181434831,18.345247651519
546,1436181435568,20.4212484617779
547,1436181436284,27.2848106082121
548,1436181437006,40.891797626717
549,1436181437694,25.493782436951
550,1436181438429,64.0686744002096
551,1436181439156,40.6893011170688
552,1436181439884,46.2303071810785
553,1436181440607,38.884627886834
554,1436181441310,43.4919158148692
555,1436181442056,35.7490378010559
556,1436181442820,62.6380365528996
557,1436181443547,22.4298868217372
558,1436181444228,45.2226834245653
559,1436181445854,22.3685201442705
560,1436181446538,32.6428095580855
561,1436181447279,19.5074303389697
562,1436181448031,59.7663450361645
563,1436181448786,30.8342692999307
564,1436181449505,24.7106349210603
565,1436181450200,57.1255630497251
566,1436181450953,55.2208825728639
567,1436181451674,54.0117039349535
568,1436181452395,32.3427127368021
569,1436181453136,34.9174918800509
570,1436181453907,35.5422277418737
571,1436181454489,38.670491433874
572,1436181455172,54.1925421065518
573,1436181455892,38.5231876928697
574,1436181456627,62.7797654695721
575,1436181457341,40.6370342251105
