id,attr_time,attr_db
1,1436181038484,41.9854630258478
2,1436181039137,39.6228075850383
3,1436181039801,38.6075606356962
4,1436181040464,38.1156661384688
5,1436181041104,37.7965131591258
6,1436181041706,44.9544728455136
7,1436181042307,46.4822936082642
8,1436181042998,53.3699241997235
9,1436181043645,37.3696055851527
10,1436181044261,70.2435307770594
11,1436181044862,65.9173867303724
12,1436181045524,42.0325778118883
13,1436181046152,70.0043987102847
14,1436181046812,62.3929694460025
15,1436181047489,38.6020426335168
16,1436181048130,43.6708672124987
17,1436181048778,36.30357220214
18,1436181049388,39.7211230526445
19,1436181050045,40.3294186861054
20,1436181050712,47.6372592652335
21,1436181051355,43.1972009025517
22,1436181052009,37.2282281769102
23,1436181052650,52.1556181079492
24,1436181053261,46.0463940366375
25,1436181053921,32.4691334738243
26,1436181054537,28.7852388599986
27,1436181055219,32.3996633612291
28,1436181055826,26.2845864126686
29,1436181056970,45.6272369407431
30,1436181057586,26.3655545031706
31,1436181058234,24.335963548842
32,1436181058861,66.8164333039117
33,1436181059464,61.8476167166051
34,1436181060086,53.2794659347776
35,1436181060719,33.1945345003919
36,1436181061366,37.0328776721727
37,1436181062018,42.8762895459044
38,1436181062642,27.8159965393445
39,1436181063259,67.5015240148791
40,1436181063866,65.6700564349285
41,1436181064526,41.3049861577058
42,1436181065180,39.8735443331245
43,1436181065825,63.3067436908043
44,1436181066459,51.0871328096669
45,1436181067088,34.2722217948702
46,1436181067753,39.1374789766166
47,1436181068361,64.1540867631967
48,1436181069055,57.929315157942
49,1436181069695,49.4753281296913
50,1436181070368,28.8126825248938
51,1436181071033,63.197206501759
52,1436181071702,37.6186985516357
53,1436181072373,57.7361127811352
54,1436181073034,62.6333328824834
55,1436181073677,42.1313488091759
56,1436181074370,56.7849771166883
57,1436181074946,31.6391560620781
58,1436181076343,48.2671091125429
59,1436181076948,63.7959281001928
60,1436181077583,68.4788967515576
61,1436181078227,37.354932544143
62,1436181078854,37.1243222996706
63,1436181079441,38.4233749213322
64,1436181080066,28.7631359422835
65,1436181080716,24.6732971232316
66,1436181081389,40.9703490137298
67,1436181082037,59.3268104351546
68,1436181082664,27.8105508196605
69,1436181083267,53.8163654299663
70,1436181083890,51.3981275246308
71,1436181084538,60.2487715491315
72,1436181085204,45.5289933424081
73,1436181085826,63.076881959985
74,1436181086489,65.9569453949075
75,1436181087134,31.0063297286266
76,1436181087796,44.4709790846231
77,1436181088397,60.629222274201
78,1436181088981,37.1771431855128
79,1436181089641,62.7470649578335
80,1436181090289,71.9133429501811
81,1436181090932,54.877258011583
82,1436181091593,50.5968640182262
83,1436181092252,66.0013593455043
84,1436181092914,60.1943517194501
85,1436181093519,61.8605601689101
86,1436181094864,62.9492550144326
87,1436181095460,72.9482285771333
88,1436181096079,59.9451244074785
89,1436181096728,51.8587004986269
90,1436181097367,33.0977025858431
91,1436181098003,34.2024895140103
92,1436181098678,32.3494865866889
93,1436181099349,26.7374152963732
94,1436181100036,32.0598582260688
95,1436181100690,63.0465103140116
96,1436181101368,37.9699594683651
97,1436181102042,47.770186464346
98,1436181102725,52.113966585697
99,1436181103383,69.8904964672916
100,1436181104029,37.7592674607715
101,1436181104736,56.7287473076338
102,1436181105363,58.3128082095881
103,1436181106013,57.3670052410527
104,1436181106690,33.5893313627351
105,1436181107313,59.2377265381285
106,1436181107964,49.4041704553797
107,1436181108584,33.072736172021
108,1436181109220,35.6991978337388
109,1436181109829,69.2342649852795
110,1436181111221,31.7846383315545
111,1436181111871,35.7657871962521
112,1436181112529,71.0361193070141
113,1436181113184,69.468201533889
114,1436181113818,50.811351300107
115,1436181114451,33.4056218473622
116,1436181115100,63.0879729770265
117,1436181115744,69.4078776638397
118,1436181116422,65.7257006166663
119,1436181117043,67.0022081291142
120,1436181117730,31.9017484741118
121,1436181118417,34.5187378328762
122,1436181119050,62.4986915226959
123,1436181119714,67.5044861303407
124,1436181120398,62.1351919149717
125,1436181121065,53.6081623328938
126,1436181121712,30.0921333852346
127,1436181122385,33.9490783536025
128,1436181123042,53.7771804205063
129,1436181123671,30.5599478773827
130,1436181124328,40.0764120690221
131,1436181124955,46.9475535077627
132,1436181125675,40.6840924699789
133,1436181126293,40.6301622605266
134,1436181126943,61.6361735555625
135,1436181127557,45.1049393781285
136,1436181128197,42.3239599170226
137,1436181128859,35.7409358394019
138,1436181129515,55.4553684285146
139,1436181130215,46.9088410535904
140,1436181130888,34.8033450865458
141,1436181131567,42.673345213968
142,1436181132234,48.2924906795779
143,1436181132884,37.0569995737212
144,1436181133519,34.2907670161564
145,1436181134171,40.3851841512112
146,1436181134831,66.499016023833
147,1436181135486,62.5654437715086
148,1436181136153,46.3493967018488
149,1436181136783,64.5484603559493
150,1436181137461,61.9327940885956
151,1436181138106,51.3276290732982
152,1436181138729,53.4587741329099
153,1436181139354,43.2964318502056
154,1436181139996,45.3678760637614
155,1436181140674,64.6622675782541
156,1436181141267,57.7899385497768
157,1436181141920,66.8008815587402
158,1436181142578,52.3104572670395
159,1436181143246,43.7124788067455
160,1436181143907,59.7087771856276
161,1436181144544,45.9401516368525
162,1436181145160,40.5519213455025
163,1436181145804,47.0208779592473
164,1436181146427,36.5317063886516
165,1436181147105,52.8075832098977
166,1436181147741,35.564962960286
167,1436181148420,36.7159554146924
168,1436181149068,46.6170765880494
169,1436181149661,35.7444612473514
170,1436181150255,62.7876361647331
171,1436181150836,61.0044156702222
172,1436181151415,40.7996692592059
173,1436181152042,40.1536395725213
174,1436181152713,44.1408084103827
175,1436181153367,42.6730282250546
176,1436181154000,42.7952794181175
177,1436181154661,44.3899391693494
178,1436181155294,51.4896275915944
179,1436181155908,42.4429459692037
180,1436181156569,64.6385775486542
181,1436181157234,60.6562724923504
182,1436181157861,66.1600666472961
183,1436181158475,47.7480454514178
184,1436181159119,65.4328368567941
185,1436181159769,64.8202470627063
186,1436181160458,62.3734065159304
187,1436181161164,54.4865842144663
188,1436181161850,43.6875939651325
189,1436181162493,73.3666765000318
190,1436181163177,53.1901200042196
191,1436181163814,68.0035430490731
192,1436181164462,59.8551019742787
193,1436181165074,67.2078595882341
194,1436181165692,35.2167105254522
195,1436181166334,33.4946695234575
196,1436181167000,69.1526189271376
197,1436181167607,63.036952236154
198,1436181168263,62.1108013566766
199,1436181168928,38.8896767956655
200,1436181169582,57.9763938342948
201,1436181170213,64.3077243521391
202,1436181170825,44.5975505074867
203,1436181171495,34.5194010620065
204,1436181172137,63.3035294424762
205,1436181172819,64.1594653867816
206,1436181173491,49.1145165263545
207,1436181174175,50.5486638452555
208,1436181174816,33.007418897971
209,1436181175483,66.3583896220889
210,1436181176144,35.3850618456646
211,1436181176813,63.9561829971459
212,1436181177445,43.8633756192822
213,1436181178093,66.7436304720343
214,1436181178766,32.3829598765951
215,1436181179374,53.0627923812262
216,1436181180074,46.6484491547368
217,1436181180741,67.3626861460585
218,1436181181394,36.3753206059041
219,1436181182059,37.3469218014797
220,1436181182727,58.3004228730476
221,1436181183400,65.6719319806325
222,1436181184063,60.44960111386
223,1436181184696,37.7531861372665
224,1436181185362,40.0868741670706
225,1436181185976,68.6766514825226
226,1436181186603,68.8255345508094
227,1436181187231,66.8956224147936
228,1436181187884,56.7479985210045
229,1436181188467,48.3010740239271
230,1436181189118,68.6164004937065
231,1436181189851,55.305392388563
232,1436181190498,54.9590246140694
233,1436181191175,60.810191406295
234,1436181191837,55.9073604119142
235,1436181192517,35.7647353728651
236,1436181193187,65.2287583895991
237,1436181193849,48.6879403130402
238,1436181194514,69.1488175851613
239,1436181195144,34.8688463656608
240,1436181195771,64.5098967752443
241,1436181196417,44.599333259312
242,1436181197088,39.228021015177
243,1436181197713,50.0229785954161
244,1436181198359,45.1891766098589
245,1436181198952,22.0993515863357
246,1436181199618,57.3659773002648
247,1436181200234,64.8660949874566
248,1436181200881,64.3345710516559
249,1436181201535,57.2324588378128
250,1436181202166,56.3934540839703
251,1436181202827,38.1111136852197
252,1436181203457,44.3076514163758
253,1436181204076,22.3260830067895
254,1436181204673,57.3086763730895
255,1436181205252,26.5380181395665
256,1436181205900,22.3972918481923
257,1436181206567,55.4081250666953
258,1436181207258,54.1561260871976
259,1436181207924,60.1664337904256
260,1436181208530,27.7228477974716
261,1436181209139,64.8527250363209
262,1436181209766,53.2400694779398
263,1436181210433,59.951924624934
264,1436181211083,23.5605278314234
265,1436181211742,50.4476471750149
266,1436181212393,68.0489075263801
267,1436181213059,61.3504562943893
268,1436181213746,38.9425342937385
269,1436181214414,70.933017915516
270,1436181215059,57.3117962192317
271,1436181215693,69.2393753741202
272,1436181216324,46.758122547518
273,1436181216982,21.7501709504937
274,1436181217636,20.6972336965869
275,1436181218266,67.1711257527352
276,1436181218906,44.584827152501
277,1436181219546,71.9997086322555
278,1436181220244,40.6571148569727
279,1436181220871,41.202816288164
280,1436181221535,57.1315149118706
281,1436181222183,51.6341344911425
282,1436181222820,66.3387602475833
283,1436181223480,69.4910685581162
284,1436181224108,47.9430345402286
285,1436181224764,51.372232974403
286,1436181225372,55.530815971604
287,1436181226037,44.9172209701246
288,1436181226692,37.7257315013074
289,1436181227316,73.0169595479298
290,1436181227994,48.7150636431226
291,1436181228645,48.8660284692309
292,1436181229297,63.6952176797814
293,1436181229898,63.1482259352278
294,1436181230508,52.1879656710474
295,1436181231155,66.3662316954038
296,1436181231821,41.4555615857246
297,1436181232463,68.593173775658
298,1436181233116,64.1655757399566
299,1436181233786,68.8489633221538
300,1436181234389,58.7938320615539
301,1436181235019,32.8976714401619
302,1436181235669,36.0758589805851
303,1436181236358,73.1581428540047
304,1436181237004,31.3992542613457
305,1436181237672,70.375280839747
306,1436181238290,70.8972934797432
307,1436181238935,56.6970415543615
308,1436181239629,49.1071172911762
309,1436181240207,69.6451291096276
310,1436181240817,70.6284498583339
311,1436181241470,33.0594990667154
312,1436181242131,54.4902184121464
313,1436181242761,63.8785366569036
314,1436181243416,59.5960289448269
315,1436181244080,34.6018378915474
316,1436181244729,54.0128801182644
317,1436181245386,70.0380620212724
318,1436181246059,63.3986953112718
319,1436181246714,67.318682967039
320,1436181247372,63.7067952188793
321,1436181248014,45.463674701831
322,1436181248669,73.7188668948798
323,1436181249307,70.0100889621033
324,1436181249971,68.6987609526433
325,1436181250608,72.0732209465835
326,1436181251240,58.1350365317811
327,1436181251886,70.2891253339017
328,1436181252533,45.9832832054209
329,1436181253186,42.4085538463229
330,1436181253804,63.3170566290786
331,1436181254447,39.2929826916283
332,1436181254985,62.3352931712996
333,1436181255532,63.3440665262887
334,1436181256118,71.5255613608415
335,1436181256788,62.1688128660343
336,1436181257515,39.9157677468443
337,1436181258261,45.0577216671849
338,1436181258891,33.2343430922434
339,1436181259590,53.6395457470984
340,1436181260162,72.3507342507424
341,1436181261477,68.7668812645917
342,1436181262231,34.6589680796339
343,1436181262915,36.7874240502325
344,1436181263636,62.377389765167
345,1436181264409,74.4101088401752
346,1436181265182,70.9551621814604
347,1436181265920,59.3860711759904
348,1436181266657,71.2620107474873
349,1436181267387,70.5251516426081
350,1436181268129,47.019783544276
351,1436181268864,45.2382274197543
352,1436181269560,56.0750242110212
353,1436181270244,58.3297469449394
354,1436181271038,58.3851938781451
355,1436181271713,38.9025887076696
356,1436181272448,68.0482376312832
357,1436181273184,35.9443249534596
358,1436181273916,70.42344052728
359,1436181274620,67.1634667695604
360,1436181275209,68.8418557271184
361,1436181275857,62.029291122824
362,1436181276575,50.319068509925
363,1436181277316,41.446147607796
364,1436181278063,75.0883422266213
365,1436181278765,64.1085825843272
366,1436181279463,54.5677516959757
367,1436181280200,60.1701819585371
368,1436181280931,30.1352270502228
369,1436181281662,60.1264562487268
370,1436181282395,59.0564173883023
371,1436181283127,31.5419727864818
372,1436181285165,64.1854874004687
373,1436181285853,64.0708852761341
374,1436181286450,58.4066807519581
375,1436181287211,62.0608314358949
376,1436181287878,46.3365184486624
377,1436181288609,53.5199905350277
378,1436181289365,53.5669149803701
379,1436181290050,42.0585732540013
380,1436181290764,38.9678809169817
381,1436181291465,39.7482131338202
382,1436181292149,65.8989786012558
383,1436181292872,35.1210339006402
384,1436181293605,34.5721025551167
385,1436181294348,34.4778298462582
386,1436181295157,34.1485876126788
387,1436181295906,61.8619959467645
388,1436181296637,72.3816610644315
389,1436181297362,34.1676596958536
390,1436181298075,60.6730886572055
391,1436181298823,63.3183814004102
392,1436181299599,54.9956258785416
393,1436181300283,56.0535463085366
394,1436181300907,59.8369905238055
395,1436181301604,41.7727877827659
396,1436181302364,46.2732166647533
397,1436181303115,45.7443646888441
398,1436181303848,69.0052420468333
399,1436181304572,59.264727719204
400,1436181305246,63.1667229718979
401,1436181305963,52.4820468974114
402,1436181306710,64.4875938535546
403,1436181307450,34.9042738154645
404,1436181308166,31.7067061677397
405,1436181308890,58.8673062339391
406,1436181309582,68.9448555256755
407,1436181311285,39.5586272304833
408,1436181311993,51.8161881366696
409,1436181312729,71.1533280803277
410,1436181313452,40.0225409012624
411,1436181314221,71.0003629948103
412,1436181314959,56.576060719251
413,1436181315617,63.1280985471496
414,1436181316330,54.8780966262196
415,1436181317054,51.4763471019269
416,1436181317774,44.9242346555582
417,1436181318505,54.2017978148846
418,1436181319235,51.791630918374
419,1436181319999,54.4987676831998
420,1436181320677,53.6956666607518
421,1436181321425,52.0613321111807
422,1436181322175,65.4739023616253
423,1436181322886,38.8892757663967
424,1436181323625,52.7353218178513
425,1436181324339,64.7851961988559
426,1436181325018,61.8610272078243
427,1436181325754,74.295699809877
428,1436181326500,64.2112103634984
429,1436181327234,42.1723895164173
430,1436181327974,65.2855466265222
431,1436181328706,58.2605990781834
432,1436181329433,60.6673810879276
433,1436181330198,65.5059799247641
434,1436181330797,58.7767870073369
435,1436181332112,42.9028324772516
436,1436181332848,53.764201987261
437,1436181333593,39.0596508681425
438,1436181334289,66.832607366644
439,1436181334930,53.0627943338215
440,1436181335641,62.2781197733752
441,1436181336373,57.9342910493876
442,1436181337108,52.5509926560785
443,1436181337846,63.3422800249883
444,1436181338578,64.2965525110062
445,1436181339321,51.9391235786876
446,1436181340038,64.5372010875893
447,1436181340741,55.0839384226785
448,1436181341435,47.2196564159449
449,1436181342170,63.626174154529
450,1436181342928,44.1659701940573
451,1436181343649,56.9927332153512
452,1436181344392,59.1340152555846
453,1436181345192,45.1321597149797
454,1436181345917,43.368611843166
455,1436181346685,64.490250252543
456,1436181347417,44.7897655290627
457,1436181348153,73.0051143605976
458,1436181348889,38.2681793929535
459,1436181349613,51.1433838448341
460,1436181350398,57.2153270081409
461,1436181351088,26.311691821522
462,1436181351757,60.5318984734737
463,1436181352495,64.4111711827338
464,1436181353253,51.3942827092058
465,1436181353979,25.9918589700695
466,1436181354696,29.52506194299
467,1436181355509,32.0498559132475
468,1436181356283,56.130778909687
469,1436181356991,61.0453039341381
470,1436181357673,26.0283371786196
471,1436181358404,69.5540068076965
472,1436181359129,67.9147079333173
473,1436181359861,71.8213830752877
474,1436181360571,43.3709305394107
475,1436181361311,65.1256362328327
476,1436181362083,45.0529106586615
477,1436181362807,49.2180113308786
478,1436181363542,54.9320204961408
479,1436181364298,56.1654169176246
480,1436181365019,71.808813337278
481,1436181365716,66.39741911987
482,1436181366415,33.9440389976679
483,1436181367132,51.750648554173
484,1436181367855,47.1934177297404
485,1436181368599,26.1945751719722
486,1436181369304,73.542172353093
487,1436181369960,68.8260699330684
488,1436181370699,71.1992281790229
489,1436181371505,56.9994003773696
490,1436181372094,33.9940375494111
491,1436181372759,51.2122603714552
492,1436181373504,37.7696889171376
493,1436181374221,26.8636888930934
494,1436181374929,73.7977044579235
495,1436181375613,53.8161829179414
496,1436181376348,65.7310995311823
497,1436181377103,34.9735797304155
498,1436181377834,39.7236690533644
499,1436181378556,73.1719441538887
500,1436181379322,25.0021704536814
501,1436181379968,36.5400277796053
502,1436181380725,42.0429991483142
503,1436181381473,22.2612118038874
504,1436181382167,68.5473648598639
505,1436181382780,65.4118843485339
506,1436181383431,63.4457513351307
507,1436181384146,53.9717146040354
508,1436181384952,63.8482934667424
509,1436181385693,48.870122496216
510,1436181386419,65.5020771052717
511,1436181387095,66.2817677641829
512,1436181387827,70.6283752347386
513,1436181388563,48.0183008413403
514,1436181389287,59.0152474729496
515,1436181390022,51.2024044914445
516,1436181390736,62.5930605512603
517,1436181391488,60.0521366989151
518,1436181392233,55.4702908380673
519,1436181392870,57.8531441653665
520,1436181393611,45.3301600277997
521,1436181394348,61.4725975075253
522,1436181395084,60.3014846740065
523,1436181395794,50.1157405872857
524,1436181396548,54.6091169270017
525,1436181397291,67.1342380343661
526,1436181398025,54.1889375089231
527,1436181398771,67.6604477875501
528,1436181399505,49.0670658199726
529,1436181400261,61.1680909633337
530,1436181400965,50.5860610443322
531,1436181401673,69.3198014504845
532,1436181402381,68.69213787098
533,1436181403037,52.0815590898872
534,1436181403754,43.0086660622591
535,1436181404498,42.3880161920117
536,1436181405216,51.4974084661474
537,1436181405953,43.360226299707
538,1436181406692,67.7900028848737
539,1436181407455,50.1118547104013
540,1436181408124,49.125026912374
541,1436181408850,51.2650039250837
542,1436181409604,37.319269827794
543,1436181410339,69.873047796488
544,1436181411077,58.6727226574728
545,1436181411818,53.0050729928583
546,1436181412529,48.4465646020237
547,1436181413155,67.4061114587689
548,1436181413869,63.8487387745205
549,1436181414612,51.4106969984461
550,1436181415329,32.540351967251
551,1436181416091,35.1919034988816
552,1436181416906,37.6143743744348
553,1436181417557,25.7496226737043
554,1436181418244,18.4596887836761
555,1436181418973,49.3466031451387
556,1436181419734,34.1022635293952
557,1436181420471,48.8142049249158
558,1436181421218,43.5731571694373
559,1436181421971,22.5370692013794
560,1436181422681,62.035084572749
561,1436181423337,42.8426238589965
562,1436181424026,62.8829534943398
563,1436181424739,65.8001964699688
564,1436181425443,54.6972112395918
565,1436181426639,52.6185401988808
566,1436181427281,37.657263996875
567,1436181427965,28.5305142798759
568,1436181428723,20.3591051828076
569,1436181429382,22.1833777539023
570,1436181430043,29.4313739320365
571,1436181430761,30.5299283359877
572,1436181431477,25.3357981417192
573,1436181432224,61.2520676852201
574,1436181432910,42.9680147317185
575,1436181433544,26.1813124302988
