id,attr_time,attr_light
1,1436183316116,355.0
2,1436183316136,354.0
3,1436183316156,355.0
4,1436183316176,355.0
5,1436183316196,354.0
6,1436183316216,354.0
7,1436183316236,354.0
8,1436183316257,354.0
9,1436183316279,354.0
10,1436183316298,354.0
11,1436183316321,354.0
12,1436183316339,354.0
13,1436183316361,354.0
14,1436183316378,354.0
15,1436183316397,354.0
16,1436183316419,354.0
17,1436183316441,354.0
18,1436183316461,354.0
19,1436183316479,354.0
20,1436183316501,354.0
21,1436183316520,354.0
22,1436183316540,354.0
23,1436183316557,354.0
24,1436183316604,354.0
25,1436183316605,356.0
26,1436183316619,356.0
27,1436183316638,354.0
28,1436183316662,354.0
29,1436183316677,355.0
30,1436183316698,355.0
31,1436183316718,354.0
32,1436183316739,354.0
33,1436183316758,354.0
34,1436183316779,354.0
35,1436183316800,355.0
36,1436183316822,354.0
37,1436183316840,354.0
38,1436183316862,354.0
39,1436183316880,354.0
40,1436183316898,355.0
41,1436183316920,355.0
42,1436183316940,354.0
43,1436183316958,354.0
44,1436183316979,354.0
45,1436183316998,354.0
46,1436183317020,354.0
47,1436183317038,354.0
48,1436183317058,354.0
49,1436183317078,354.0
50,1436183317100,354.0
51,1436183317121,354.0
52,1436183317140,354.0
53,1436183317159,354.0
54,1436183317179,354.0
55,1436183317199,353.0
56,1436183317219,352.0
57,1436183317239,352.0
58,1436183317263,352.0
59,1436183317324,352.0
60,1436183317350,352.0
61,1436183317351,352.0
62,1436183317352,351.0
63,1436183317360,351.0
64,1436183317381,351.0
65,1436183317400,351.0
66,1436183317421,351.0
67,1436183317439,350.0
68,1436183317462,350.0
69,1436183317481,349.0
70,1436183317509,349.0
71,1436183317519,349.0
72,1436183317544,349.0
73,1436183317563,348.0
74,1436183317581,348.0
75,1436183317600,348.0
76,1436183317619,348.0
77,1436183317642,348.0
78,1436183317661,346.0
79,1436183317682,346.0
80,1436183317702,346.0
81,1436183317722,346.0
82,1436183317743,347.0
83,1436183317763,347.0
84,1436183317780,347.0
85,1436183317799,347.0
86,1436183317821,348.0
87,1436183317843,349.0
88,1436183317862,349.0
89,1436183317882,348.0
90,1436183317902,348.0
91,1436183317922,347.0
92,1436183317942,347.0
93,1436183317962,347.0
94,1436183317983,347.0
95,1436183318003,346.0
96,1436183318023,346.0
97,1436183318043,345.0
98,1436183318113,344.0
99,1436183318114,344.0
100,1436183318115,344.0
101,1436183318123,344.0
102,1436183318142,344.0
103,1436183318164,344.0
104,1436183318179,344.0
105,1436183318199,344.0
106,1436183318223,345.0
107,1436183318239,345.0
108,1436183318259,345.0
109,1436183318279,345.0
110,1436183318299,345.0
111,1436183318319,343.0
112,1436183318339,343.0
113,1436183318361,344.0
114,1436183318381,344.0
115,1436183318402,345.0
116,1436183318422,345.0
117,1436183318441,346.0
118,1436183318469,346.0
119,1436183318481,346.0
120,1436183318511,346.0
121,1436183318520,346.0
122,1436183318547,348.0
123,1436183318563,348.0
124,1436183318581,349.0
125,1436183318601,349.0
126,1436183318620,350.0
127,1436183318640,350.0
128,1436183318662,352.0
129,1436183318681,352.0
130,1436183318700,352.0
131,1436183318722,352.0
132,1436183318742,352.0
133,1436183318837,352.0
134,1436183318838,352.0
135,1436183318840,352.0
136,1436183318841,352.0
137,1436183318842,352.0
138,1436183318862,352.0
139,1436183318888,351.0
140,1436183318902,352.0
141,1436183318922,352.0
142,1436183318943,352.0
143,1436183318960,352.0
144,1436183318981,351.0
145,1436183319001,351.0
146,1436183319076,351.0
147,1436183319077,351.0
148,1436183319078,350.0
149,1436183319081,350.0
150,1436183319102,348.0
151,1436183319121,347.0
152,1436183319140,347.0
153,1436183319162,348.0
154,1436183319182,348.0
155,1436183319202,348.0
156,1436183319222,348.0
157,1436183319243,348.0
158,1436183319262,348.0
159,1436183319282,348.0
160,1436183319301,349.0
161,1436183319321,349.0
162,1436183319345,348.0
163,1436183319366,348.0
164,1436183319388,347.0
165,1436183319405,347.0
166,1436183319424,347.0
167,1436183319449,347.0
168,1436183319465,347.0
169,1436183319551,347.0
170,1436183319552,347.0
171,1436183319553,347.0
172,1436183319554,347.0
173,1436183319571,347.0
174,1436183319581,347.0
175,1436183319603,349.0
176,1436183319622,349.0
177,1436183319641,350.0
178,1436183319662,350.0
179,1436183319681,351.0
180,1436183319702,351.0
181,1436183319722,351.0
182,1436183319745,351.0
183,1436183319762,351.0
184,1436183319782,351.0
185,1436183319801,351.0
186,1436183319822,351.0
187,1436183319844,351.0
188,1436183319864,351.0
189,1436183319884,351.0
190,1436183319905,352.0
191,1436183319924,352.0
192,1436183319945,352.0
193,1436183319963,352.0
194,1436183319982,352.0
195,1436183320001,351.0
196,1436183320023,351.0
197,1436183320043,350.0
198,1436183320064,350.0
199,1436183320084,349.0
200,1436183320104,349.0
201,1436183320125,350.0
202,1436183320144,351.0
203,1436183320164,351.0
204,1436183320183,351.0
205,1436183320210,351.0
206,1436183320283,351.0
207,1436183320284,351.0
208,1436183320285,352.0
209,1436183320286,352.0
210,1436183320303,352.0
211,1436183320327,352.0
212,1436183320344,351.0
213,1436183320362,350.0
214,1436183320383,350.0
215,1436183320408,350.0
216,1436183320423,350.0
217,1436183320449,349.0
218,1436183320465,349.0
219,1436183320483,348.0
220,1436183320503,348.0
221,1436183320528,346.0
222,1436183320562,346.0
223,1436183320563,345.0
224,1436183320592,345.0
225,1436183320602,345.0
226,1436183320622,345.0
227,1436183320739,345.0
228,1436183320740,345.0
229,1436183320742,345.0
230,1436183320743,344.0
231,1436183320744,344.0
232,1436183320745,343.0
233,1436183320762,344.0
234,1436183320782,344.0
235,1436183320802,344.0
236,1436183320822,344.0
237,1436183320843,343.0
238,1436183320864,343.0
239,1436183320886,344.0
240,1436183320906,344.0
241,1436183320927,345.0
242,1436183320955,345.0
243,1436183320966,346.0
244,1436183320983,346.0
245,1436183321003,346.0
246,1436183321024,345.0
247,1436183321045,345.0
248,1436183321062,344.0
249,1436183321082,344.0
250,1436183321103,344.0
251,1436183321125,344.0
252,1436183321145,344.0
253,1436183321162,344.0
254,1436183321184,345.0
255,1436183321202,346.0
256,1436183321222,346.0
257,1436183321243,348.0
258,1436183321265,348.0
259,1436183321285,350.0
260,1436183321303,350.0
261,1436183321324,350.0
262,1436183321342,350.0
263,1436183321362,350.0
264,1436183321383,350.0
265,1436183321406,350.0
266,1436183321423,353.0
267,1436183321446,353.0
268,1436183321465,354.0
269,1436183321485,354.0
270,1436183321504,354.0
271,1436183321523,354.0
272,1436183321544,355.0
273,1436183321575,355.0
274,1436183321625,355.0
275,1436183321626,359.0
276,1436183321627,359.0
277,1436183321647,361.0
278,1436183321663,361.0
279,1436183321689,361.0
280,1436183321705,361.0
281,1436183321725,361.0
282,1436183321746,361.0
283,1436183321765,361.0
284,1436183321783,361.0
285,1436183321804,361.0
286,1436183321825,363.0
287,1436183321845,363.0
288,1436183321865,363.0
289,1436183321886,363.0
290,1436183321908,362.0
291,1436183321925,362.0
292,1436183321946,361.0
293,1436183321966,361.0
294,1436183321985,360.0
295,1436183322004,360.0
296,1436183322025,358.0
297,1436183322044,357.0
298,1436183322064,357.0
299,1436183322083,356.0
300,1436183322103,356.0
301,1436183322123,355.0
302,1436183322144,355.0
303,1436183322170,355.0
304,1436183322192,355.0
305,1436183322208,353.0
306,1436183322223,349.0
307,1436183322245,349.0
308,1436183322265,346.0
309,1436183322283,346.0
310,1436183322305,344.0
311,1436183322384,344.0
312,1436183322385,343.0
313,1436183322386,343.0
314,1436183322387,344.0
315,1436183322404,344.0
316,1436183322426,343.0
317,1436183322443,344.0
318,1436183322465,344.0
319,1436183322485,344.0
320,1436183322503,344.0
321,1436183322524,344.0
322,1436183322544,344.0
323,1436183322566,342.0
324,1436183322585,342.0
325,1436183322607,339.0
326,1436183322628,339.0
327,1436183322646,335.0
328,1436183322666,331.0
329,1436183322685,331.0
330,1436183322704,325.0
331,1436183322724,325.0
332,1436183322744,316.0
333,1436183322764,316.0
334,1436183322786,307.0
335,1436183322806,307.0
336,1436183322824,306.0
337,1436183322844,306.0
338,1436183322864,308.0
339,1436183322888,317.0
340,1436183322904,317.0
341,1436183322945,327.0
342,1436183322946,327.0
343,1436183322964,340.0
344,1436183322984,340.0
345,1436183323005,345.0
346,1436183323033,345.0
347,1436183323090,352.0
348,1436183323092,364.0
349,1436183323093,364.0
350,1436183323115,370.0
351,1436183323124,370.0
352,1436183323144,352.0
353,1436183323166,352.0
354,1436183323184,348.0
355,1436183323204,348.0
356,1436183323226,337.0
357,1436183323244,337.0
358,1436183323266,326.0
359,1436183323286,321.0
360,1436183323307,321.0
361,1436183323326,319.0
362,1436183323345,319.0
363,1436183323365,316.0
364,1436183323385,316.0
365,1436183323405,318.0
366,1436183323425,318.0
367,1436183323446,318.0
368,1436183323467,318.0
369,1436183323488,329.0
370,1436183323510,294.0
371,1436183323527,294.0
372,1436183323546,294.0
373,1436183323566,294.0
374,1436183323585,299.0
375,1436183323604,299.0
376,1436183323626,295.0
377,1436183323647,295.0
378,1436183323667,296.0
379,1436183323687,296.0
380,1436183323707,295.0
381,1436183323727,308.0
382,1436183323746,308.0
383,1436183323766,317.0
384,1436183323787,317.0
385,1436183323847,363.0
386,1436183323848,363.0
387,1436183323849,342.0
388,1436183323873,342.0
389,1436183323886,340.0
390,1436183323905,340.0
391,1436183323927,340.0
392,1436183323945,332.0
393,1436183323979,332.0
394,1436183323985,327.0
395,1436183324005,327.0
396,1436183324032,336.0
397,1436183324045,336.0
398,1436183324065,360.0
399,1436183324087,360.0
400,1436183324106,389.0
401,1436183324125,420.0
402,1436183324145,420.0
403,1436183324165,441.0
404,1436183324186,441.0
405,1436183324207,462.0
406,1436183324227,462.0
407,1436183324248,527.0
408,1436183324266,527.0
409,1436183324287,598.0
410,1436183324306,598.0
411,1436183324325,594.0
412,1436183324346,544.0
413,1436183324366,544.0
414,1436183324385,449.0
415,1436183324406,449.0
416,1436183324426,441.0
417,1436183324445,441.0
418,1436183324465,435.0
419,1436183324485,435.0
420,1436183324516,419.0
421,1436183324573,390.0
422,1436183324574,390.0
423,1436183324575,398.0
424,1436183324597,398.0
425,1436183324605,436.0
426,1436183324625,436.0
427,1436183324647,512.0
428,1436183324665,512.0
429,1436183324692,478.0
430,1436183324707,478.0
431,1436183324727,461.0
432,1436183324747,902.0
433,1436183324769,902.0
434,1436183324786,814.0
435,1436183324807,814.0
436,1436183324827,618.0
437,1436183324846,618.0
438,1436183324867,532.0
439,1436183324888,532.0
440,1436183324907,493.0
441,1436183324926,493.0
442,1436183324946,499.0
443,1436183324966,523.0
444,1436183324986,523.0
445,1436183325023,599.0
446,1436183325027,599.0
447,1436183325047,1083.0
448,1436183325067,1083.0
449,1436183325087,1716.0
450,1436183325107,1716.0
451,1436183325126,1722.0
452,1436183325149,1722.0
453,1436183325168,1448.0
454,1436183325187,558.0
455,1436183325207,558.0
456,1436183325226,454.0
457,1436183325247,454.0
458,1436183325279,436.0
459,1436183325286,436.0
460,1436183325396,447.0
461,1436183325397,447.0
462,1436183325398,545.0
463,1436183325399,472.0
464,1436183325400,472.0
465,1436183325440,441.0
466,1436183325441,441.0
467,1436183325503,960.0
468,1436183325506,960.0
469,1436183325507,1517.0
470,1436183325508,1517.0
471,1436183325549,1682.0
472,1436183325550,1682.0
473,1436183325590,1424.0
474,1436183325591,801.0
475,1436183325616,801.0
476,1436183325626,649.0
477,1436183325647,649.0
478,1436183325667,574.0
479,1436183325686,574.0
480,1436183325706,559.0
481,1436183325726,559.0
482,1436183325746,551.0
483,1436183325766,551.0
484,1436183325787,591.0
485,1436183325807,759.0
486,1436183325827,759.0
487,1436183325847,1423.0
488,1436183325867,1423.0
489,1436183325887,1947.0
490,1436183325907,1947.0
491,1436183325926,1845.0
492,1436183325947,1845.0
493,1436183325968,1350.0
494,1436183325987,1350.0
495,1436183326007,608.0
496,1436183326026,557.0
497,1436183326046,557.0
498,1436183326066,559.0
499,1436183326087,559.0
500,1436183326108,581.0
501,1436183326136,581.0
502,1436183326146,664.0
503,1436183326166,664.0
504,1436183326188,819.0
505,1436183326208,1072.0
506,1436183326226,1072.0
507,1436183326247,1389.0
508,1436183326269,1389.0
509,1436183326287,1635.0
510,1436183326310,1635.0
511,1436183326328,1479.0
512,1436183326346,1479.0
513,1436183326368,942.0
514,1436183326389,942.0
515,1436183326408,734.0
516,1436183326429,640.0
517,1436183326450,640.0
518,1436183326470,596.0
519,1436183326488,596.0
520,1436183326508,577.0
521,1436183326527,577.0
522,1436183326548,653.0
523,1436183326568,653.0
524,1436183326595,1046.0
525,1436183326615,1046.0
526,1436183326636,1804.0
527,1436183326651,2071.0
528,1436183326674,2071.0
529,1436183326689,1982.0
530,1436183326709,1982.0
531,1436183326729,1627.0
532,1436183326748,1627.0
533,1436183326801,674.0
534,1436183326802,674.0
535,1436183326821,567.0
536,1436183326829,576.0
537,1436183326848,576.0
538,1436183326869,582.0
539,1436183326888,582.0
540,1436183326908,577.0
541,1436183326930,577.0
542,1436183326948,669.0
543,1436183326976,669.0
544,1436183327010,906.0
545,1436183327030,906.0
546,1436183327032,1222.0
547,1436183327067,1433.0
548,1436183327068,1433.0
549,1436183327088,1318.0
550,1436183327110,1318.0
551,1436183327129,988.0
552,1436183327150,988.0
553,1436183327169,723.0
554,1436183327188,723.0
555,1436183327211,621.0
556,1436183327230,621.0
557,1436183327250,574.0
558,1436183327271,543.0
559,1436183327292,543.0
560,1436183327342,504.0
561,1436183327343,504.0
562,1436183327352,523.0
563,1436183327371,523.0
564,1436183327389,675.0
565,1436183327408,675.0
566,1436183327428,1343.0
567,1436183327451,1343.0
568,1436183327474,2091.0
569,1436183327498,1913.0
570,1436183327509,1913.0
571,1436183327529,1057.0
572,1436183327561,1057.0
573,1436183327581,542.0
574,1436183327596,542.0
575,1436183327613,471.0
576,1436183327630,471.0
577,1436183327651,434.0
578,1436183327676,377.0
579,1436183327689,377.0
580,1436183327709,307.0
581,1436183327729,307.0
582,1436183327763,281.0
583,1436183327782,281.0
584,1436183327788,286.0
585,1436183327812,286.0
586,1436183327829,300.0
587,1436183327849,300.0
588,1436183327869,298.0
589,1436183327889,290.0
590,1436183327911,290.0
591,1436183327927,268.0
592,1436183327948,268.0
593,1436183327972,251.0
594,1436183327993,251.0
595,1436183328012,252.0
596,1436183328028,252.0
597,1436183328049,270.0
598,1436183328070,270.0
599,1436183328093,298.0
600,1436183328113,326.0
601,1436183328130,326.0
602,1436183328150,354.0
603,1436183328168,354.0
604,1436183328190,401.0
605,1436183328213,401.0
606,1436183328233,471.0
607,1436183328253,471.0
608,1436183328270,486.0
609,1436183328302,486.0
610,1436183328308,476.0
611,1436183328328,415.0
612,1436183328349,415.0
613,1436183328371,333.0
614,1436183328390,333.0
615,1436183328408,311.0
616,1436183328432,311.0
617,1436183328452,295.0
618,1436183328472,295.0
619,1436183328492,279.0
620,1436183328509,270.0
621,1436183328533,270.0
622,1436183328552,263.0
623,1436183328571,263.0
624,1436183328592,277.0
625,1436183328612,277.0
626,1436183328630,286.0
627,1436183328655,286.0
628,1436183328670,289.0
629,1436183328694,289.0
630,1436183328712,279.0
631,1436183328730,252.0
632,1436183328751,252.0
633,1436183328773,251.0
634,1436183328794,251.0
635,1436183328813,269.0
636,1436183328832,269.0
637,1436183328850,299.0
638,1436183328869,299.0
639,1436183328890,317.0
640,1436183328957,317.0
641,1436183328958,340.0
642,1436183328959,390.0
643,1436183328977,390.0
644,1436183328990,471.0
645,1436183329011,471.0
646,1436183329031,494.0
647,1436183329050,494.0
648,1436183329073,490.0
649,1436183329092,490.0
650,1436183329112,424.0
651,1436183329134,334.0
652,1436183329150,334.0
653,1436183329170,315.0
654,1436183329193,315.0
655,1436183329213,303.0
656,1436183329233,303.0
657,1436183329253,292.0
658,1436183329274,292.0
659,1436183329294,283.0
660,1436183329313,283.0
661,1436183329331,281.0
662,1436183329350,292.0
663,1436183329374,292.0
664,1436183329393,312.0
665,1436183329415,312.0
666,1436183329436,334.0
667,1436183329457,334.0
668,1436183329474,334.0
669,1436183329492,334.0
670,1436183329511,294.0
671,1436183329531,294.0
672,1436183329566,288.0
673,1436183329570,293.0
674,1436183329590,293.0
675,1436183329610,323.0
676,1436183329630,323.0
677,1436183329662,358.0
678,1436183329713,358.0
679,1436183329719,394.0
680,1436183329720,394.0
681,1436183329733,432.0
682,1436183329751,432.0
683,1436183329771,461.0
684,1436183329790,526.0
685,1436183329810,526.0
686,1436183329833,536.0
687,1436183329851,536.0
688,1436183329871,498.0
689,1436183329900,498.0
690,1436183329914,401.0
691,1436183329932,401.0
692,1436183329954,370.0
693,1436183329971,349.0
694,1436183329993,349.0
695,1436183330013,335.0
696,1436183330032,335.0
697,1436183330053,323.0
698,1436183330074,323.0
699,1436183330094,314.0
700,1436183330112,314.0
701,1436183330130,313.0
702,1436183330152,313.0
703,1436183330170,327.0
704,1436183330192,330.0
705,1436183330212,330.0
706,1436183330234,324.0
707,1436183330253,324.0
708,1436183330272,299.0
709,1436183330290,299.0
710,1436183330311,287.0
711,1436183330330,287.0
712,1436183330351,290.0
713,1436183330373,290.0
714,1436183330419,316.0
715,1436183330420,349.0
716,1436183330443,349.0
717,1436183330451,374.0
718,1436183330472,374.0
719,1436183330493,404.0
720,1436183330512,404.0
721,1436183330549,453.0
722,1436183330553,453.0
723,1436183330582,523.0
724,1436183330597,523.0
725,1436183330618,538.0
726,1436183330635,524.0
727,1436183330657,524.0
728,1436183330674,451.0
729,1436183330695,451.0
730,1436183330714,376.0
731,1436183330732,376.0
732,1436183330751,363.0
733,1436183330774,363.0
734,1436183330793,349.0
735,1436183330812,341.0
736,1436183330835,341.0
737,1436183330856,332.0
738,1436183330874,332.0
739,1436183330893,327.0
740,1436183330913,327.0
741,1436183330932,334.0
742,1436183330954,334.0
743,1436183330975,344.0
744,1436183330995,344.0
745,1436183331015,360.0
746,1436183331035,356.0
747,1436183331055,356.0
748,1436183331074,322.0
749,1436183331093,322.0
750,1436183331113,317.0
751,1436183331141,317.0
752,1436183331216,330.0
753,1436183331217,330.0
754,1436183331218,361.0
755,1436183331219,361.0
756,1436183331232,399.0
757,1436183331253,427.0
758,1436183331272,427.0
759,1436183331294,466.0
760,1436183331314,466.0
761,1436183331333,568.0
762,1436183331352,568.0
763,1436183331374,614.0
764,1436183331396,614.0
765,1436183331413,593.0
766,1436183331437,571.0
767,1436183331456,571.0
768,1436183331475,476.0
769,1436183331493,476.0
770,1436183331514,421.0
771,1436183331532,421.0
772,1436183331554,401.0
773,1436183331574,401.0
774,1436183331610,392.0
775,1436183331613,392.0
776,1436183331639,388.0
777,1436183331654,392.0
778,1436183331675,392.0
779,1436183331693,388.0
780,1436183331716,388.0
781,1436183331736,394.0
782,1436183331757,394.0
783,1436183331777,398.0
784,1436183331795,398.0
785,1436183331814,403.0
786,1436183331833,403.0
787,1436183331853,390.0
788,1436183331925,384.0
789,1436183331926,384.0
790,1436183331927,375.0
791,1436183331996,375.0
792,1436183331997,404.0
793,1436183331998,404.0
794,1436183331999,441.0
795,1436183332043,441.0
796,1436183332044,476.0
797,1436183332057,476.0
798,1436183332077,510.0
799,1436183332124,545.0
800,1436183332125,545.0
801,1436183332154,607.0
802,1436183332155,607.0
803,1436183332175,646.0
804,1436183332194,646.0
805,1436183332214,730.0
806,1436183332234,730.0
807,1436183332254,667.0
808,1436183332276,561.0
809,1436183332295,561.0
810,1436183332316,573.0
811,1436183332336,573.0
812,1436183332354,615.0
813,1436183332373,615.0
814,1436183332396,713.0
815,1436183332420,713.0
816,1436183332435,932.0
817,1436183332454,932.0
818,1436183332476,1106.0
819,1436183332494,1459.0
820,1436183332517,1459.0
821,1436183332534,1852.0
822,1436183332556,1852.0
823,1436183332576,2128.0
824,1436183332596,2128.0
825,1436183332616,1726.0
826,1436183332635,1726.0
827,1436183332653,1172.0
828,1436183332685,1172.0
829,1436183332757,900.0
830,1436183332758,776.0
831,1436183332759,776.0
832,1436183332760,712.0
833,1436183332775,712.0
834,1436183332802,689.0
