id,attr_time,attr_db
1,1436977877511,34.9478045784473
2,1436977878242,35.1882853979546
3,1436977878964,40.4970820227307
4,1436977879774,43.7735849579272
5,1436977880470,56.6641229117004
6,1436977881147,62.3885297986446
7,1436977881880,36.2198892981891
8,1436977882631,38.047592151142
9,1436977883368,65.2107574465423
10,1436977884155,36.2548967434786
11,1436977885009,57.1452385713075
12,1436977885577,34.9162258407662
13,1436977886127,41.3829210193969
14,1436977886679,68.2918995695619
15,1436977887287,37.8801529146795
16,1436977888009,41.2901629789776
17,1436977888820,58.7259451226375
18,1436977889512,52.052736324725
19,1436977890097,39.6448007073106
20,1436977890666,64.5290452879503
21,1436977891212,45.6192668753549
22,1436977892432,50.2722500893723
23,1436977893041,37.1862162791191
24,1436977893704,39.7061055738815
25,1436977894444,70.2502551948275
26,1436977895188,69.6017134486839
27,1436977895752,38.5133117973622
28,1436977896304,47.0803882714178
29,1436977896857,64.9963544605045
30,1436977897418,55.1170046795361
31,1436977898084,66.8575187007531
32,1436977898825,42.0880633191279
33,1436977899517,34.9583470515513
34,1436977900080,36.1395227982511
35,1436977900660,38.8366902695978
36,1436977901206,35.2907156761777
37,1436977901775,35.7296692060915
38,1436977902979,37.2002708547312
39,1436977903664,34.2500602080955
40,1436977904407,40.4508194075096
41,1436977905147,37.3716306869293
42,1436977905917,41.8115949442597
43,1436977906520,52.5494927468888
44,1436977907095,46.1307745077634
45,1436977907648,47.3332071123991
46,1436977908202,40.0841526872224
47,1436977908806,38.3741676048109
48,1436977909485,42.5375801836556
49,1436977910229,41.4514953512614
50,1436977911058,39.1747597745855
51,1436977911640,33.6938726536244
52,1436977912187,37.7153145913659
53,1436977912774,49.7402099933785
54,1436977913352,62.958241174024
55,1436977913913,67.9095044555654
56,1436977915786,49.2595410267459
57,1436977916459,54.469043822684
58,1436977917211,74.7168034960417
59,1436977917953,52.428217710588
60,1436977918618,66.0045549687675
61,1436977919343,39.2402140903409
62,1436977920085,43.2574568129324
63,1436977920781,45.2391550198233
64,1436977921413,60.8036960009187
65,1436977922144,57.0841219361119
66,1436977922855,57.3532020980255
67,1436977923501,48.2033750754517
68,1436977924243,46.0226816093703
69,1436977924945,42.0109023181424
70,1436977925594,56.7585884246137
71,1436977926337,44.7094820688462
72,1436977927009,39.9569644505649
73,1436977927747,60.1776699002209
74,1436977928471,37.4317624859183
75,1436977929193,39.2411419973099
76,1436977929943,39.5254926574538
77,1436977930706,39.5619350460833
78,1436977931397,40.5498250530348
79,1436977932024,43.6761878717662
80,1436977932708,37.6410906076858
81,1436977933283,36.5913263740287
82,1436977933935,37.2677351471118
83,1436977934719,37.5285271769463
84,1436977935570,38.5775383746488
85,1436977936235,39.2834050362378
86,1436977936917,44.9328930398713
87,1436977937639,36.6866560516131
88,1436977938383,37.2825331273269
89,1436977939134,45.6126710285358
90,1436977939862,37.0776742920878
91,1436977940582,53.524200470557
92,1436977941302,59.9535129872201
93,1436977941980,36.025323756484
94,1436977942643,67.0836676172674
95,1436977943359,44.8760164644166
96,1436977944084,34.9492916281852
97,1436977944826,41.2255813260913
98,1436977945592,59.8178894057517
99,1436977946254,40.1835187665132
100,1436977946986,62.0605870742065
101,1436977947717,35.826730458666
102,1436977948451,35.4221275594684
103,1436977949158,34.4511270329897
104,1436977949900,40.054666833168
105,1436977950621,35.1992291844146
106,1436977951320,44.2797687502002
107,1436977951981,63.7781881398919
108,1436977952738,41.002946208642
109,1436977953458,63.3421660746675
110,1436977954074,48.4406787411957
111,1436977954829,50.065768068884
112,1436977955624,53.0679390972347
113,1436977956349,36.9904752267582
114,1436977957016,58.320164129501
115,1436977957686,45.2404514759536
116,1436977958413,66.9962696624328
117,1436977959142,41.7454889383202
118,1436977959848,62.4384744814193
119,1436977960609,38.0042840017978
120,1436977961332,37.9848848239266
121,1436977962065,40.9080170994885
122,1436977962830,39.8541261517925
123,1436977963555,42.6541308653112
124,1436977964298,48.0717152384694
125,1436977964983,42.6405643826312
126,1436977965725,33.8117014929929
127,1436977966450,42.8609922280363
128,1436977967188,48.6917503114953
129,1436977967910,37.074390418316
130,1436977968500,41.3778865799884
131,1436977969189,46.6327830206755
132,1436977969902,35.8928880888699
133,1436977970640,35.9664445813767
134,1436977971366,32.2860770662626
135,1436977972035,37.7061627159968
136,1436977972730,45.5448153977992
137,1436977973403,32.1368160892019
138,1436977974048,35.2137019793592
139,1436977974763,36.9161924389015
140,1436977975473,32.3899959800584
141,1436977976164,33.5096453161783
142,1436977976893,38.7385474529532
143,1436977977614,38.9978815811637
144,1436977978332,36.6304086752907
145,1436977979011,37.896203436986
146,1436977979661,36.2512787177783
147,1436977980394,38.4076716803283
148,1436977981204,42.2018850885038
149,1436977981941,41.0133238253296
150,1436977982699,36.870873338597
151,1436977983414,44.8618800027993
152,1436977984170,43.3177227067058
153,1436977984910,60.2551457381808
154,1436977985577,59.3846720335513
155,1436977986333,61.240428801685
156,1436977987035,47.4724312737329
157,1436977987725,39.5311852068268
158,1436977988440,44.4031639691458
159,1436977989139,62.5537817730602
160,1436977989817,64.816804015533
161,1436977990539,45.2908296357202
162,1436977991360,54.9063241927068
163,1436977992098,43.2639341675867
164,1436977992851,53.89557838634
165,1436977993635,61.3129275670748
166,1436977994312,67.9603954087625
167,1436977995052,41.9033366885362
168,1436977995845,63.7625883831107
169,1436977996599,59.7240738174169
170,1436977997357,44.7035098710683
171,1436977998132,40.7134720305916
172,1436977998879,52.8389645281987
173,1436977999622,58.7841058340252
174,1436978000275,52.6356060835548
175,1436978000941,37.643863174634
176,1436978001650,40.891151811017
177,1436978002390,42.3178605446953
178,1436978003151,49.6351621441664
179,1436978003742,39.9749985132039
180,1436978004410,55.9402323113888
181,1436978005092,50.8886186305667
182,1436978005698,47.6396697942757
183,1436978006432,60.4295796581232
184,1436978007172,37.2717214748802
185,1436978007918,35.2236850977585
186,1436978008766,39.9854628995532
187,1436978009428,39.9765422594336
188,1436978010072,43.99464480611
189,1436978010828,51.1376538407258
190,1436978011543,44.8167079668139
191,1436978012265,55.8837602329033
192,1436978012952,44.7822215316175
193,1436978013614,37.7291694928892
194,1436978014343,44.7010994911446
195,1436978015084,38.4748471313144
196,1436978015795,40.1397781001562
197,1436978016426,39.8968374802981
198,1436978017136,38.7297130693978
199,1436978017863,39.3365004872887
200,1436978018607,41.2874521979816
201,1436978019538,39.2522283102238
202,1436978020214,54.5585696175898
203,1436978020926,69.5036419686659
204,1436978021682,44.7893271217633
205,1436978022436,56.5714179478802
206,1436978023158,68.0725432954875
207,1436978023901,50.1861887559363
208,1436978024624,51.5894456559115
209,1436978025354,40.9518086237354
210,1436978026108,69.5194093987645
211,1436978026854,42.5939139474024
212,1436978027618,78.3319372908197
213,1436978028341,66.0609801909755
214,1436978029083,38.0594017090487
215,1436978029814,66.2178471715442
216,1436978030528,52.7436812154551
217,1436978031174,49.9562637993253
218,1436978031807,42.0140365791794
219,1436978032477,56.6649761939165
220,1436978033208,44.0368320147214
221,1436978033930,42.5813999063045
222,1436978034589,39.2979720373206
223,1436978035313,69.8323703578546
224,1436978036138,46.4259102724488
225,1436978036818,68.6405427770274
226,1436978037548,69.0319613710167
227,1436978038265,53.6276473245387
228,1436978038991,65.0694272539458
229,1436978039717,69.0980343770654
230,1436978040463,41.6844387366917
231,1436978041132,43.096012949851
232,1436978041867,59.2305555334876
233,1436978042606,50.5253655363577
234,1436978043337,73.3224498879426
235,1436978044068,57.4575534846656
236,1436978044810,38.8961859585834
237,1436978045551,67.5558955385718
238,1436978046210,73.3811833156294
239,1436978046922,72.2465903146989
240,1436978047605,63.4982743989242
241,1436978048299,61.1596500895704
242,1436978048893,45.5952512754537
243,1436978049575,72.6733900813356
244,1436978050288,51.800452002028
245,1436978050969,63.9147981286915
246,1436978051622,51.4390044290426
247,1436978052313,69.2634773844973
248,1436978052984,71.1582018275834
249,1436978053691,39.4283191454016
250,1436978054280,36.4876768297401
251,1436978054964,37.404449305987
252,1436978055691,70.8170986386428
253,1436978056507,69.4216457951107
254,1436978057168,48.1128267011988
255,1436978057867,74.6444485306921
256,1436978058542,36.1694155269786
257,1436978060539,67.0869850570785
258,1436978061176,39.5853581587501
259,1436978061895,38.5915401130263
260,1436978062590,43.740745297685
261,1436978063315,38.0195855663944
262,1436978064072,39.0695165717861
263,1436978064805,40.2958552353418
264,1436978065531,41.0911338068664
265,1436978066239,45.5928062224932
266,1436978066961,42.9779570561658
267,1436978067696,63.1497710153569
268,1436978068407,44.0982990628396
269,1436978069100,69.1558946120063
270,1436978070749,58.0730521687272
271,1436978071379,67.4994751522872
272,1436978072085,60.9209080938584
273,1436978072805,41.7278365163456
274,1436978073517,75.379316368504
275,1436978074242,40.7385590555417
276,1436978074963,35.6609801796783
277,1436978075608,70.5615719009996
278,1436978076366,41.5410463993163
279,1436978077051,69.3422590315595
280,1436978077759,41.3435905517631
281,1436978078487,38.5679506370154
282,1436978079212,39.9745103429204
283,1436978079927,44.3327463764312
284,1436978080635,50.5468640774667
285,1436978081362,42.8696667019539
286,1436978082007,42.7753284158411
287,1436978082705,55.5217339595257
288,1436978083441,51.7372272394517
289,1436978085272,68.7591963894712
290,1436978085981,45.6139686292678
291,1436978086779,48.5406280833735
292,1436978087459,51.7798611978036
293,1436978088194,47.2062090109211
294,1436978089118,50.015410975826
295,1436978089848,75.8123054463523
296,1436978090577,45.9079791783134
297,1436978091306,69.3631167704699
298,1436978091999,49.9501774668112
299,1436978092638,54.5157724481821
300,1436978094318,73.5766686237975
301,1436978094965,68.9746705681942
302,1436978095629,47.1117701610881
303,1436978096342,73.2136146867683
304,1436978097060,73.5750946913084
305,1436978097784,53.9220473336496
306,1436978098496,36.3700151042161
307,1436978099201,49.9908291399168
308,1436978099852,42.4449674845897
309,1436978100573,41.5276745201299
310,1436978101211,55.0967315278123
311,1436978101925,51.034974017842
312,1436978102555,70.9778457144515
313,1436978103276,58.8640532687703
314,1436978103990,57.0408599469413
315,1436978104781,42.1157354236007
316,1436978105552,42.7641163583967
317,1436978106219,40.9467192242004
318,1436978106986,38.0788164110891
319,1436978107728,46.0350116033366
320,1436978108462,41.4467064568717
321,1436978109191,42.5745820586512
322,1436978109925,66.3806281287758
323,1436978110642,41.2927351178237
324,1436978111359,43.1865518390786
325,1436978112059,64.5011130984186
326,1436978112733,67.7097705879439
327,1436978113470,41.107480157157
328,1436978114191,37.1285229255434
329,1436978114926,64.8167419241575
330,1436978115667,44.725339248794
331,1436978116338,52.3180259349044
332,1436978117118,69.8397301419011
333,1436978117728,38.7698999390182
334,1436978118408,58.4520777072206
335,1436978119159,47.9456891253253
336,1436978119903,51.5516403611186
337,1436978120604,41.6870061430608
338,1436978121247,36.8018645216703
339,1436978121960,43.5165566878899
340,1436978122639,64.4909627581275
341,1436978123333,71.7075156119458
342,1436978124051,73.1289249447657
343,1436978124804,74.0933988949129
344,1436978125525,43.8388249992017
345,1436978126183,60.713655697359
346,1436978126995,40.7983623637954
347,1436978127716,77.3390118006105
348,1436978128463,71.7629584808945
349,1436978129175,49.0394726103275
350,1436978129897,60.310325535318
351,1436978130573,38.1678708972905
352,1436978131284,73.203919205341
353,1436978132008,74.6296928465296
354,1436978132719,38.0872930564806
355,1436978133390,70.2135960792429
356,1436978134112,66.8479996963403
357,1436978134851,49.3917750252796
358,1436978135641,72.1875360647643
359,1436978136367,40.5762786794751
360,1436978137099,62.9162224910274
361,1436978137859,55.6116754033518
362,1436978138518,42.2302008589869
363,1436978139252,57.7271083587043
364,1436978139968,39.488499898847
365,1436978140642,53.5109977479735
366,1436978141309,61.5660561171183
367,1436978142033,70.2701461805652
368,1436978142746,69.4199495140311
369,1436978143400,73.47749274001
370,1436978144135,49.007854976752
371,1436978144844,67.5726102763725
372,1436978145580,48.0844330458233
373,1436978146312,75.0027590650945
374,1436978147040,45.7808346136344
375,1436978147788,74.106467283611
376,1436978148545,59.110630672502
377,1436978149236,35.7701193108746
378,1436978149942,70.8322052258066
379,1436978150575,54.266638659637
380,1436978151296,68.0238706974093
381,1436978152029,41.5311506360453
382,1436978152646,54.5383831132699
383,1436978153266,43.5413095006031
384,1436978153998,49.3111054324674
385,1436978154752,45.2185031142769
386,1436978155456,59.707048025512
387,1436978156128,61.352060037869
388,1436978156850,69.7189821138551
389,1436978157618,73.8336404373811
390,1436978158250,75.7526306630024
391,1436978158860,41.1158220141237
392,1436978159450,71.3194717842478
393,1436978160005,72.1740770268065
394,1436978160563,57.8235726512619
395,1436978161153,44.8835255663849
396,1436978161895,72.53414712738
397,1436978162642,73.4795856347868
398,1436978163363,71.9187513952074
399,1436978163978,36.8279658926704
400,1436978164557,63.9003227739126
401,1436978165176,69.2216128028385
402,1436978165780,37.4496077330229
403,1436978166357,72.00838894736
404,1436978168088,40.7251593941739
405,1436978168844,72.396704212222
406,1436978169427,54.1817804772836
407,1436978170112,57.5994901060366
408,1436978170830,50.4366055162516
409,1436978171421,73.5571911207944
410,1436978172001,72.9224635839182
411,1436978172578,50.4442755222969
412,1436978173154,44.5657961750273
413,1436978173761,38.9665221203536
414,1436978174559,48.2076003861554
415,1436978175227,76.537628057763
416,1436978175819,64.2816900095408
417,1436978176388,54.3604615121116
418,1436978176944,72.4047217417088
419,1436978177494,45.4516367801351
420,1436978178793,68.3156791582527
421,1436978179531,72.8463229855554
422,1436978180275,71.8297306983283
423,1436978181092,32.6947367579888
424,1436978181784,66.6243597127186
425,1436978182332,48.1394770123999
426,1436978182883,72.0475306728498
427,1436978183465,72.8449603355688
428,1436978184067,46.1432355287723
429,1436978184783,62.1682218120063
430,1436978185539,67.1764427604098
431,1436978186338,38.0842507886128
432,1436978186916,46.2554742589634
433,1436978187485,38.9033448212834
434,1436978188052,63.211333252185
435,1436978188623,69.9683543745316
436,1436978189174,50.7566890465843
437,1436978190396,42.0140018233941
438,1436978191035,42.3666196349804
439,1436978191736,47.6229903097574
440,1436978192436,43.0301210860128
441,1436978193077,48.3949896397776
442,1436978193772,71.5252737230488
443,1436978194413,69.7566125140732
444,1436978195108,73.0499951000744
445,1436978195876,68.9751961928675
446,1436978196589,68.0270380320616
447,1436978197331,48.9707895617159
448,1436978198023,68.572924688068
449,1436978198689,71.0421131612502
450,1436978199404,47.578476661462
451,1436978200138,47.1280843220189
452,1436978200905,64.8406390469947
453,1436978201601,54.759345259871
454,1436978202286,65.3684827654901
455,1436978203023,77.3277150076863
456,1436978203756,47.6569992671628
457,1436978204474,69.9317476777523
458,1436978205142,53.8874510360386
459,1436978205889,73.8240660616189
460,1436978206657,65.522991870612
461,1436978207363,35.9387041615494
462,1436978208107,50.8091969781855
463,1436978208835,39.486097976169
464,1436978209422,43.6265949365937
465,1436978210112,47.7498216911172
466,1436978210854,42.5980222044452
467,1436978211574,65.350249668312
468,1436978212303,42.7192006335476
469,1436978213036,55.7479761771017
470,1436978213724,46.701215879187
471,1436978214376,32.4876235038214
472,1436978215082,66.1743062881511
473,1436978215861,72.7973953544218
474,1436978216564,53.8012186955857
475,1436978217280,74.4262818197973
476,1436978217958,44.825578379839
477,1436978218550,71.3041471012685
478,1436978219265,67.5061959853525
479,1436978219998,65.6105214208899
480,1436978220771,62.9570747537838
481,1436978221484,68.6442019368912
482,1436978222140,67.1480661002507
483,1436978222876,53.8073751394614
484,1436978223641,57.6777467062516
485,1436978224384,42.0662352153781
486,1436978225059,66.8697022728897
487,1436978225820,42.0435943034797
488,1436978226513,64.6405701462737
489,1436978227238,38.4269696258694
490,1436978227948,60.3444556339014
491,1436978228731,55.5518383701596
492,1436978229454,45.1551689392087
493,1436978230160,53.4676430645116
494,1436978230888,45.9922214000534
495,1436978231623,70.8567522116835
496,1436978232348,59.772611489148
497,1436978233073,38.7793665447217
498,1436978233830,68.713475017521
499,1436978234560,60.4486830202212
500,1436978235226,68.0446501685943
501,1436978235959,48.2694676086099
502,1436978236714,71.3739383091021
503,1436978237496,43.6378023542027
504,1436978238110,74.2936617858871
505,1436978238748,73.3183354658598
506,1436978239482,70.2843671288328
507,1436978240208,49.1595952239877
508,1436978240977,70.0784408736645
509,1436978241706,53.6627176561967
510,1436978242418,70.9419325706166
511,1436978243139,71.4641785002118
512,1436978243883,40.6787406439434
513,1436978244585,73.6331931590161
514,1436978245252,73.8845455740557
515,1436978246077,67.0243016564922
516,1436978246827,66.3296023465711
517,1436978247540,46.7616041366368
518,1436978248232,55.8426278234864
519,1436978248958,56.2078736192134
520,1436978249699,72.3630990301282
521,1436978250409,70.366597530173
522,1436978251133,70.1718074233793
523,1436978251861,42.7173742380571
524,1436978252573,56.4356248888186
525,1436978253282,43.2260917512293
526,1436978254016,41.8905583799955
527,1436978254741,54.6697585369467
528,1436978255442,69.0810663282765
529,1436978256089,68.3680920618092
530,1436978256829,63.603142357396
531,1436978257527,74.9555931993778
532,1436978258211,55.7723382258823
533,1436978258785,51.6012702659976
534,1436978259474,68.2274893250398
535,1436978260187,67.1416368349883
536,1436978260864,39.2653836952918
537,1436978261566,51.63984226292
538,1436978262283,39.3517493817914
539,1436978262992,45.4159945117907
540,1436978264772,52.4617547637716
541,1436978265444,32.3160109108033
542,1436978266165,61.2334403309748
543,1436978266884,55.7393121600696
544,1436978267623,61.9770109147654
545,1436978268352,45.6532511884627
546,1436978269024,67.7899532584515
547,1436978269678,67.8409148947296
548,1436978270392,36.7817542275041
549,1436978271125,68.3891263159342
550,1436978271866,60.4862022116049
551,1436978272588,40.4890178517206
552,1436978273324,64.4514680179092
553,1436978274038,31.6855055946296
554,1436978274757,68.2728316463856
555,1436978275491,39.8749279264699
556,1436978276162,43.381377334946
557,1436978276848,38.7241384529061
558,1436978277592,65.240808238192
559,1436978279185,64.6469165586466
560,1436978279892,72.4157396745464
561,1436978280681,44.0134104033004
562,1436978281416,47.038214627441
563,1436978282135,55.732751119358
564,1436978282905,43.1319196483548
565,1436978283643,34.3885466016703
566,1436978284385,74.4238064644396
567,1436978285103,59.7461529679056
568,1436978285832,40.4551399629287
569,1436978286452,68.0637716647046
570,1436978287150,69.0629328988687
571,1436978287863,55.3228127916292
572,1436978288628,64.8744220580727
573,1436978289367,44.4013745583819
574,1436978290015,28.2358593673686
575,1436978290660,40.6549393114091
