id,attr_time,attr_x,attr_y,attr_z
1,1438258290022,-19.273,-28.967,12.887
2,1438258290040,-19.273,-28.967,12.887
3,1438258290060,-19.273,-28.967,12.887
4,1438258290082,-19.273,-28.967,12.887
5,1438258290105,-19.273,-28.967,12.887
6,1438258290124,-19.273,-28.967,12.887
7,1438258290145,-19.273,-28.967,12.887
8,1438258290163,-19.273,-28.967,12.887
9,1438258290183,-19.273,-28.967,12.579
10,1438258290202,-19.273,-28.967,12.579
11,1438258290220,-19.273,-28.967,12.579
12,1438258290245,-19.273,-28.967,12.579
13,1438258290266,-19.273,-28.967,12.579
14,1438258290285,-19.273,-28.967,12.579
15,1438258290302,-19.273,-28.967,12.579
16,1438258290325,-19.273,-28.967,12.579
17,1438258290380,-19.273,-28.967,12.579
18,1438258290381,-19.273,-28.967,12.579
19,1438258290382,-19.273,-28.967,12.579
20,1438258290402,-19.273,-28.967,12.579
21,1438258290425,-19.273,-28.967,12.579
22,1438258290442,-19.273,-28.967,12.579
23,1438258290460,-19.273,-28.967,12.579
24,1438258290480,-19.273,-28.967,12.579
25,1438258290502,-19.273,-28.967,12.579
26,1438258290522,-19.273,-28.967,12.579
27,1438258290543,-19.273,-28.967,12.579
28,1438258290562,-19.273,-28.967,12.579
29,1438258290580,-19.273,-28.967,12.579
30,1438258290604,-19.273,-28.967,12.579
31,1438258290621,-19.273,-28.967,12.579
32,1438258290641,-19.273,-28.967,12.579
33,1438258290663,-19.273,-28.967,12.579
34,1438258290683,-19.273,-28.967,12.579
35,1438258290703,-19.273,-28.967,12.579
36,1438258290724,-19.273,-28.967,12.579
37,1438258290743,-19.273,-28.967,12.579
38,1438258290763,-19.273,-28.967,12.579
39,1438258290788,-19.273,-28.967,12.908
40,1438258290804,-19.273,-28.967,12.908
41,1438258290827,-19.273,-28.967,12.908
42,1438258290846,-19.273,-28.967,12.908
43,1438258290863,-19.273,-28.967,12.908
44,1438258290884,-19.273,-28.967,12.908
45,1438258290900,-19.273,-28.967,12.908
46,1438258290921,-19.273,-28.967,12.908
47,1438258290942,-19.273,-28.967,12.908
48,1438258290967,-19.273,-28.967,12.908
49,1438258290994,-19.273,-28.967,12.908
50,1438258291009,-19.273,-28.967,12.908
51,1438258291021,-19.273,-28.967,12.908
52,1438258291191,-19.273,-28.967,12.908
53,1438258291192,-19.273,-28.967,12.908
54,1438258291193,-19.273,-28.967,12.908
55,1438258291194,-19.273,-28.967,12.908
56,1438258291195,-19.273,-28.967,12.908
57,1438258291196,-19.273,-28.967,12.908
58,1438258291197,-19.273,-28.967,12.908
59,1438258291198,-19.273,-28.967,12.908
60,1438258291207,-19.273,-28.967,12.908
61,1438258291235,-19.273,-28.967,12.908
62,1438258291242,-19.273,-28.967,12.908
63,1438258291261,-19.273,-28.967,12.908
64,1438258291285,-19.273,-28.967,12.908
65,1438258291302,-19.273,-28.967,12.908
66,1438258291325,-19.273,-28.967,12.908
67,1438258291344,-19.273,-28.967,12.908
68,1438258291365,-19.273,-28.967,12.908
69,1438258291382,-19.273,-28.967,12.908
70,1438258291405,-19.273,-28.967,12.908
71,1438258291424,-19.273,-28.967,12.908
72,1438258291442,-19.273,-28.967,12.908
73,1438258291465,-19.273,-28.967,12.583
74,1438258291484,-19.273,-28.967,12.583
75,1438258291505,-19.273,-28.967,12.583
76,1438258291524,-19.273,-28.967,12.583
77,1438258291544,-19.273,-28.967,12.583
78,1438258291566,-19.273,-28.967,12.583
79,1438258291582,-19.273,-28.967,12.583
80,1438258291604,-19.273,-28.967,12.583
81,1438258291624,-19.273,-28.967,12.583
82,1438258291642,-19.273,-28.967,12.583
83,1438258291665,-19.273,-28.967,12.583
84,1438258291686,-19.273,-28.967,12.583
85,1438258291706,-19.273,-28.967,12.583
86,1438258291728,-19.273,-28.967,12.583
87,1438258291744,-19.273,-28.967,12.583
88,1438258291762,-19.273,-28.967,12.583
89,1438258291783,-19.273,-28.967,12.583
90,1438258291802,-19.273,-28.967,12.583
91,1438258291824,-19.273,-28.967,12.583
92,1438258291843,-19.273,-28.967,12.583
93,1438258291898,-19.273,-28.967,12.583
94,1438258291899,-19.273,-28.967,12.583
95,1438258291902,-19.273,-28.967,12.583
96,1438258291926,-19.273,-28.967,12.583
97,1438258291942,-19.273,-28.967,12.583
98,1438258291970,-19.273,-28.967,12.583
99,1438258291989,-19.273,-28.967,12.583
100,1438258292003,-19.273,-28.967,12.583
101,1438258292030,-19.273,-28.967,12.583
102,1438258292054,-19.273,-28.967,12.583
103,1438258292064,-19.273,-28.967,12.583
104,1438258292083,-19.273,-28.967,12.583
105,1438258292106,-19.273,-28.967,12.583
106,1438258292122,-19.273,-28.967,12.583
107,1438258292145,-19.273,-28.967,12.583
108,1438258292162,-19.273,-28.967,12.583
109,1438258292182,-19.273,-28.967,12.583
110,1438258292204,-19.273,-28.967,12.583
111,1438258292225,-19.273,-28.967,12.583
112,1438258292243,-19.273,-28.967,12.583
113,1438258292265,-19.581,-28.967,12.583
114,1438258292285,-19.581,-28.967,12.583
115,1438258292304,-19.581,-28.967,12.583
116,1438258292323,-19.581,-28.967,12.583
117,1438258292344,-19.581,-28.967,12.583
118,1438258292364,-19.581,-28.967,12.583
119,1438258292385,-19.581,-28.967,12.583
120,1438258292404,-19.581,-28.967,12.583
121,1438258292424,-19.581,-28.967,12.583
122,1438258292447,-19.581,-28.967,12.583
123,1438258292467,-19.581,-28.967,12.583
124,1438258292487,-19.581,-28.967,12.583
125,1438258292505,-19.581,-28.967,12.583
126,1438258292524,-19.581,-28.967,12.583
127,1438258292544,-19.581,-28.967,12.583
128,1438258292565,-19.581,-28.967,12.583
129,1438258292584,-19.581,-28.967,12.583
130,1438258292606,-19.581,-28.967,12.583
131,1438258292651,-19.581,-28.967,12.583
132,1438258292652,-19.581,-28.967,12.583
133,1438258292662,-19.581,-28.967,12.583
134,1438258292683,-19.581,-28.967,12.583
135,1438258292705,-19.581,-28.967,12.583
136,1438258292723,-19.581,-28.967,12.583
137,1438258292743,-19.581,-28.967,12.583
138,1438258292767,-19.581,-28.967,12.583
139,1438258292784,-19.581,-28.967,12.583
140,1438258292804,-19.581,-28.967,12.583
141,1438258292826,-19.581,-28.967,12.583
142,1438258292845,-19.581,-28.967,12.583
143,1438258292868,-19.581,-28.967,12.583
144,1438258292886,-19.581,-28.967,12.583
145,1438258292906,-19.581,-28.967,12.583
146,1438258292926,-19.581,-28.967,12.583
147,1438258292943,-19.581,-28.967,12.583
148,1438258292965,-19.581,-28.967,12.583
149,1438258292993,-19.581,-28.967,12.583
150,1438258293005,-19.581,-28.967,12.583
151,1438258293028,-19.581,-28.967,12.583
152,1438258293046,-19.581,-28.967,12.583
153,1438258293065,-19.581,-28.967,12.583
154,1438258293083,-19.581,-28.967,12.583
155,1438258293105,-19.581,-28.967,12.583
156,1438258293125,-19.581,-28.967,12.583
157,1438258293155,-19.581,-28.967,12.583
158,1438258293163,-19.581,-28.967,12.583
159,1438258293185,-19.274,-28.967,12.583
160,1438258293205,-19.274,-28.967,12.265
161,1438258293226,-19.274,-29.281,12.265
162,1438258293244,-19.274,-29.281,12.265
163,1438258293266,-19.274,-29.281,12.265
164,1438258293286,-19.274,-29.281,12.265
165,1438258293305,-19.274,-29.281,11.936
166,1438258293332,-19.274,-29.281,11.936
167,1438258293388,-19.274,-29.281,11.936
168,1438258293389,-19.274,-29.281,11.936
169,1438258293390,-19.673,-29.281,11.534
170,1438258293403,-19.673,-29.281,11.534
171,1438258293423,-20.907,-29.281,11.195
172,1438258293445,-21.864,-28.901,9.751
173,1438258293466,-22.761,-28.901,8.276
174,1438258293484,-23.124,-28.465,6.678
175,1438258293505,-23.446,-27.653,5.418
176,1438258293524,-23.446,-26.741,3.895
177,1438258293544,-23.446,-26.741,2.963
178,1438258293565,-23.446,-26.741,1.947
179,1438258293587,-22.694,-26.405,1.255
180,1438258293608,-22.18,-26.405,0.689
181,1438258293626,-22.18,-26.771,-0.21
182,1438258293647,-21.594,-26.771,-0.21
183,1438258293666,-21.224,-26.771,-0.21
184,1438258293687,-20.805,-27.265,-0.21
185,1438258293707,-19.981,-27.265,0.297
186,1438258293727,-19.32,-27.76,0.61
187,1438258293747,-18.301,-28.134,0.169
188,1438258293766,-17.523,-29.049,0.84
189,1438258293786,-16.603,-29.536,0.437
190,1438258293823,-15.89,-30.197,0.437
191,1438258293824,-15.29,-30.676,1.078
192,1438258293851,-14.448,-31.262,1.535
193,1438258293868,-13.543,-31.809,1.217
194,1438258293884,-12.913,-32.437,1.217
195,1438258293906,-11.914,-32.437,0.741
196,1438258293926,-11.027,-33.137,0.741
197,1438258293945,-10.327,-33.137,0.741
198,1438258293965,-8.985,-33.576,1.281
199,1438258293985,-7.989,-33.576,1.281
200,1438258294005,-7.095,-33.943,1.281
201,1438258294025,-6.002,-33.943,1.281
202,1438258294044,-4.997,-33.943,1.281
203,1438258294075,-4.46,-33.943,1.281
204,1438258294084,-4.049,-33.943,1.606
205,1438258294106,-4.049,-33.943,1.606
206,1438258294155,-4.049,-33.943,1.606
207,1438258294156,-4.049,-33.943,1.606
208,1438258294175,-4.049,-33.943,0.939
209,1438258294184,-4.049,-33.943,-0.146
210,1438258294204,-4.963,-33.943,-0.648
211,1438258294224,-5.847,-34.3,-1.26
212,1438258294245,-6.242,-34.3,-1.26
213,1438258294272,-6.242,-34.3,-0.799
214,1438258294283,-6.871,-34.3,-0.799
215,1438258294304,-6.871,-34.637,-0.799
216,1438258294324,-6.871,-34.637,-0.799
217,1438258294348,-6.871,-34.637,-0.056
218,1438258294368,-6.871,-34.637,-0.056
219,1438258294388,-7.417,-34.637,0.256
220,1438258294408,-8.209,-34.637,0.256
221,1438258294428,-8.918,-34.637,0.732
222,1438258294443,-9.355,-34.637,1.512
223,1438258294468,-9.997,-34.637,1.512
224,1438258294488,-10.7,-34.637,2.755
225,1438258294508,-10.7,-34.637,3.315
226,1438258294524,-11.116,-34.637,3.924
227,1438258294547,-11.116,-34.637,5.39
228,1438258294568,-11.688,-34.637,5.39
229,1438258294588,-12.097,-34.637,5.929
230,1438258294607,-12.097,-34.637,6.823
231,1438258294628,-12.097,-34.637,7.211
232,1438258294647,-12.097,-34.637,7.542
233,1438258294668,-12.097,-34.637,7.542
234,1438258294688,-12.097,-34.637,7.542
235,1438258294708,-12.516,-34.637,8.137
236,1438258294728,-12.516,-34.637,8.137
237,1438258294745,-12.516,-34.637,8.137
238,1438258294766,-12.516,-34.637,8.137
239,1438258294786,-12.516,-34.637,8.137
240,1438258294806,-12.516,-34.637,7.759
241,1438258294861,-12.516,-34.637,8.096
242,1438258294862,-12.942,-34.637,8.096
243,1438258294865,-12.942,-34.637,8.526
244,1438258294885,-13.279,-34.637,8.526
245,1438258294905,-13.279,-34.637,8.212
246,1438258294926,-13.65,-34.637,8.212
247,1438258294947,-13.65,-34.301,8.58
248,1438258294967,-14.468,-34.301,8.58
249,1438258294986,-15.914,-34.301,8.886
250,1438258295006,-17.21,-33.886,8.886
251,1438258295025,-18.536,-33.886,8.886
252,1438258295046,-20.112,-32.17,8.886
253,1438258295070,-21.67,-29.983,8.886
254,1438258295089,-23.016,-28.222,8.886
255,1438258295108,-23.86,-26.495,8.886
256,1438258295129,-25.294,-25.207,8.309
257,1438258295149,-26.353,-24.169,7.409
258,1438258295168,-27.095,-22.892,6.469
259,1438258295188,-27.917,-21.827,5.566
260,1438258295208,-28.431,-20.977,5.175
261,1438258295229,-28.861,-20.431,4.814
262,1438258295246,-29.246,-19.325,4.098
263,1438258295268,-29.246,-19.325,4.721
264,1438258295286,-29.827,-18.397,4.347
265,1438258295308,-29.827,-17.997,4.347
266,1438258295328,-30.386,-17.504,4.347
267,1438258295379,-30.386,-17.124,4.876
268,1438258295382,-30.386,-16.658,5.267
269,1438258295385,-31.114,-16.213,5.267
270,1438258295408,-31.114,-16.213,5.267
271,1438258295428,-31.114,-16.213,5.267
272,1438258295452,-31.114,-16.213,4.817
273,1438258295469,-31.114,-16.213,4.817
274,1438258295487,-30.746,-16.213,4.817
275,1438258295508,-30.746,-16.74,4.817
276,1438258295527,-30.746,-17.114,4.817
277,1438258295548,-30.746,-17.114,4.817
278,1438258295576,-30.746,-17.114,4.817
279,1438258295619,-30.746,-17.114,5.145
280,1438258295620,-30.746,-17.114,5.496
281,1438258295637,-30.746,-16.638,5.94
282,1438258295645,-31.097,-16.638,5.94
283,1438258295671,-31.097,-16.299,6.25
284,1438258295686,-31.097,-16.299,6.25
285,1438258295706,-31.097,-16.299,6.25
286,1438258295727,-31.097,-15.899,6.25
287,1438258295747,-31.097,-15.899,6.686
288,1438258295767,-31.411,-15.899,6.686
289,1438258295786,-31.411,-15.899,6.997
290,1438258295809,-31.411,-15.899,6.997
291,1438258295830,-31.411,-15.899,7.366
292,1438258295850,-31.411,-15.899,7.366
293,1438258295870,-31.411,-15.597,7.699
294,1438258295889,-31.411,-15.597,7.699
295,1438258295909,-31.411,-15.597,7.699
296,1438258295932,-31.411,-15.597,8.135
297,1438258295948,-31.411,-15.597,8.135
298,1438258296057,-31.411,-15.597,8.135
299,1438258296058,-31.721,-15.597,8.489
300,1438258296059,-31.721,-15.27,8.489
301,1438258296060,-31.721,-15.27,8.489
302,1438258296061,-31.721,-15.27,8.489
303,1438258296075,-31.721,-15.27,8.489
304,1438258296089,-31.721,-15.27,8.489
305,1438258296110,-31.721,-15.27,8.489
306,1438258296129,-31.721,-15.27,8.489
307,1438258296149,-31.721,-15.27,8.489
308,1438258296169,-31.721,-15.27,8.489
309,1438258296189,-31.721,-15.27,8.489
310,1438258296209,-31.721,-15.27,8.489
311,1438258296228,-31.721,-15.27,8.489
312,1438258296251,-31.721,-15.27,8.489
313,1438258296270,-31.721,-15.27,8.489
314,1438258296289,-31.721,-15.27,8.489
315,1438258296313,-31.721,-15.27,8.489
316,1438258296374,-31.721,-15.27,8.489
317,1438258296375,-31.721,-14.967,8.489
318,1438258296376,-31.721,-14.967,8.489
319,1438258296395,-31.721,-14.967,8.489
320,1438258296407,-31.721,-14.967,8.489
321,1438258296428,-31.721,-14.967,8.489
322,1438258296446,-31.721,-14.967,8.489
323,1438258296466,-31.721,-14.967,8.489
324,1438258296489,-31.721,-14.617,8.489
325,1438258296507,-31.721,-14.617,8.489
326,1438258296528,-31.721,-14.617,8.489
327,1438258296548,-31.721,-14.617,8.489
328,1438258296569,-31.721,-14.617,8.489
329,1438258296587,-31.721,-14.617,8.489
330,1438258296610,-31.721,-14.617,8.489
331,1438258296630,-31.721,-14.617,8.489
332,1438258296650,-31.721,-14.617,8.489
333,1438258296669,-31.721,-14.315,8.489
334,1438258296690,-31.721,-14.315,8.489
335,1438258296710,-31.721,-14.315,8.489
336,1438258296730,-31.721,-14.315,8.489
337,1438258296750,-31.721,-14.315,8.489
338,1438258296771,-31.721,-14.315,8.489
339,1438258296787,-32.022,-14.315,8.489
340,1438258296810,-32.022,-14.315,8.489
341,1438258296828,-32.022,-14.315,8.489
342,1438258296848,-32.022,-14.315,8.489
343,1438258296870,-32.022,-14.315,8.489
344,1438258296890,-32.022,-14.315,8.489
345,1438258296910,-32.022,-14.315,8.489
346,1438258296938,-32.022,-14.315,8.489
347,1438258296948,-32.022,-14.315,8.489
348,1438258296970,-32.022,-13.993,8.489
349,1438258296990,-32.022,-13.993,8.489
350,1438258297010,-32.022,-13.993,8.489
351,1438258297029,-32.022,-13.993,8.489
352,1438258297047,-32.022,-13.993,8.489
353,1438258297096,-32.022,-13.993,8.489
354,1438258297097,-32.022,-13.993,8.489
355,1438258297119,-32.022,-13.993,8.489
356,1438258297127,-32.022,-13.679,8.489
357,1438258297149,-32.022,-13.679,8.489
358,1438258297167,-32.022,-13.679,8.489
359,1438258297188,-32.022,-13.679,8.489
360,1438258297209,-32.328,-13.679,8.489
361,1438258297227,-32.328,-13.679,8.489
362,1438258297251,-32.328,-13.679,8.489
363,1438258297272,-32.328,-13.679,8.489
364,1438258297288,-32.328,-13.679,8.489
365,1438258297309,-32.328,-13.679,8.489
366,1438258297330,-32.328,-13.679,8.489
367,1438258297350,-32.328,-13.679,8.489
368,1438258297369,-32.328,-13.679,8.489
369,1438258297390,-32.328,-13.679,8.489
370,1438258297410,-32.328,-13.679,8.489
371,1438258297430,-32.328,-13.679,8.489
372,1438258297450,-32.328,-13.679,8.489
373,1438258297469,-32.328,-13.679,8.489
374,1438258297490,-32.328,-13.679,8.489
375,1438258297508,-32.328,-13.679,8.489
376,1438258297529,-32.328,-13.679,8.489
377,1438258297550,-32.328,-13.679,8.489
378,1438258297568,-32.328,-13.679,8.489
379,1438258297589,-32.328,-13.679,8.489
380,1438258297610,-32.328,-13.679,8.489
381,1438258297631,-32.328,-13.679,8.489
382,1438258297651,-32.328,-13.679,8.489
383,1438258297671,-32.328,-13.679,8.489
384,1438258297691,-32.328,-13.679,8.489
385,1438258297710,-32.328,-13.679,8.489
386,1438258297728,-32.328,-13.679,8.489
387,1438258297749,-32.328,-13.679,8.489
388,1438258297769,-32.328,-13.679,8.489
389,1438258297788,-32.328,-13.679,8.489
390,1438258297841,-32.328,-13.679,8.489
391,1438258297853,-32.328,-13.679,8.489
392,1438258297854,-32.328,-13.679,8.489
393,1438258297868,-32.328,-13.679,8.489
394,1438258297890,-32.328,-13.679,8.489
395,1438258297908,-32.328,-13.679,8.489
396,1438258297931,-32.328,-13.679,8.489
397,1438258297949,-32.328,-13.679,8.489
398,1438258297970,-32.328,-13.679,8.489
399,1438258297989,-32.328,-13.679,8.489
400,1438258298031,-32.328,-13.679,8.489
401,1438258298032,-32.328,-13.679,8.489
402,1438258298049,-32.328,-13.679,8.489
403,1438258298071,-32.328,-13.679,8.489
404,1438258298091,-32.328,-13.679,8.489
405,1438258298111,-32.328,-13.377,8.489
406,1438258298131,-32.328,-13.377,8.489
407,1438258298150,-32.328,-13.377,8.489
408,1438258298171,-32.328,-13.377,8.489
409,1438258298191,-32.328,-13.377,8.489
410,1438258298211,-32.328,-13.377,8.489
411,1438258298230,-32.328,-13.377,8.489
412,1438258298252,-32.328,-13.377,8.489
413,1438258298268,-32.328,-13.377,8.489
414,1438258298290,-32.328,-13.377,8.489
415,1438258298311,-32.328,-13.377,8.489
416,1438258298331,-32.328,-13.377,8.79
417,1438258298350,-32.328,-13.377,8.79
418,1438258298368,-32.328,-13.377,8.79
419,1438258298388,-32.328,-13.377,8.79
420,1438258298408,-32.328,-13.377,8.79
421,1438258298428,-32.328,-13.377,8.79
422,1438258298448,-32.328,-13.377,8.79
423,1438258298468,-32.328,-13.377,8.79
424,1438258298490,-32.328,-13.377,8.79
425,1438258298510,-32.328,-13.377,8.79
426,1438258298533,-32.328,-13.377,8.79
427,1438258298602,-32.328,-13.377,8.79
428,1438258298603,-32.328,-13.377,8.79
429,1438258298604,-32.328,-13.377,8.79
430,1438258298611,-32.328,-13.377,8.79
431,1438258298637,-32.328,-13.377,8.79
432,1438258298649,-32.328,-13.377,8.79
433,1438258298668,-32.328,-13.377,8.79
434,1438258298690,-32.328,-13.377,8.79
435,1438258298709,-32.328,-13.377,8.79
436,1438258298730,-32.328,-13.377,8.79
437,1438258298750,-32.328,-13.377,8.79
438,1438258298768,-32.328,-13.377,8.79
439,1438258298790,-32.328,-13.377,8.79
440,1438258298812,-32.328,-13.377,8.79
441,1438258298832,-32.328,-13.377,8.79
442,1438258298852,-32.328,-13.377,8.79
443,1438258298870,-32.328,-13.377,8.79
444,1438258298890,-32.328,-13.377,8.485
445,1438258298912,-32.328,-13.377,8.485
446,1438258298935,-32.328,-13.377,8.485
447,1438258298949,-32.328,-13.377,8.485
448,1438258298972,-32.328,-13.377,8.485
449,1438258298994,-32.328,-13.377,8.485
450,1438258299011,-32.328,-13.377,8.485
451,1438258299029,-32.328,-13.377,8.485
452,1438258299050,-32.328,-13.377,8.485
453,1438258299070,-32.328,-13.377,8.485
454,1438258299094,-32.328,-13.377,8.485
455,1438258299112,-32.328,-13.377,8.485
456,1438258299134,-32.328,-13.377,8.485
457,1438258299149,-32.328,-13.377,8.485
458,1438258299170,-32.328,-13.377,8.485
459,1438258299190,-32.328,-13.377,8.485
460,1438258299211,-32.328,-13.377,8.485
461,1438258299242,-32.328,-13.377,8.485
462,1438258299295,-32.328,-13.377,8.485
463,1438258299296,-32.328,-13.377,8.485
464,1438258299297,-32.328,-13.377,8.485
465,1438258299317,-32.328,-13.377,8.485
466,1438258299330,-32.328,-13.377,8.485
467,1438258299349,-32.328,-13.377,8.485
468,1438258299369,-32.328,-13.377,8.485
469,1438258299389,-32.328,-13.377,8.485
470,1438258299410,-32.328,-13.377,8.485
471,1438258299432,-32.328,-13.377,8.485
472,1438258299451,-32.328,-13.377,8.485
473,1438258299474,-32.328,-13.377,8.485
474,1438258299490,-32.328,-13.377,8.485
475,1438258299509,-32.328,-13.377,8.485
476,1438258299532,-32.328,-13.377,8.485
477,1438258299552,-32.328,-13.377,8.485
478,1438258299569,-32.328,-13.377,8.485
479,1438258299590,-32.328,-13.377,8.485
480,1438258299612,-32.328,-13.377,8.485
481,1438258299632,-32.328,-13.377,8.485
482,1438258299652,-32.328,-13.377,8.485
483,1438258299670,-32.328,-13.377,8.485
484,1438258299707,-32.328,-13.377,8.485
485,1438258299708,-32.328,-13.377,8.485
486,1438258299730,-32.328,-13.377,8.485
487,1438258299798,-32.328,-13.377,8.485
488,1438258299799,-32.328,-13.377,8.485
489,1438258299800,-32.328,-13.377,8.485
490,1438258299812,-32.328,-13.377,8.485
491,1438258299829,-32.328,-13.377,8.485
492,1438258299849,-32.328,-13.377,8.485
493,1438258299871,-32.328,-13.377,8.485
494,1438258299891,-32.328,-13.377,8.485
495,1438258299910,-32.328,-13.377,8.485
496,1438258299932,-32.328,-13.377,8.485
497,1438258299954,-32.328,-13.377,8.84
498,1438258300058,-32.328,-13.377,8.84
499,1438258300077,-32.328,-13.377,8.84
500,1438258300078,-32.328,-13.377,8.84
