id,attr_time,attr_db
1,1436542100307,45.8955441053477
2,1436542101046,44.570408346594
3,1436542101825,43.805695800789
4,1436542102573,44.5190626037978
5,1436542103250,42.9742682179449
6,1436542103965,47.176329008201
7,1436542104719,42.7283535489575
8,1436542105442,43.1957040156643
9,1436542106173,44.8594271248234
10,1436542106980,44.7866479568639
11,1436542107703,45.0055070409093
12,1436542108423,45.5940925539763
13,1436542109144,42.6088390845948
14,1436542109803,41.1338657542822
15,1436542110565,42.5237576628105
16,1436542111288,44.6646176563451
17,1436542112069,43.9345505201778
18,1436542112801,44.9776637712566
19,1436542113454,44.7698133596964
20,1436542114174,50.811965486999
21,1436542114832,49.6038149009054
22,1436542115483,49.8138918958597
23,1436542116204,43.1716738981972
24,1436542116925,64.076011831231
25,1436542117650,42.8448162441027
26,1436542118387,43.5894436128507
27,1436542119126,63.9056062759931
28,1436542119834,44.0490064481421
29,1436542120726,42.6720194235948
30,1436542121397,42.1416073686187
31,1436542122191,43.2091037058411
32,1436542122879,44.9295770489373
33,1436542123538,46.528843204552
34,1436542124283,43.713751152251
35,1436542125034,48.1480904703577
36,1436542125759,46.8349046161183
37,1436542126497,46.3713570921229
38,1436542127309,47.4505958993157
39,1436542128056,62.4617668885038
40,1436542128779,51.5331934880113
41,1436542129484,52.3862252554316
42,1436542130177,48.5605621035534
43,1436542130891,56.8401121651578
44,1436542131682,51.2376677795002
45,1436542132424,46.0328632095836
46,1436542133103,47.9696649022947
47,1436542133833,50.4621368766885
48,1436542134577,45.1559991617473
49,1436542135318,52.4951017614783
50,1436542136108,48.8118703772491
51,1436542136840,45.2739909619138
52,1436542137590,46.9360146095846
53,1436542138322,47.5826390564955
54,1436542139051,49.9829739042851
55,1436542139701,49.4121161018639
56,1436542140468,49.1366770009186
57,1436542141216,51.6485480048419
58,1436542141934,47.7400159136317
59,1436542142664,49.7048280940746
60,1436542143429,48.605852400121
61,1436542144130,48.1552707822975
62,1436542144789,48.1982059945087
63,1436542145513,51.5574775387085
64,1436542146245,50.1538412942142
65,1436542146990,49.9172863028716
66,1436542147700,48.5445618157116
67,1436542148444,47.4029082469694
68,1436542149170,48.4280934488486
69,1436542149879,49.9734108901823
70,1436542150498,48.8893615245218
71,1436542151149,49.3280237604477
72,1436542151852,45.7365922084822
73,1436542152563,49.07797553368
74,1436542153266,47.2645823837762
75,1436542153996,48.3062587388659
76,1436542154720,49.7232059374676
77,1436542155449,47.193796543247
78,1436542156190,49.0792923704716
79,1436542156938,55.3863964860706
80,1436542157664,50.5862311443079
81,1436542158408,48.8863859635753
82,1436542159143,54.56114286107
83,1436542159899,48.8149122245239
84,1436542160681,50.0449296794408
85,1436542161317,53.5895436514074
86,1436542161960,50.1370213747099
87,1436542162724,58.0219383633387
88,1436542163345,59.4703795307705
89,1436542164066,60.5667529102698
90,1436542164808,59.4699444553711
91,1436542165556,61.4644455509928
92,1436542166278,62.2697054955368
93,1436542167106,61.71225756184
94,1436542167805,65.4731303546911
95,1436542168439,69.2294604437101
96,1436542169145,67.4169693716701
97,1436542169847,68.1943287670054
98,1436542170540,68.396441929801
99,1436542171234,63.934559085538
100,1436542172003,64.7385715861421
101,1436542172761,57.2410378073613
102,1436542173412,48.0483480158961
103,1436542174133,51.2657808202597
104,1436542174809,50.1692776570426
105,1436542175525,49.5480976612513
106,1436542176243,48.853255331146
107,1436542176973,48.44137086707
108,1436542177708,48.8330449457103
109,1436542178437,46.9357344643868
110,1436542179159,46.2756178550063
111,1436542179896,47.7884446616697
112,1436542180575,47.312184734384
113,1436542181364,44.7213046898083
114,1436542182042,46.4629954913019
115,1436542182743,46.1674594487924
116,1436542183394,48.3956028807849
117,1436542184072,47.674846473446
118,1436542184844,49.1698679027888
119,1436542185497,52.7363095698601
120,1436542186236,46.7947375248481
121,1436542186971,45.7676716825207
122,1436542187654,47.8272182434429
123,1436542188296,47.5658147583788
124,1436542188962,47.9187200260446
125,1436542189599,57.8741581806191
126,1436542190313,48.7745714408178
127,1436542191077,49.0729604625118
128,1436542191686,49.3042101777766
129,1436542192377,48.5584093000049
130,1436542193091,49.2504093484123
131,1436542193812,53.1695940707259
132,1436542194570,51.9847023448412
133,1436542195314,48.6934958618423
134,1436542196040,48.9411334351569
135,1436542196847,48.9038782620281
136,1436542197597,48.4070871203773
137,1436542198330,48.5763733186503
138,1436542199054,49.1441662213403
139,1436542199789,46.9830395029098
140,1436542200513,47.8373978422909
141,1436542201223,48.5366156814365
142,1436542201850,44.4654520934908
143,1436542202524,47.5959689130527
144,1436542203250,46.1628649754912
145,1436542203996,47.8747251309828
146,1436542204732,49.2406544669827
147,1436542205464,46.4687929638561
148,1436542206273,47.0800170905461
149,1436542207008,48.0054353702006
150,1436542207732,47.789416605466
151,1436542208484,44.8729426104633
152,1436542209130,48.2961554450792
153,1436542209849,53.9210909965316
154,1436542210587,50.2112865199717
155,1436542211338,44.8152260079846
156,1436542212036,48.0042201315794
157,1436542212760,49.3722182209359
158,1436542213483,44.7671257123164
159,1436542214256,46.8298563619496
160,1436542214939,46.723179720487
161,1436542215678,49.9250517848965
162,1436542216418,53.0628080952467
163,1436542217160,48.3784549808099
164,1436542217910,47.632698476949
165,1436542218625,51.4681919520849
166,1436542219367,48.5029609004473
167,1436542220119,49.9777129361505
168,1436542220843,46.6494810288425
169,1436542221517,48.2580369759454
170,1436542222224,45.4731203309752
171,1436542222973,47.9809027532731
172,1436542223732,47.5031623527873
173,1436542224427,49.3757893672802
174,1436542225095,49.1168260127459
175,1436542225844,49.1742167452265
176,1436542226606,48.1919931660685
177,1436542227306,47.3947198961991
178,1436542228008,47.2511735147774
179,1436542228729,48.8871345636348
180,1436542229460,53.7876753779068
181,1436542230185,47.9497729232174
182,1436542230944,48.8649396925362
183,1436542231651,51.979358357476
184,1436542232218,51.6578864892566
185,1436542232857,53.2382260584956
186,1436542233567,55.6822018651098
187,1436542234271,50.0489854389139
188,1436542234946,51.2459715917232
189,1436542235685,51.4755606072621
190,1436542236439,51.5441660536329
191,1436542237129,56.4785183745272
192,1436542237868,47.699809911878
193,1436542238602,51.4121314466238
194,1436542239327,49.520556958501
195,1436542240064,48.7729187461162
196,1436542240797,52.9655591078542
197,1436542241574,55.5478268839588
198,1436542242208,54.1435855618712
199,1436542242894,54.9621576818322
200,1436542243614,51.5167052119215
201,1436542244330,53.4569095193557
202,1436542245082,54.429325784402
203,1436542245784,53.3026685810656
204,1436542246487,50.0325997636181
205,1436542247286,56.8019554550292
206,1436542247996,53.7293280068697
207,1436542248670,55.2769691408299
208,1436542249365,57.8849896941633
209,1436542250127,54.3820399786014
210,1436542250874,57.6669094325336
211,1436542251660,64.9939381675542
212,1436542252273,55.9878980317932
213,1436542252978,56.4326123412823
214,1436542253692,53.4006650215047
215,1436542254432,54.6896219869243
216,1436542255153,56.3894143575854
217,1436542255861,57.4671605234237
218,1436542256632,54.1504711095118
219,1436542257346,57.3502579394536
220,1436542258057,57.5069424521714
221,1436542258809,55.7869864265203
222,1436542259542,54.5616264661556
223,1436542260280,55.3361722658364
224,1436542261017,55.6327584949271
225,1436542261750,55.0464647330479
226,1436542262375,55.9379462146434
227,1436542263049,55.0324437398703
228,1436542263810,57.8779201485106
229,1436542264533,57.6437036973712
230,1436542265257,60.4248925281491
231,1436542266001,61.1931056075709
232,1436542266809,60.6860964223593
233,1436542267495,58.0825427282993
234,1436542268066,58.1098197231675
235,1436542268746,61.2558935231571
236,1436542269476,60.6949976144056
237,1436542270215,62.989704508864
238,1436542270950,64.9620350207669
239,1436542271686,66.5000014880559
240,1436542272318,65.880557484332
241,1436542272987,68.1907088693266
242,1436542273720,66.8998103946942
243,1436542274445,67.0032433111764
244,1436542275093,69.4604989682428
245,1436542276469,66.4494234488724
246,1436542277173,63.4210288769267
247,1436542277897,64.6435235680417
248,1436542278627,64.1646881096165
249,1436542279380,65.7398333932212
250,1436542280135,64.0289266911385
251,1436542280878,65.4476624719616
252,1436542281610,63.4840752462583
253,1436542282320,63.7018564368901
254,1436542282973,63.2482296985526
255,1436542283746,65.5800018027271
256,1436542284488,63.3370919900036
257,1436542285213,62.1040163239066
258,1436542285876,61.6030460314095
259,1436542287320,61.8990845596766
260,1436542287970,65.9644698910465
261,1436542288753,65.8077811996419
262,1436542289482,65.3909103044756
263,1436542290218,64.5933383538718
264,1436542290940,63.7283165833929
265,1436542291549,63.7438527873286
266,1436542292230,63.8220573564522
267,1436542292981,66.4913853448747
268,1436542293749,67.9463046428789
269,1436542294508,68.5186067298124
270,1436542295232,69.4080934538195
271,1436542295958,67.9911369550592
272,1436542296677,69.234497076721
273,1436542297500,68.3942048965694
274,1436542298222,67.0770081476253
275,1436542298919,67.8162494776659
276,1436542299606,67.4395234863484
277,1436542300275,66.6778806182439
278,1436542301986,70.0936041046182
279,1436542302806,71.9737892791306
280,1436542303549,68.3636315682417
281,1436542304289,68.9477077560164
282,1436542305027,73.158494071615
283,1436542305790,73.0873783546026
284,1436542306513,68.50021246053
285,1436542307227,66.2850212856091
286,1436542307907,69.3412304902938
287,1436542308634,65.2295068375978
288,1436542309363,67.0484115524707
289,1436542311206,63.5925934122876
290,1436542311913,63.1989497419846
291,1436542312640,59.5082196257144
292,1436542313323,61.4507028105805
293,1436542314020,62.0743652821897
294,1436542314775,64.5932765490502
295,1436542315508,64.4554843575394
296,1436542316243,69.1676938869912
297,1436542316906,65.1621330283766
298,1436542317622,67.4169201899909
299,1436542318368,70.5069836362439
300,1436542319100,71.5009641189337
301,1436542319835,69.0996386392404
302,1436542320560,68.5326118500124
303,1436542321293,66.0038302127076
304,1436542321984,66.2602769980107
305,1436542322598,65.2618762156344
306,1436542323273,66.5625504541898
307,1436542324023,68.7962169444955
308,1436542324794,68.181051606415
309,1436542325544,65.465179631724
310,1436542326297,64.9619395402803
311,1436542327033,67.9063234624486
312,1436542327755,63.4619328421556
313,1436542328472,62.4517535951055
314,1436542329202,65.6341840710649
315,1436542329939,66.6044331247086
316,1436542330694,65.029162857084
317,1436542331430,63.9216319974739
318,1436542332169,65.2575657642251
319,1436542332898,66.2679015965792
320,1436542333532,65.9885016458015
321,1436542334215,66.1035361799779
322,1436542334954,63.7726787516777
323,1436542335680,65.8733882681471
324,1436542336423,66.3209830106922
325,1436542337148,63.2504904720552
326,1436542337875,64.3442475788483
327,1436542338618,64.2498779889674
328,1436542339412,64.8544875005601
329,1436542340147,64.5357366873788
330,1436542340881,63.9778958832155
331,1436542341610,62.5911927807839
332,1436542342357,63.3580223299113
333,1436542343099,61.8715617295081
334,1436542343843,60.5329693700046
335,1436542344548,61.2352426594411
336,1436542345230,63.0756127841197
337,1436542345951,61.8524113462253
338,1436542346690,65.0264462565526
339,1436542347415,63.4631632440981
340,1436542348162,63.8059410370459
341,1436542348893,63.932636992349
342,1436542349610,62.3636209308171
343,1436542350345,64.3943193356627
344,1436542351163,61.5926187259395
345,1436542351903,65.9119368860623
346,1436542352643,65.528767714158
347,1436542353386,64.6585261899791
348,1436542354084,63.6420730121467
349,1436542354835,64.4572273606482
350,1436542355569,65.3107788113909
351,1436542356371,63.2205827967603
352,1436542357053,66.6103823023272
353,1436542357743,67.5146607879143
354,1436542358474,67.1970595753426
355,1436542359200,67.4868854214902
356,1436542359923,67.0186000076035
357,1436542360650,67.0308968195334
358,1436542361417,67.1089450834678
359,1436542362146,65.6183606229395
360,1436542362892,64.1646332212828
361,1436542363584,61.9588834090301
362,1436542364311,62.219723860988
363,1436542365094,62.5732211469081
364,1436542365854,61.9895026287913
365,1436542366590,62.0698865614573
366,1436542367305,62.8858675978854
367,1436542368029,61.2566546410242
368,1436542368786,61.7139126050709
369,1436542369525,61.5083514660502
370,1436542370261,58.6341027315597
371,1436542370980,61.8922183866439
372,1436542371760,59.9008345255915
373,1436542372488,61.2500583041998
374,1436542373188,61.3226638506415
375,1436542373849,57.4377863175146
376,1436542374602,56.9836493946278
377,1436542375334,55.9825520813412
378,1436542376091,59.5726472143755
379,1436542376847,59.483051709079
380,1436542377579,56.7475818854628
381,1436542378306,58.1733309911329
382,1436542379070,60.4901196403932
383,1436542379800,58.7062483744393
384,1436542380498,60.4828241392764
385,1436542381137,62.8647381794602
386,1436542381823,60.2367794709505
387,1436542382549,55.0295821027954
388,1436542383278,57.2789634020474
389,1436542384017,55.8592527954105
390,1436542384784,61.9299953779729
391,1436542385523,63.2372475004669
392,1436542386252,64.5487991177538
393,1436542386966,57.0142305169951
394,1436542387733,56.4657434774293
395,1436542388457,54.7886130035281
396,1436542389188,58.743723649653
397,1436542390017,55.9133042218762
398,1436542390771,52.5578082503896
399,1436542391499,58.7651245543193
400,1436542392320,62.5396300765482
401,1436542393021,63.6837412996793
402,1436542393664,58.4377164924673
403,1436542394357,64.3454046794326
404,1436542395110,61.5765672435987
405,1436542395839,63.6933629482958
406,1436542396554,60.6729068216695
407,1436542397367,65.2571117857839
408,1436542398134,67.8062634396029
409,1436542398857,64.3412632730588
410,1436542399582,58.0460263728462
411,1436542400300,58.5747933617609
412,1436542401049,59.4166352532643
413,1436542401818,66.9657693281324
414,1436542402542,61.0868254033593
415,1436542403266,59.7441469736154
416,1436542403964,65.1087664472151
417,1436542404736,67.1753526230784
418,1436542405461,61.5195427575024
419,1436542406190,67.2616019246706
420,1436542406922,56.8827214346914
421,1436542407624,60.2571340853999
422,1436542408363,56.0547614908368
423,1436542409109,60.652453924265
424,1436542409862,60.520405247253
425,1436542410598,63.2856223806381
426,1436542411353,58.6115529409309
427,1436542412092,60.016571327797
428,1436542412843,60.9997340038208
429,1436542413573,50.8800057570096
430,1436542414168,51.9492581054872
431,1436542414850,46.9147164370333
432,1436542415626,57.9963596231161
433,1436542416346,47.3287032576231
434,1436542417087,49.8815869889001
435,1436542417769,47.7118689177991
436,1436542418508,46.0436814729631
437,1436542419247,45.944331988511
438,1436542419896,44.4347261576159
439,1436542420494,45.1569197929176
440,1436542421183,45.6402190540991
441,1436542421906,45.5111769190211
442,1436542422613,47.0357104106794
443,1436542423311,47.3566919911615
444,1436542423988,45.7580132593896
445,1436542424681,44.4317902481245
446,1436542425395,45.9805777224773
447,1436542426130,62.6939171371337
448,1436542426940,45.5589171591361
449,1436542427683,46.7727713088328
450,1436542428353,45.7883848302681
451,1436542429106,46.0107244738389
452,1436542429838,46.2532726675176
453,1436542430614,44.364868987441
454,1436542431346,45.757681100471
455,1436542432016,48.0016490226276
456,1436542432747,45.5040005318138
457,1436542433478,46.6315219567685
458,1436542434162,45.3581783981028
459,1436542434842,46.6900578789794
460,1436542435572,46.1901545961952
461,1436542436312,46.7167005988615
462,1436542437052,49.0906036460548
463,1436542437777,47.9047395460035
464,1436542438432,50.7081702261333
465,1436542439153,49.7807609384966
466,1436542439878,48.5693718315528
467,1436542440613,49.0530704710366
468,1436542441293,50.6804367911123
469,1436542442015,47.9557673841971
470,1436542442765,51.004729980118
471,1436542443492,48.8729034060402
472,1436542444227,48.6984883473856
473,1436542444955,50.6757647452226
474,1436542445680,51.0918902423018
475,1436542446415,52.0577661547209
476,1436542447160,50.5475160461835
477,1436542447839,54.4037035045314
478,1436542448476,52.0727420134297
479,1436542449177,53.4872007769825
480,1436542449921,51.644540371121
481,1436542450694,50.6334008116567
482,1436542451417,53.6129404761387
483,1436542452148,52.4900258263687
484,1436542452887,54.4892303886402
485,1436542453630,52.5664265730691
486,1436542454226,53.6655639986335
487,1436542454818,55.1735702532439
488,1436542455505,55.0662162522054
489,1436542456228,54.6846546314302
490,1436542456965,57.4151355960361
491,1436542457694,58.0851920571775
492,1436542458385,56.1609216456587
493,1436542459081,55.9643543959928
494,1436542459805,55.5067237289731
495,1436542460546,53.5889930931561
496,1436542461254,55.0555816948278
497,1436542461982,56.2279745218354
498,1436542462729,54.5411619651849
499,1436542463468,58.8688860939069
500,1436542464205,55.3120818827112
501,1436542464938,54.5173482349981
502,1436542465653,50.9712155064102
503,1436542466381,54.8938588152532
504,1436542467125,51.5263532750855
505,1436542467841,53.0137475300887
506,1436542468485,53.6650745772101
507,1436542469198,54.7534430021278
508,1436542469932,56.5370824842838
509,1436542470674,55.8552888687312
510,1436542471409,55.4229225486872
511,1436542472140,55.0435995803393
512,1436542472874,55.9945594221167
513,1436542473595,54.9348439769159
514,1436542474320,57.6476972957058
515,1436542475040,61.1844053724301
516,1436542475768,58.807591969915
517,1436542476484,56.3114484193742
518,1436542477195,55.8947430157973
519,1436542477991,54.3394850602907
520,1436542478609,55.8364585810649
521,1436542479203,57.5279292535425
522,1436542480536,56.4566827266413
523,1436542481214,59.1074962824712
524,1436542481967,57.8117731599137
525,1436542482735,58.456188295015
526,1436542483401,71.2287430830904
527,1436542484138,72.0578256851176
528,1436542484777,66.6859244275423
529,1436542485483,67.4805079459593
530,1436542486206,61.1229552455171
531,1436542486990,58.113145856685
532,1436542487720,58.7513499170675
533,1436542488464,55.0241122603914
534,1436542489150,55.9380527874382
535,1436542489836,58.2844496727735
536,1436542490618,54.1286271738978
537,1436542491354,55.8752628085428
538,1436542492093,58.404161814632
539,1436542492859,59.6413000012046
540,1436542493506,61.8218543524413
541,1436542495576,60.0833980289003
542,1436542496335,61.9509712570939
543,1436542497079,61.0036476486475
544,1436542497803,64.0220976661642
545,1436542498474,63.9399415030892
546,1436542499113,62.0233850276407
547,1436542499821,62.3119571002864
548,1436542500605,61.5084293611535
549,1436542501354,64.1496955944936
550,1436542502089,63.0419957992576
551,1436542502838,60.1504784286197
552,1436542503493,58.5784380425423
553,1436542504216,58.5335016950351
554,1436542504973,58.2004733907796
555,1436542505699,60.2364405287323
556,1436542506428,58.4993083508079
557,1436542507167,57.293900160022
558,1436542507897,58.1506249823646
559,1436542508630,55.0411201055628
560,1436542509322,55.5241929316291
561,1436542509998,52.9819840308497
562,1436542510759,53.2059933256544
563,1436542511503,49.6591118722888
564,1436542512237,48.28121333441
565,1436542512955,51.123281043596
566,1436542513611,49.2781110725084
567,1436542514238,50.2244091221372
568,1436542514827,50.2720622565798
569,1436542515515,53.450371107474
570,1436542516203,56.5347029677369
571,1436542518206,50.574352694207
572,1436542518869,47.4246982626093
573,1436542519605,49.0140632874656
574,1436542520258,49.004958307137
575,1436542520984,48.8975078768588
