id,attr_time,attr_db
1,1436542100459,44.939348006827
2,1436542100960,42.8554073638988
3,1436542101462,46.3503378010588
4,1436542101973,42.1080340114187
5,1436542102442,43.7135652834937
6,1436542102928,41.8537374144723
7,1436542103441,43.5345712405821
8,1436542103900,43.8857488103277
9,1436542104271,42.4819774014517
10,1436542104692,44.5490384734173
11,1436542105128,42.9407990804776
12,1436542105570,44.3124199490092
13,1436542106087,43.4230748992087
14,1436542106599,45.4309065758836
15,1436542107099,46.6896971641661
16,1436542107588,46.3007485962469
17,1436542107963,44.1065643780392
18,1436542108382,43.4921306301733
19,1436542108813,43.35738166972
20,1436542109194,44.0794632396176
21,1436542109566,55.8647177407929
22,1436542109999,42.1702128646594
23,1436542110468,46.8889427353188
24,1436542110963,44.4033205424254
25,1436542111456,44.9605249087077
26,1436542111957,47.3795113404119
27,1436542112456,52.1221159088346
28,1436542112974,55.4741460030555
29,1436542113378,48.9627562505198
30,1436542113799,54.4764737858884
31,1436542114155,49.3222304405775
32,1436542114587,53.5883512512303
33,1436542115064,58.8166580031958
34,1436542115573,49.2025994556434
35,1436542116105,50.1066162396275
36,1436542116583,48.1293765295725
37,1436542117063,68.3701403979398
38,1436542117662,44.7764483388195
39,1436542118041,42.1846991518989
40,1436542118442,44.0308007875437
41,1436542118879,47.3456140212485
42,1436542119355,66.6765283004183
43,1436542119821,50.5378926136402
44,1436542120238,53.8528873161302
45,1436542120674,42.925718997334
46,1436542121131,42.8790089159215
47,1436542121598,46.2087223545413
48,1436542122078,45.3208848593613
49,1436542122562,51.1863184912956
50,1436542123043,45.2739344045778
51,1436542123483,50.7210241751371
52,1436542123939,56.7533756890306
53,1436542124330,45.336313024059
54,1436542124771,49.768303105447
55,1436542125277,45.1862888789534
56,1436542125713,53.3742595468075
57,1436542126142,48.9661847439683
58,1436542126584,49.5729123786652
59,1436542127091,46.5863415345728
60,1436542127553,55.5567647770132
61,1436542127923,63.9127048377466
62,1436542128372,70.2490542052254
63,1436542128841,57.554678587552
64,1436542129230,52.6799216231392
65,1436542129662,51.4690138972729
66,1436542130116,53.2584851501159
67,1436542130576,57.666562130082
68,1436542131062,48.0093708750586
69,1436542131506,58.6118450780513
70,1436542131994,52.0550051064409
71,1436542132548,52.4907460375072
72,1436542133024,50.1570245516672
73,1436542133500,52.4698551588219
74,1436542134016,54.2401305427333
75,1436542134389,57.2495437936115
76,1436542134726,60.3477263049656
77,1436542135068,47.3007412183954
78,1436542135424,49.0847166968503
79,1436542135776,49.6972932851968
80,1436542136109,53.2983574981712
81,1436542136541,56.9348023760121
82,1436542137016,49.466889110997
83,1436542137601,46.9692470085506
84,1436542137973,47.5398814695485
85,1436542138420,47.0278026558005
86,1436542138893,49.0861898800081
87,1436542139410,48.0164853233087
88,1436542139888,50.1289093270753
89,1436542140360,55.1638511749625
90,1436542140839,49.3732761861787
91,1436542141315,54.8874102697592
92,1436542141738,49.4283383592081
93,1436542142197,49.5345854639262
94,1436542142626,52.2942185657868
95,1436542142986,47.8330934851874
96,1436542143413,49.6126969209376
97,1436542143887,48.0797153817653
98,1436542144364,48.5485633617119
99,1436542144820,47.0047543257318
100,1436542145216,54.2191315644658
101,1436542145616,53.9648344030536
102,1436542146090,50.122865004364
103,1436542146611,52.3559821439759
104,1436542146971,49.2203936014736
105,1436542147409,51.5972771394426
106,1436542147921,48.0711461768257
107,1436542148358,48.3156246879214
108,1436542148773,54.0824315961871
109,1436542149163,47.974133663554
110,1436542149560,48.7317650971388
111,1436542150039,47.4877511198535
112,1436542150517,54.9388050439018
113,1436542151000,47.8671417954463
114,1436542151486,50.1802538720017
115,1436542151939,48.2681173417292
116,1436542152398,50.0344500198375
117,1436542154220,48.5883206082174
118,1436542154674,51.0141016381801
119,1436542155117,48.1199301929271
120,1436542155529,50.5097705176809
121,1436542155992,49.1455840341076
122,1436542156527,48.287853145176
123,1436542156997,55.0347626624559
124,1436542157487,54.6510543524013
125,1436542157920,55.2082245828889
126,1436542158319,51.4475785276102
127,1436542158675,54.2287008936478
128,1436542159011,51.233128845222
129,1436542159441,52.2688383683046
130,1436542159893,50.9683087365179
131,1436542160378,53.0263292077654
132,1436542160857,54.0528229633293
133,1436542161349,62.2753073056135
134,1436542161830,53.2377867488155
135,1436542162307,53.9105672334039
136,1436542162857,58.2001640713205
137,1436542163292,61.5823443312985
138,1436542163717,63.4771321465249
139,1436542164182,63.679310514908
140,1436542164653,63.0292126137889
141,1436542165087,64.7512912524775
142,1436542165427,61.187162018379
143,1436542165841,60.8324247047997
144,1436542166325,61.9271604228877
145,1436542166685,63.9330045674818
146,1436542167090,62.314871985757
147,1436542167515,62.1370300357249
148,1436542167945,67.4625298921382
149,1436542168425,67.0463660968525
150,1436542168868,69.6636333000574
151,1436542169342,66.0241679980402
152,1436542169703,68.1524507971452
153,1436542170106,66.8559824782449
154,1436542170589,67.4304955108486
155,1436542171062,66.5714782822265
156,1436542171418,63.4925800530327
157,1436542171828,64.0668674830834
158,1436542172290,59.0057671366705
159,1436542172775,55.6610366743099
160,1436542173348,52.4568984436472
161,1436542173778,51.1419484619095
162,1436542174230,49.6849374945934
163,1436542174715,50.5614419479988
164,1436542175189,48.0661774251787
165,1436542175642,48.8424327110221
166,1436542176075,51.8841797369387
167,1436542176525,51.606540537011
168,1436542176968,53.8811658758684
169,1436542178376,47.2278718619585
170,1436542178718,46.1034949412811
171,1436542179144,46.5181060643355
172,1436542179596,46.0411773444282
173,1436542180100,46.6118790024313
174,1436542180574,47.3549508965772
175,1436542181063,47.6009012256802
176,1436542181535,50.8231804568837
177,1436542182028,48.0265721434998
178,1436542182510,52.4487277904287
179,1436542182975,49.8061347277026
180,1436542183400,47.9689481683964
181,1436542183817,50.9839556523222
182,1436542184213,50.2763196001519
183,1436542185869,50.0500268336831
184,1436542186266,47.215589071856
185,1436542186696,48.7291781964757
186,1436542187196,46.1331699647915
187,1436542187686,46.7822873054317
188,1436542188062,50.1560861853929
189,1436542188401,51.5724480244208
190,1436542188751,47.4788813549571
191,1436542189104,47.6583245954302
192,1436542189480,54.6079195233413
193,1436542189792,53.3068820823122
194,1436542190124,48.4535231016803
195,1436542190577,52.853062283302
196,1436542191057,49.1722844324934
197,1436542191533,48.1284803864486
198,1436542192028,48.626001777465
199,1436542192507,49.8052122985557
200,1436542193069,48.6119378340733
201,1436542193540,54.0379618503648
202,1436542194017,49.4728301652732
203,1436542194601,54.4040019215796
204,1436542194950,51.9622992186669
205,1436542195285,49.4476614660565
206,1436542195624,49.3355297815846
207,1436542195963,49.74557514073
208,1436542198019,49.7765329617815
209,1436542198396,48.4648432740551
210,1436542198810,48.1985721759244
211,1436542199242,48.3668712526681
212,1436542199707,53.9816242738127
213,1436542200160,48.5021828693249
214,1436542200633,52.8767165790512
215,1436542201037,47.9865459714266
216,1436542201392,46.2597774171363
217,1436542201732,46.5940395611718
218,1436542202107,47.2503614334188
219,1436542202448,50.5596511505254
220,1436542202792,52.9513692910609
221,1436542203160,46.6707395927674
222,1436542203581,45.8051508917259
223,1436542204046,47.207856805232
224,1436542204570,51.5309553509099
225,1436542205057,49.7936419684228
226,1436542205432,47.9050428911581
227,1436542205819,49.1896268874505
228,1436542206166,47.2425013111732
229,1436542206500,54.0875696871919
230,1436542206834,50.3456151354986
231,1436542207179,50.3983851116842
232,1436542208268,50.5329434760907
233,1436542208706,50.4203826961383
234,1436542209156,47.2239892876663
235,1436542209631,52.5408180945227
236,1436542209970,49.1394192445146
237,1436542210349,52.5151475393109
238,1436542210762,55.3449209803816
239,1436542211281,48.9873780098335
240,1436542211645,46.8504419965225
241,1436542211989,45.5331746849262
242,1436542213560,48.1623259982523
243,1436542213908,48.4421568226983
244,1436542214335,46.214403618223
245,1436542214778,51.3707057465652
246,1436542215285,48.7079629109794
247,1436542215858,48.0595871761034
248,1436542216235,52.823540773444
249,1436542216579,52.0724102663928
250,1436542216927,51.2140439829825
251,1436542217271,49.7255128845352
252,1436542217619,49.4574142529789
253,1436542217976,48.9127739941255
254,1436542218333,57.9173685324124
255,1436542218684,54.5187014229291
256,1436542220291,48.825862276959
257,1436542220662,48.0902923815723
258,1436542221126,46.7166023668696
259,1436542221570,49.3032506035841
260,1436542222024,47.8307703389432
261,1436542222514,49.4879594301395
262,1436542222971,46.7085317855207
263,1436542223400,47.6078959943387
264,1436542223869,51.8319118633966
265,1436542224352,48.0164079358308
266,1436542224841,53.9954305982387
267,1436542225350,53.2954702495354
268,1436542225834,54.4682536340927
269,1436542226316,56.4957823348992
270,1436542226732,49.1851331507452
271,1436542227108,53.3176560157461
272,1436542227568,48.2388604042986
273,1436542228068,48.1974695146473
274,1436542228621,47.1131427604173
275,1436542229063,49.4741707805175
276,1436542229527,55.5520919260508
277,1436542230028,48.9917992558363
278,1436542230414,54.165154145254
279,1436542230740,54.5398005840759
280,1436542231183,50.2325018911522
281,1436542231662,55.4212130371968
282,1436542232129,54.8984780564419
283,1436542232580,53.6157163445617
284,1436542233039,54.4701506493938
285,1436542233430,55.7719455830315
286,1436542233829,51.1188100577825
287,1436542234315,54.7512612009931
288,1436542234802,49.1665640239784
289,1436542235276,49.0206616309024
290,1436542235769,50.5839744605413
291,1436542236270,51.5792408981198
292,1436542236805,53.6129763161108
293,1436542237180,57.1219341717566
294,1436542237531,49.8664133999178
295,1436542237921,48.1794915835541
296,1436542238347,53.1997480472826
297,1436542238759,52.2963217174057
298,1436542239174,55.1324057626277
299,1436542239565,47.7338404256576
300,1436542239981,51.098653896193
301,1436542240460,61.8675455569369
302,1436542240953,52.3970136674066
303,1436542241441,55.5588665083285
304,1436542241948,51.6341039050336
305,1436542242442,55.2171575764547
306,1436542242882,58.9344430378327
307,1436542243356,57.9413916281003
308,1436542243839,56.4788842354804
309,1436542244343,53.3986053714233
310,1436542244815,56.9486898219385
311,1436542245240,55.266931149338
312,1436542245689,57.193410975366
313,1436542246148,59.5212551984622
314,1436542246622,55.5123138767464
315,1436542247077,57.7339048325287
316,1436542247528,56.6653469598641
317,1436542247971,54.4854475947214
318,1436542248440,55.4341013106529
319,1436542248929,56.866654233074
320,1436542249441,57.4566985299521
321,1436542249905,56.0577335533229
322,1436542250275,55.7240326140259
323,1436542250631,56.0513338974336
324,1436542251075,57.5508679978533
325,1436542251537,61.195564787236
326,1436542252013,59.2036112789672
327,1436542252542,57.9245911286626
328,1436542253053,59.447394685282
329,1436542253451,56.4301182921381
330,1436542253907,54.5980390329323
331,1436542254409,55.4251333531755
332,1436542254900,53.8274424276819
333,1436542255473,57.9215622339809
334,1436542255960,58.8678471758535
335,1436542256458,65.1725089375801
336,1436542256939,52.8834535419226
337,1436542257269,54.5958769819436
338,1436542257703,51.585785439452
339,1436542258237,61.8707391652449
340,1436542258729,55.1534908308786
341,1436542259173,57.2795928834543
342,1436542259589,55.3550484459605
343,1436542260041,55.5906947619183
344,1436542260546,56.9527830009507
345,1436542261046,53.8171746956139
346,1436542261567,55.5228184382342
347,1436542262056,54.9771891828278
348,1436542262587,56.8128175729225
349,1436542263007,57.943189892797
350,1436542263443,57.0815444920922
351,1436542263892,56.8348200041003
352,1436542264329,57.9357464509945
353,1436542264764,59.9867257231255
354,1436542265270,60.5501028029867
355,1436542265772,60.0781806192827
356,1436542266257,61.5681961164638
357,1436542266739,60.167148519708
358,1436542267235,60.8209402303676
359,1436542267659,60.4777160854626
360,1436542268017,60.8388054362873
361,1436542268462,60.5313550132953
362,1436542268935,60.5407477390934
363,1436542269401,61.6969734941949
364,1436542269841,62.6698086586022
365,1436542270353,66.4925570586533
366,1436542271915,67.8310042030845
367,1436542272402,68.2455119696544
368,1436542272857,68.4707927637762
369,1436542273267,69.7047347688658
370,1436542273638,65.5291660352932
371,1436542274088,67.3001588080348
372,1436542274566,68.2549931641218
373,1436542275056,70.0810105685728
374,1436542275514,71.4970125126193
375,1436542276020,71.5229336222302
376,1436542276487,67.0247212993293
377,1436542276940,63.765098199378
378,1436542277343,63.9459204839301
379,1436542277829,64.0933136019137
380,1436542278316,65.0244072830284
381,1436542278803,64.0205586130481
382,1436542279283,64.6173509664893
383,1436542279790,64.3737526372803
384,1436542280315,63.0633540908413
385,1436542280723,63.7804583480772
386,1436542281150,65.3425852583885
387,1436542281610,62.7875657843259
388,1436542282054,63.3558289232261
389,1436542282515,63.3641885349029
390,1436542283088,63.7472661462207
391,1436542283552,63.8500459758781
392,1436542284034,65.7376848525212
393,1436542284498,64.3847561405383
394,1436542284979,64.3890683930565
395,1436542285470,62.2468010178698
396,1436542285954,63.8010937909359
397,1436542286407,65.348089248507
398,1436542286885,65.8052734699169
399,1436542287365,65.8067760621697
400,1436542287881,65.5934571191219
401,1436542288237,66.1632845303887
402,1436542288650,65.7696318155504
403,1436542289124,64.0155246125324
404,1436542289626,65.9493812485009
405,1436542290076,65.1632720764961
406,1436542290501,66.619182759749
407,1436542290908,65.904532921191
408,1436542291364,65.6413566774531
409,1436542291816,65.4723062211686
410,1436542292313,65.5087863045997
411,1436542292862,65.9475281160879
412,1436542293356,66.8236834229814
413,1436542293831,68.8967939329735
414,1436542294363,68.9487289040423
415,1436542294709,66.2263846499478
416,1436542295099,64.5990437796764
417,1436542295531,65.3813654904448
418,1436542296003,67.3621951974982
419,1436542296517,69.9252377936369
420,1436542296990,67.0180729657673
421,1436542297463,68.3104175840066
422,1436542297997,72.6643690047046
423,1436542298448,67.3777602858477
424,1436542298898,69.3850522241144
425,1436542299377,67.4895951639601
426,1436542299849,67.0582933257839
427,1436542300339,68.6718360380246
428,1436542300838,69.3567210596749
429,1436542301319,68.7763340274078
430,1436542301807,70.3208756393026
431,1436542302301,71.3266891074762
432,1436542302686,71.0575735794997
433,1436542303082,71.8820596237759
434,1436542303525,71.5729315123581
435,1436542303947,71.7482183900501
436,1436542304417,71.2384599073649
437,1436542304895,70.9336092301866
438,1436542305401,73.2257972949332
439,1436542305934,72.564650268232
440,1436542306424,72.4984514010451
441,1436542306933,67.3071134908838
442,1436542307399,66.7800998641104
443,1436542307852,68.6597637328555
444,1436542308257,68.7019315078575
445,1436542308660,67.1074666135953
446,1436542309111,65.9211502573339
447,1436542309639,65.9413340352395
448,1436542310135,65.3673620491525
449,1436542310654,65.2547573113146
450,1436542311075,64.4849172556144
451,1436542311447,64.8833784794638
452,1436542311888,63.7928481369216
453,1436542312381,62.4974184630033
454,1436542312857,61.0798420769212
455,1436542313458,62.8694106787994
456,1436542313867,61.4966359110308
457,1436542314348,60.6955093576676
458,1436542314826,62.4174407815229
459,1436542315313,64.4261916220625
460,1436542315752,65.3704014794144
461,1436542316186,65.0829128280969
462,1436542316630,69.4081751134869
463,1436542317155,66.5881137279001
464,1436542317668,66.6320435445348
465,1436542318228,65.5485465330102
466,1436542318748,65.0611410101929
467,1436542319187,72.9875969503142
468,1436542319641,74.1537612392665
469,1436542320088,67.5393268338751
470,1436542320620,68.5868551932462
471,1436542321089,67.603261738459
472,1436542321614,68.4539533593769
473,1436542322092,67.6648268140743
474,1436542322632,67.2138100440746
475,1436542323128,66.3803666139599
476,1436542323623,67.7674518975073
477,1436542324058,68.8282660501742
478,1436542324527,66.9881334566117
479,1436542324939,66.4658458554394
480,1436542325375,66.8922051455012
481,1436542325821,65.6807816519389
482,1436542326241,68.5560666865484
483,1436542326712,68.9284205586937
484,1436542327216,67.6074984294048
485,1436542327709,64.1454327510726
486,1436542328230,63.844700374101
487,1436542328737,64.9898441137785
488,1436542330613,66.8621766700633
489,1436542331201,65.9899478288956
490,1436542331587,66.2247224790542
491,1436542331925,63.2102653016833
492,1436542332399,62.1159659397663
493,1436542332883,63.6972938303448
494,1436542333437,66.8971698177648
495,1436542333883,64.9366230888779
496,1436542334383,65.9670651483318
497,1436542334879,65.9900026179798
498,1436542335371,64.2866400782133
499,1436542335838,66.0138147772422
500,1436542336266,64.1404994028113
501,1436542336709,65.0428091270726
502,1436542337193,64.6347574794803
503,1436542337700,63.5514067546386
504,1436542338262,65.1583560233778
505,1436542338756,65.8911967368638
506,1436542339231,67.1345424060738
507,1436542339708,63.0496611674787
508,1436542340225,65.4060573325877
509,1436542340710,63.5145794257356
510,1436542341190,63.0983536685721
511,1436542341614,63.3117483002073
512,1436542342082,64.2767437938775
513,1436542342611,63.4685111969524
514,1436542343195,62.7712589899
515,1436542343641,60.5669465623735
516,1436542344053,60.867737425777
517,1436542344523,62.1362902964106
518,1436542344997,62.2931540164099
519,1436542345467,61.7733561283782
520,1436542345956,62.28820082505
521,1436542346425,62.5269807918899
522,1436542346864,61.4833120924862
523,1436542347340,62.038680891976
524,1436542347815,60.931472157173
525,1436542348328,64.5232214731833
526,1436542348728,62.5977072964958
527,1436542349172,63.1255694658376
528,1436542349630,63.1569899673065
529,1436542350099,60.4834020776537
530,1436542350630,63.2231609209115
531,1436542351116,62.8778481960649
532,1436542351607,65.3971826307101
533,1436542352024,65.3008889779715
534,1436542352459,66.9347650991803
535,1436542352955,67.9535954664267
536,1436542353463,67.1470305536361
537,1436542353909,64.5614241277245
538,1436542354403,63.6410963415317
539,1436542354846,65.722853167674
540,1436542355230,64.692583339816
541,1436542355597,66.3857723357018
542,1436542356058,69.1275761583876
543,1436542356573,66.1803200456711
544,1436542357023,63.7723964754079
545,1436542357469,65.2433070226559
546,1436542357914,67.1873689576914
547,1436542358370,68.0185522289227
548,1436542358805,68.3781904909099
549,1436542359246,66.3495523188947
550,1436542359687,66.4790113083326
551,1436542360160,65.3344849383361
552,1436542360675,65.9422930761874
553,1436542361186,66.2937445619156
554,1436542361633,64.0624329924202
555,1436542362044,66.95972227309
556,1436542362456,64.9252037326021
557,1436542362929,63.9093050756329
558,1436542363409,62.2422075703339
559,1436542363866,58.9447937463815
560,1436542364346,61.7762040990968
561,1436542364819,62.4770931460837
562,1436542365316,66.4167706553937
563,1436542365791,64.2220590317678
564,1436542366286,61.7167541794821
565,1436542366720,62.6264505663619
566,1436542367168,60.7941287936233
567,1436542367627,61.5789015513788
568,1436542368110,61.7483755417848
569,1436542368568,61.6078895253515
570,1436542369013,62.6995943645039
571,1436542369477,60.3827733898505
572,1436542369966,60.6528607915684
573,1436542370446,60.4459855537218
574,1436542370927,60.4924352504098
575,1436542371461,60.1786757320999
