id,attr_time,attr_db
1,1436542100384,44.8125678059971
2,1436542101098,47.7125483426215
3,1436542101792,41.7393036493939
4,1436542102426,45.1283436676744
5,1436542103137,45.4195045518984
6,1436542103875,46.2350972091182
7,1436542104619,43.8107952415304
8,1436542105320,43.1224462439196
9,1436542105988,45.044708090732
10,1436542106710,43.6842150303153
11,1436542107433,44.5307131852804
12,1436542108165,44.3373337004221
13,1436542108897,44.6516117182959
14,1436542109615,63.7846160635833
15,1436542110339,45.7277962689889
16,1436542111106,44.8451986148273
17,1436542111794,40.5943392775941
18,1436542112456,43.0143108716227
19,1436542113174,44.6903020742291
20,1436542113902,57.7349440684836
21,1436542114629,52.6630507041549
22,1436542115335,57.5167750363879
23,1436542116081,42.8134124535475
24,1436542116841,69.9697740761662
25,1436542117615,43.1427711339883
26,1436542118292,41.706916623552
27,1436542118971,74.0118848730729
28,1436542119566,44.3110266845928
29,1436542120262,42.7904657149862
30,1436542121009,43.411010785649
31,1436542121742,42.1183204604673
32,1436542122415,41.5087144865252
33,1436542123086,46.0337603716562
34,1436542123817,44.3343556228071
35,1436542124554,55.5135333100663
36,1436542125213,43.4676565285955
37,1436542125984,44.8741290531601
38,1436542126711,45.6035291305598
39,1436542127450,70.2119156573289
40,1436542128178,73.8133492567761
41,1436542128917,47.1236781641561
42,1436542129654,55.2119405054206
43,1436542130377,58.1051706861013
44,1436542131124,57.9898319244192
45,1436542131863,63.5466261930306
46,1436542132561,57.1734876805137
47,1436542133227,49.29941591278
48,1436542133942,46.6239518228814
49,1436542134667,46.4702457162912
50,1436542135325,48.3084919803598
51,1436542136099,47.998392449842
52,1436542136857,46.6210568576579
53,1436542137580,47.1176222043465
54,1436542138327,52.8692327084225
55,1436542139001,46.6516147173977
56,1436542139613,49.2691455448117
57,1436542140324,52.3566138345761
58,1436542141094,49.2015983037954
59,1436542141825,47.0221782628522
60,1436542142518,46.9250043203901
61,1436542143199,47.7038570896639
62,1436542143987,47.5436005211505
63,1436542144711,46.7042258910223
64,1436542145395,46.2990242377182
65,1436542146159,47.4782932654913
66,1436542146895,48.1610221524767
67,1436542147617,46.858785944136
68,1436542148342,45.9929052622619
69,1436542149068,48.4291923556921
70,1436542149799,47.7418536261715
71,1436542150495,50.4940127166318
72,1436542151249,48.3639345996132
73,1436542151964,47.5912954188517
74,1436542152661,47.827912848599
75,1436542153305,47.1436975327073
76,1436542154004,47.969460568615
77,1436542154784,47.0877649600488
78,1436542155546,47.0264490266515
79,1436542156211,47.5856093668091
80,1436542156931,49.107824845371
81,1436542157677,47.5618559831324
82,1436542158404,51.09815918823
83,1436542159149,49.5001852872146
84,1436542159897,50.0801254709528
85,1436542160589,50.8353735004084
86,1436542161213,47.1195374711371
87,1436542161965,51.4500267321778
88,1436542162779,55.8452998108548
89,1436542163471,60.8629636698044
90,1436542164125,59.0268068820088
91,1436542164865,63.7004646088008
92,1436542165585,59.6041430609323
93,1436542166283,66.0020768529403
94,1436542166958,60.4789356628567
95,1436542167794,64.819993841349
96,1436542168558,64.4410738454628
97,1436542169248,63.1014070112626
98,1436542169966,67.6623536607595
99,1436542170710,64.2748694581838
100,1436542171432,57.804659822211
101,1436542172158,59.3617078132213
102,1436542172885,52.4017981389321
103,1436542173579,49.8736193011014
104,1436542174285,50.1076127513453
105,1436542175035,50.0224318748534
106,1436542175674,49.8484727220297
107,1436542176402,55.125514954733
108,1436542177137,49.2615043903822
109,1436542177865,47.785240724161
110,1436542179666,45.7221664543827
111,1436542180257,46.6803904677026
112,1436542180949,45.4665920821756
113,1436542181709,44.8226388283239
114,1436542182426,46.6193741851577
115,1436542183124,45.3304596393422
116,1436542183807,48.0686787276947
117,1436542184573,53.4072131780357
118,1436542185447,52.0794934395439
119,1436542186137,46.146527150327
120,1436542186884,45.436822508616
121,1436542187592,48.516842109281
122,1436542189434,55.9964221816797
123,1436542190170,47.67007172601
124,1436542190922,46.8384880572452
125,1436542191671,47.1497472161898
126,1436542192427,46.1230345643018
127,1436542193153,49.5149282327959
128,1436542193876,48.5531016753676
129,1436542194564,49.7112743983306
130,1436542195248,47.4693082593991
131,1436542195854,48.2645336032215
132,1436542196547,48.1465588985726
133,1436542197283,48.4398262095276
134,1436542198023,47.5903781994171
135,1436542198759,46.7660156651398
136,1436542199485,45.406350675007
137,1436542200209,46.6038258845654
138,1436542200974,43.1028833803826
139,1436542201658,45.0498364164639
140,1436542202393,45.9750398541117
141,1436542203042,45.9661213361173
142,1436542204820,45.4795154307621
143,1436542205445,46.5305953513487
144,1436542206199,48.1642293913963
145,1436542206890,47.461724996522
146,1436542207589,48.5144242483289
147,1436542208361,47.7213002157259
148,1436542209095,51.357538894463
149,1436542209812,47.7267280571388
150,1436542210618,51.2858780807767
151,1436542211359,45.3201299480691
152,1436542212021,45.3735061817147
153,1436542213407,46.4553131336843
154,1436542214104,45.5144311545778
155,1436542214752,46.5231013604081
156,1436542215473,51.5406329141822
157,1436542216612,45.2468855468994
158,1436542217242,46.2026175461071
159,1436542217839,57.9082023871074
160,1436542218481,48.6862635404846
161,1436542219231,49.0081600925454
162,1436542220045,46.5657288581286
163,1436542220785,45.9946941134258
164,1436542221526,47.1356157186642
165,1436542222267,45.3510025424953
166,1436542222993,46.9137498960449
167,1436542223731,49.8222174670303
168,1436542224464,46.5172901739014
169,1436542225140,48.4925339487479
170,1436542225876,47.72761985769
171,1436542226654,47.0556394903392
172,1436542227393,48.243905196631
173,1436542228093,46.2455186197234
174,1436542228691,50.1621991307684
175,1436542229328,48.7627435118593
176,1436542230020,47.8566763665503
177,1436542230772,48.4983563034766
178,1436542231496,49.2975574168314
179,1436542232234,50.6029259848435
180,1436542232979,54.565851332461
181,1436542233709,48.6110312535871
182,1436542234415,50.3213209436218
183,1436542235149,48.5694433685512
184,1436542235817,56.8200148387446
185,1436542236508,51.3662965834024
186,1436542237212,47.3158390199577
187,1436542237812,47.2815439532789
188,1436542238479,48.5811356013511
189,1436542239207,50.5878647646481
190,1436542239920,48.658074935101
191,1436542240606,49.4731692287781
192,1436542241346,57.0952083504709
193,1436542242083,51.2930828485617
194,1436542242820,52.9364336244979
195,1436542243560,48.5745926738319
196,1436542244305,53.2473491835862
197,1436542244992,54.2029743382991
198,1436542245634,52.3453363207653
199,1436542246418,52.9612198722579
200,1436542247154,56.6016010258455
201,1436542247811,53.5710869188279
202,1436542248553,57.2327806616672
203,1436542249296,56.8180611894051
204,1436542250029,56.1582024340047
205,1436542250794,58.2921481381001
206,1436542251511,64.6691461029998
207,1436542252258,57.5299331053184
208,1436542252990,54.8399079801251
209,1436542253705,52.9787672874333
210,1436542254414,51.5799576907643
211,1436542255109,55.2911890647624
212,1436542255738,58.6976949012077
213,1436542256389,51.2765650675826
214,1436542257124,54.3953791615
215,1436542257813,57.5615541730879
216,1436542258595,55.2552259763623
217,1436542259370,51.5536321477037
218,1436542260106,50.4399150642965
219,1436542260865,53.7268890713044
220,1436542261608,54.0500145988537
221,1436542262369,53.5868734014943
222,1436542263087,52.9719436601581
223,1436542263822,57.0578924828192
224,1436542264555,56.0364791466444
225,1436542265354,58.036721602315
226,1436542266015,56.3898256712831
227,1436542266792,58.1680902973202
228,1436542267518,55.9993197991687
229,1436542268212,58.4743897273877
230,1436542268859,58.5806101441489
231,1436542269600,62.2188902690275
232,1436542270399,62.3937075829671
233,1436542271134,64.9389183097408
234,1436542271864,65.5659251362425
235,1436542272590,66.9130367539535
236,1436542273313,65.6874999733246
237,1436542274075,65.2642960021404
238,1436542274803,66.4250964307476
239,1436542275534,71.1157667933067
240,1436542276126,64.149741151035
241,1436542276828,64.4005842427631
242,1436542277614,63.8722639520771
243,1436542278343,63.7712745373662
244,1436542279090,63.6206272590142
245,1436542279822,62.4558728063114
246,1436542280504,63.9611222545601
247,1436542281249,64.7645877387511
248,1436542281991,62.5832345004505
249,1436542282776,63.245943725503
250,1436542283501,62.4454952835467
251,1436542284240,62.9883838320561
252,1436542284972,60.5034321187
253,1436542285683,63.4877118098859
254,1436542286411,64.3234970597152
255,1436542287156,65.0763722486154
256,1436542287881,65.1979323115635
257,1436542288613,66.6827748550362
258,1436542289337,64.3876832265059
259,1436542289989,64.026997389328
260,1436542290720,65.9711657189209
261,1436542291454,63.582903079257
262,1436542292103,68.0707555275221
263,1436542292807,64.7875027518852
264,1436542293533,69.8487900511394
265,1436542294278,72.5355190687183
266,1436542295010,66.1103243788736
267,1436542295697,66.8679515329672
268,1436542296306,67.7438315048114
269,1436542296986,65.9629741696638
270,1436542297707,67.8048733956997
271,1436542298434,65.6730815011774
272,1436542299179,66.4732972595782
273,1436542299894,67.7630578650533
274,1436542300627,68.2792297006751
275,1436542301365,70.1919103654294
276,1436542302120,70.0850934965261
277,1436542302873,73.197486741834
278,1436542303600,71.9376742873009
279,1436542304324,69.2901594879652
280,1436542305080,71.8417643801126
281,1436542305817,72.2852870692982
282,1436542306540,65.7941128161919
283,1436542307276,66.2259242106242
284,1436542308022,68.7155766297672
285,1436542308753,66.1840449636185
286,1436542309478,66.5933006710672
287,1436542310283,65.5324124320247
288,1436542311033,62.6883672008792
289,1436542311779,63.8077292325672
290,1436542312526,60.2158884153573
291,1436542313256,61.5823199792151
292,1436542313996,61.9237306304709
293,1436542314756,62.4315745055042
294,1436542315514,64.7022427461345
295,1436542316259,64.2629731783167
296,1436542316985,65.008393076203
297,1436542317667,64.8604707557043
298,1436542318296,64.7723498068549
299,1436542318908,72.0652597544334
300,1436542319654,68.6782704084175
301,1436542320362,64.4931962578629
302,1436542320967,64.3032338153322
303,1436542321672,64.9088638933154
304,1436542322430,66.9897062800757
305,1436542323160,68.5026244431971
306,1436542323910,66.3255988697616
307,1436542324633,63.6831588361338
308,1436542325416,67.9582589069052
309,1436542326145,67.5302594825631
310,1436542326872,68.8291978898844
311,1436542327609,63.6579597124609
312,1436542328373,61.9731570495672
313,1436542329115,63.5860775565021
314,1436542329857,64.0780711351188
315,1436542330598,63.8383471428341
316,1436542331395,64.8887266062282
317,1436542332117,61.162744813559
318,1436542332848,63.3306164649636
319,1436542333589,63.4145755585143
320,1436542334293,64.4944543231226
321,1436542335036,64.1515882061885
322,1436542335777,64.9229065608333
323,1436542336531,63.1204344981927
324,1436542337269,64.1545334117088
325,1436542338034,63.0940372124751
326,1436542338665,63.2473277937557
327,1436542339397,62.2615250481894
328,1436542340144,65.1027950923964
329,1436542340904,61.6729515670683
330,1436542341640,62.4705282750937
331,1436542342404,62.2839280747657
332,1436542343124,59.0379062973399
333,1436542343850,61.2254550823727
334,1436542344559,61.675754965714
335,1436542345264,62.0398642711354
336,1436542346008,61.2679578203567
337,1436542346734,61.0830494067721
338,1436542347495,63.1021239844375
339,1436542348244,62.4939505376238
340,1436542348976,61.7723164473315
341,1436542349692,63.1313963807199
342,1436542350526,63.5097842533176
343,1436542351258,62.2289536099367
344,1436542351988,63.736980018399
345,1436542352721,67.9381058208334
346,1436542353472,63.1710535983204
347,1436542354209,63.7800934558798
348,1436542354997,64.4781141718819
349,1436542355747,68.2687338481504
350,1436542356508,64.4209427213615
351,1436542357243,63.4334780218881
352,1436542357969,67.6930911136367
353,1436542358685,65.0822615894976
354,1436542359434,62.5072698890454
355,1436542360174,67.2118401149236
356,1436542360892,63.6336763674672
357,1436542361646,67.2523069701498
358,1436542362443,64.4568128569645
359,1436542363112,65.4879338632166
360,1436542363841,63.0675499964984
361,1436542364619,63.877781581875
362,1436542365380,67.7093050615623
363,1436542366090,62.7661608650018
364,1436542366804,62.7177686944804
365,1436542367557,63.2345443954819
366,1436542368269,61.9599550288454
367,1436542368990,60.3154645175251
368,1436542369738,61.5908420952098
369,1436542370504,62.9572229531273
370,1436542371224,59.5571882013228
371,1436542371964,63.3943106362032
372,1436542372689,66.4814848930471
373,1436542373495,62.1432002919507
374,1436542374236,59.8816878682231
375,1436542374948,56.9356043193168
376,1436542375689,60.1238138544149
377,1436542376456,58.0771079742273
378,1436542377199,54.9720611074794
379,1436542377919,57.2301355637122
380,1436542378610,57.8987124959052
381,1436542379316,58.9437640686521
382,1436542380080,55.5158065374105
383,1436542380795,58.5176699372239
384,1436542381520,58.496574312049
385,1436542382159,53.7450471299471
386,1436542383834,56.8573099591707
387,1436542384514,58.1985154145249
388,1436542385248,61.5664255445401
389,1436542385947,64.8867530662907
390,1436542386676,55.1697676732279
391,1436542387420,56.3512259191114
392,1436542388142,58.6210524634238
393,1436542388877,53.0066211485497
394,1436542389686,56.822128668438
395,1436542390344,56.0214973948383
396,1436542391070,58.0849665321089
397,1436542391812,62.8164355404076
398,1436542392546,66.6739120632113
399,1436542393278,59.2898767094201
400,1436542394000,68.326149875517
401,1436542394766,57.3429053943976
402,1436542395518,57.7627157275756
403,1436542397686,62.8749350274185
404,1436542398509,60.4529800823172
405,1436542399112,57.7831347892705
406,1436542399806,59.3704995463546
407,1436542400479,62.0087588543286
408,1436542401105,62.6914771139914
409,1436542401806,57.4609255775465
410,1436542402562,62.7416961062766
411,1436542403295,61.556816115088
412,1436542404024,61.6524307386244
413,1436542404789,55.4313334537796
414,1436542405561,59.8822907253025
415,1436542406310,57.8129650028938
416,1436542406960,59.6008281374995
417,1436542407570,59.2694003573151
418,1436542408290,56.2448013278397
419,1436542408953,57.8232877528391
420,1436542409620,61.2978308230013
421,1436542410309,59.4503813161812
422,1436542411034,56.1946938552395
423,1436542411781,56.8797401727305
424,1436542412573,58.3708067032956
425,1436542413294,48.2909502519895
426,1436542414028,52.2300151059956
427,1436542414773,46.194460088207
428,1436542415526,48.0583401356015
429,1436542416236,48.9134275852472
430,1436542416999,47.3713153415745
431,1436542417718,47.1555964742468
432,1436542418445,47.6127817590406
433,1436542419111,45.9153122662374
434,1436542420823,45.4903023656297
435,1436542421504,45.2492437795118
436,1436542422267,44.8293634545529
437,1436542422921,45.7404744819639
438,1436542423616,47.2017708524963
439,1436542424338,47.9062123157669
440,1436542425077,47.0888280358452
441,1436542425814,46.4220387505053
442,1436542426566,48.7776005455837
443,1436542427303,46.908881577938
444,1436542428044,46.6952972717059
445,1436542428808,46.6416521566452
446,1436542429528,46.8907939723447
447,1436542430194,46.095630823374
448,1436542430937,46.9858687008826
449,1436542431673,45.9158243613292
450,1436542432373,44.4969502196566
451,1436542433503,46.3728643725951
452,1436542434226,47.322826644973
453,1436542434938,45.3258337782811
454,1436542435594,46.8522068524264
455,1436542436329,47.5931182461324
456,1436542437038,47.4217713387179
457,1436542437749,47.8851909742478
458,1436542438492,48.1567945390495
459,1436542439188,48.5854956708037
460,1436542439832,49.6557284354149
461,1436542440482,49.9073028153415
462,1436542441226,49.7812505559879
463,1436542441947,48.464061962304
464,1436542442709,48.523377002142
465,1436542443383,51.796054959412
466,1436542444207,50.979852923083
467,1436542444922,51.9806277657098
468,1436542445667,51.4614033310427
469,1436542446406,53.7882460521387
470,1436542447145,54.7017010475938
471,1436542447880,55.1321689300603
472,1436542448601,54.5325354879886
473,1436542449339,53.9822158807786
474,1436542450053,53.2168898387649
475,1436542450734,54.2984017983161
476,1436542451431,54.1523302203466
477,1436542452140,55.9577388838554
478,1436542452882,60.1929335901999
479,1436542453652,55.676411197675
480,1436542454385,56.6403829319978
481,1436542455148,56.5131122169532
482,1436542455880,57.124430959169
483,1436542456601,60.2992082547176
484,1436542457336,60.3869591201623
485,1436542458068,59.8410556904069
486,1436542458786,58.2533980112976
487,1436542459518,55.656440377851
488,1436542460243,55.0309630651591
489,1436542460916,56.8161381301567
490,1436542461604,55.4590548152901
491,1436542462279,58.1361628619106
492,1436542462953,56.8337703652259
493,1436542463672,59.9350430350554
494,1436542464399,56.2088459016177
495,1436542465128,73.8098513726717
496,1436542465849,56.5035557320643
497,1436542466578,54.2361171008847
498,1436542467346,54.845636793601
499,1436542468083,55.1909062059842
500,1436542468814,54.8000286048691
501,1436542469491,54.8779465474006
502,1436542470157,55.9809579391253
503,1436542470864,55.3942328211366
504,1436542471514,55.5052622970699
505,1436542472259,55.3360765107375
506,1436542472988,55.583672972128
507,1436542473690,56.485326935862
508,1436542474394,59.7469568065648
509,1436542475112,59.0259826353287
510,1436542475868,56.889280257324
511,1436542476605,57.8759864969293
512,1436542477338,56.1839277825295
513,1436542478072,56.4690396032997
514,1436542478806,59.1953782929803
515,1436542479518,55.9347038920356
516,1436542480256,55.043914154029
517,1436542480855,55.9411467770202
518,1436542481549,63.6333456844339
519,1436542482299,63.3732884388725
520,1436542483021,66.4265420791929
521,1436542483703,70.1533508662242
522,1436542484342,65.3124728296984
523,1436542485053,65.7458293263759
524,1436542485786,61.8839683270974
525,1436542486519,57.4314926593158
526,1436542487268,58.5618894357246
527,1436542488002,56.0890315313574
528,1436542488720,57.6360749405386
529,1436542489472,58.9085436808386
530,1436542490194,56.3412077510984
531,1436542490941,57.6703835087716
532,1436542491655,58.7280346983185
533,1436542492401,61.2063189715616
534,1436542493175,61.1760852104538
535,1436542493890,61.2761869613252
536,1436542494669,61.041685947837
537,1436542495377,61.2698694360759
538,1436542496054,62.4402637446106
539,1436542496791,61.7313236979268
540,1436542497515,63.6943480361153
541,1436542498248,63.8062532393113
542,1436542499012,63.198475561847
543,1436542499748,62.2522905606636
544,1436542500426,62.3028497226741
545,1436542501081,63.310943559026
546,1436542501820,65.670101923666
547,1436542502564,61.4373994092299
548,1436542503290,59.749304555236
549,1436542504020,59.447731611866
550,1436542504841,59.8822636463178
551,1436542505574,60.7469948975443
552,1436542506306,57.9652489128071
553,1436542507044,57.2056743172606
554,1436542507768,56.9231588399736
555,1436542508509,56.8719931698864
556,1436542509256,55.9377986784763
557,1436542509993,54.7531221891539
558,1436542510741,51.9218815159818
559,1436542511478,49.252760982944
560,1436542512177,47.8342477305056
561,1436542512831,48.9964539368931
562,1436542513542,52.6738076265733
563,1436542514276,52.9154090750502
564,1436542515004,53.201748689012
565,1436542515672,56.3178437035108
566,1436542516414,55.3881930156021
567,1436542517141,55.5255542174455
568,1436542517881,54.3727445391776
569,1436542518616,49.0746940351205
570,1436542519356,49.556547665248
571,1436542520090,50.3420772543985
572,1436542520855,47.2010820414147
573,1436542521474,46.5971600272962
574,1436542522137,47.8941516561738
575,1436542522874,46.9781502279917
576,1436542523608,48.0831898176464
