id,attr_time,attr_db
1,1436542100109,43.354353561383
2,1436542100539,42.8730519215773
3,1436542101020,41.0520747126982
4,1436542101489,44.2470328220505
5,1436542102043,40.0655540593033
6,1436542102575,42.4036212243188
7,1436542103136,42.2844154333485
8,1436542103632,42.7376439479745
9,1436542104161,44.4501637626005
10,1436542104615,40.3441796409896
11,1436542105137,42.189170834046
12,1436542105644,44.3754158018456
13,1436542106119,43.1791207881435
14,1436542106679,42.4568090257444
15,1436542107094,44.0888814280177
16,1436542107551,46.109500496068
17,1436542108033,41.2056663437028
18,1436542108468,45.1366093746404
19,1436542108916,43.9026743240101
20,1436542109377,40.35486692223
21,1436542109823,41.164144953682
22,1436542110193,44.9109540417134
23,1436542110607,42.1906920794436
24,1436542111069,41.4406651804231
25,1436542111545,50.0764060634106
26,1436542112056,43.471766567825
27,1436542112639,45.3734324225528
28,1436542113113,47.842902897197
29,1436542113624,48.2798026670263
30,1436542114109,53.4693266892582
31,1436542114460,57.1502064038173
32,1436542114906,59.5025821972419
33,1436542115410,44.9670981365251
34,1436542115886,48.6783395701027
35,1436542116374,45.7027215243034
36,1436542116875,56.2782936350126
37,1436542117368,49.9804372070257
38,1436542117859,43.4786568339798
39,1436542118358,45.3357256633059
40,1436542118854,43.1558142778033
41,1436542119337,61.2551961647484
42,1436542119819,41.6162834667367
43,1436542120290,44.4591577864242
44,1436542120691,39.834255589827
45,1436542121122,40.3557695088473
46,1436542121582,44.9194705505751
47,1436542122063,42.0995902613138
48,1436542122603,46.8893836165609
49,1436542123054,46.8430601370245
50,1436542123525,56.3336661548737
51,1436542124005,42.7183127236909
52,1436542124492,41.0358485511768
53,1436542124890,51.3878567336255
54,1436542125353,42.0624673616318
55,1436542125811,46.7055311815576
56,1436542126328,42.1248130840406
57,1436542126817,47.6667788283733
58,1436542127372,42.6205839119892
59,1436542127850,62.264119803806
60,1436542128335,63.1062297650491
61,1436542128824,56.6069108018452
62,1436542129304,46.7568587199674
63,1436542129777,56.3026134406151
64,1436542130228,46.261323701453
65,1436542130667,54.6088419210163
66,1436542131018,51.5923612981491
67,1436542131473,59.0856356747271
68,1436542131956,58.8001091856674
69,1436542132425,49.6907221883288
70,1436542132884,49.0125383110385
71,1436542133354,50.1765932291956
72,1436542133814,51.8785438153592
73,1436542134271,47.8089438121671
74,1436542134717,52.3692558106615
75,1436542135086,52.4397555059417
76,1436542135568,51.0365831998852
77,1436542136068,54.7009643390623
78,1436542136569,45.476209711534
79,1436542137045,44.8155203477738
80,1436542137517,44.954942333548
81,1436542137996,43.9531842759909
82,1436542138468,54.15474729139
83,1436542138960,53.0852578031188
84,1436542139429,47.9583813776206
85,1436542139907,47.9613722490965
86,1436542140402,52.9621360796178
87,1436542140833,46.7291595432742
88,1436542141268,47.9008127020112
89,1436542141753,55.2161769097169
90,1436542142225,56.0583304561502
91,1436542142729,49.1071442059752
92,1436542143118,47.2560254088754
93,1436542143585,54.1676761793818
94,1436542144052,53.0933135007763
95,1436542144478,59.8158917726118
96,1436542144924,46.1979551861536
97,1436542145386,45.10412932769
98,1436542145858,56.2328299368194
99,1436542146336,48.6454961112192
100,1436542146827,47.7586778612297
101,1436542147316,50.7007329586496
102,1436542147867,52.3560205287285
103,1436542148356,48.342667568788
104,1436542148836,46.2310650486373
105,1436542149310,45.5163398088687
106,1436542149786,47.7322407278181
107,1436542150229,48.05261167699
108,1436542150633,50.1128190358901
109,1436542150987,45.9372830107822
110,1436542151403,59.3936994289166
111,1436542151865,47.7473356599795
112,1436542152402,53.8911657460479
113,1436542152880,46.6128314275204
114,1436542153369,47.0166217815199
115,1436542153776,44.9820225215045
116,1436542154142,51.9505964046732
117,1436542154606,50.3828738850128
118,1436542155104,46.5010753800242
119,1436542155607,46.5150810106105
120,1436542156082,47.3356653449007
121,1436542156512,46.8026864211207
122,1436542156983,51.090632075776
123,1436542157516,48.8646149435929
124,1436542157997,47.1075762417202
125,1436542158466,50.0837049000537
126,1436542158955,46.940050033632
127,1436542159434,47.8529939898348
128,1436542159924,45.7338435131782
129,1436542160398,48.3444287245542
130,1436542160895,46.6290734498768
131,1436542161392,55.9101480090243
132,1436542161831,48.2291395047802
133,1436542162244,50.834594469604
134,1436542162711,58.3784954815801
135,1436542163215,52.7483942950317
136,1436542163686,58.0414025458018
137,1436542164169,57.9670048940687
138,1436542164658,59.7683578677732
139,1436542165054,59.9319125722288
140,1436542165524,59.6962653012591
141,1436542166007,56.5393509641855
142,1436542166476,58.0256163903784
143,1436542166985,60.9990500020062
144,1436542167476,62.9531348376581
145,1436542167976,63.4915556939716
146,1436542168476,63.8349298120388
147,1436542168963,62.5379230752878
148,1436542169470,61.7566342529329
149,1436542169957,63.9338687763526
150,1436542170437,64.2228341427399
151,1436542170905,62.0334306664753
152,1436542171368,61.5256383573718
153,1436542171802,59.6951193452236
154,1436542172260,55.9388207279659
155,1436542173020,53.1040786228606
156,1436542173369,48.140166775731
157,1436542173709,49.3411648558113
158,1436542174072,47.2490426885932
159,1436542174446,50.5081979731179
160,1436542174846,48.3125979011797
161,1436542175292,48.8122230862175
162,1436542175742,52.2351144188035
163,1436542176145,54.990148054366
164,1436542176604,49.5762962562833
165,1436542177123,47.0887068384988
166,1436542177622,53.4728283900091
167,1436542178093,48.2364557819902
168,1436542178569,56.6073499838207
169,1436542179017,46.5581925151634
170,1436542179502,45.6961217927908
171,1436542179981,44.9394642502226
172,1436542180459,47.0634138283841
173,1436542181010,46.2187328812248
174,1436542181424,49.270074917229
175,1436542181855,45.6352925403203
176,1436542182302,57.3474412318329
177,1436542182860,55.3551408468545
178,1436542183342,45.829080058946
179,1436542183837,47.1563886134929
180,1436542184443,45.3953542355765
181,1436542184865,47.8000588861373
182,1436542185284,43.1378612107767
183,1436542185745,50.855858276029
184,1436542186223,50.2859633252257
185,1436542186695,54.8712081355706
186,1436542187202,46.3701742067312
187,1436542187727,59.7330416372109
188,1436542188205,52.8209199999473
189,1436542188686,62.5090773589181
190,1436542189178,45.2471165309635
191,1436542189679,52.4462189987843
192,1436542190176,55.4144532336858
193,1436542190662,59.145607426871
194,1436542191170,51.0102405030995
195,1436542191550,43.6951008041402
196,1436542191921,47.2860140256161
197,1436542192384,45.8924934691229
198,1436542192910,56.7874437416414
199,1436542193392,48.0882411611579
200,1436542193862,52.2379532899605
201,1436542194349,49.102187988469
202,1436542194844,51.1951567104112
203,1436542195326,48.388132765535
204,1436542195775,49.8004005534457
205,1436542196211,44.5177411625546
206,1436542196549,46.1019302536924
207,1436542197103,53.7089082267247
208,1436542197596,46.4560504157681
209,1436542198074,46.5883885171393
210,1436542198550,45.418268926452
211,1436542199044,47.7291714408021
212,1436542199516,50.681077133142
213,1436542200015,56.3067265047753
214,1436542200494,52.1387757929975
215,1436542200967,46.3703796246112
216,1436542201456,54.2301706095392
217,1436542201979,45.4484666737513
218,1436542202466,54.8527476044278
219,1436542202895,50.6245171231753
220,1436542203323,55.9822263086443
221,1436542203793,47.3970526244334
222,1436542204279,44.2578493753454
223,1436542204779,54.0221266046669
224,1436542205272,44.4371336439881
225,1436542205748,47.6581975215718
226,1436542206206,45.8431435568059
227,1436542206691,46.1492971833246
228,1436542207124,54.621120546885
229,1436542207587,56.7669451510775
230,1436542208064,47.3894146878537
231,1436542208539,46.6773792122264
232,1436542209038,44.6127996705209
233,1436542209547,47.2198062442525
234,1436542210026,48.8309579944768
235,1436542210516,50.358924316766
236,1436542210998,48.0278202832506
237,1436542211490,47.4540211122152
238,1436542211952,47.0839003329921
239,1436542212316,51.1352809901596
240,1436542212763,46.3685253320767
241,1436542213243,46.4509090359282
242,1436542213651,47.1126729604802
243,1436542214069,56.2367364119747
244,1436542214495,50.7437003317305
245,1436542214969,47.0372504550003
246,1436542215445,44.8043853120595
247,1436542215973,45.245627382448
248,1436542216452,47.0227412151312
249,1436542216919,51.2472623543083
250,1436542217354,48.7773951404467
251,1436542217821,46.8988933538217
252,1436542218300,47.5827573490868
253,1436542218777,48.7434211462081
254,1436542219264,46.7220583139868
255,1436542219747,55.9865789766553
256,1436542220227,45.5166774387026
257,1436542220728,44.2553578396834
258,1436542221206,45.2834082594379
259,1436542221712,51.0124765394395
260,1436542222267,45.2696684192223
261,1436542222647,57.0630053861032
262,1436542223078,45.4895649553835
263,1436542223549,46.4121310607604
264,1436542224052,47.3240945246543
265,1436542224562,47.1134517220417
266,1436542225073,46.4020821203313
267,1436542225576,46.9159702559228
268,1436542226071,46.4472302821068
269,1436542226577,54.766272977142
270,1436542226995,46.0485500495404
271,1436542227428,50.0755151595934
272,1436542227882,49.5559684086857
273,1436542228354,63.0761421276778
274,1436542228843,47.7406410036437
275,1436542229346,53.2212964088496
276,1436542229825,56.8593999432873
277,1436542230317,44.6041425807125
278,1436542230819,47.0475205430291
279,1436542231316,47.0075508410288
280,1436542231887,46.5093960321308
281,1436542232357,58.9055113150689
282,1436542232711,46.9861569133369
283,1436542233134,51.3550532583999
284,1436542233593,51.4899354743088
285,1436542234074,47.2853309882181
286,1436542235550,49.2963564859125
287,1436542236028,54.3951415712141
288,1436542236506,49.6737835807639
289,1436542237009,56.6092313258562
290,1436542237492,59.3305808942285
291,1436542237987,45.7687014144164
292,1436542238494,50.14476410319
293,1436542238967,47.3915415644287
294,1436542239472,51.5803812239132
295,1436542239965,48.1212242472027
296,1436542240437,60.3815870328527
297,1436542240928,50.3162518161444
298,1436542241414,55.1343079129419
299,1436542241896,47.9907585495215
300,1436542242369,49.2490982750761
301,1436542242871,50.910716912184
302,1436542243403,54.6708838100041
303,1436542243826,47.6063270193618
304,1436542244986,49.9057461370635
305,1436542245426,50.1994053567016
306,1436542245901,50.1366826876145
307,1436542246363,48.8414858948056
308,1436542246832,49.8759275069354
309,1436542247379,55.5877609663578
310,1436542247787,54.6690054945445
311,1436542248240,55.5543882449843
312,1436542248712,57.5448977378594
313,1436542249199,55.9221978066555
314,1436542249677,54.3288222888039
315,1436542250167,60.7237062360948
316,1436542250636,53.7097197739135
317,1436542251110,52.8331152813697
318,1436542251571,64.1266538923078
319,1436542251994,54.4207353649546
320,1436542252447,58.1453526985988
321,1436542252890,49.2727906243626
322,1436542253393,56.887716966442
323,1436542253737,48.3312493222953
324,1436542254173,52.584964528122
325,1436542254635,56.6804389819811
326,1436542255115,50.74960026463
327,1436542255603,52.893447216567
328,1436542256130,52.1323158567793
329,1436542256625,49.7252401300835
330,1436542257067,48.357102576489
331,1436542257495,47.6225450162802
332,1436542257952,48.2184928318956
333,1436542258448,49.8167821414675
334,1436542258932,50.8899089619579
335,1436542260656,49.1536939633089
336,1436542261159,50.8703310717621
337,1436542261646,50.5436000303988
338,1436542262125,48.9681237025914
339,1436542262608,52.839851322027
340,1436542263087,56.9101635026811
341,1436542263552,55.0831746477731
342,1436542263929,58.8073038058236
343,1436542264356,56.3647813483703
344,1436542264801,56.3110998799345
345,1436542265278,56.0014408510425
346,1436542265743,52.9695547950888
347,1436542266199,53.2976102345031
348,1436542266678,55.9296234826695
349,1436542267157,59.7243355832976
350,1436542267725,59.9517539564239
351,1436542268832,62.3919944428214
352,1436542269285,61.8863780696042
353,1436542269757,61.7231512140241
354,1436542270261,63.5803439099908
355,1436542270750,60.4322118586177
356,1436542271238,61.7049096088535
357,1436542271746,62.6333662673018
358,1436542272289,66.8168078673655
359,1436542272786,63.6106450547027
360,1436542273229,65.7481278542254
361,1436542273622,62.2257561856738
362,1436542274003,62.962391630146
363,1436542274450,64.3683867235412
364,1436542274922,64.3698244242326
365,1436542275413,65.9848899072303
366,1436542275898,70.0459552683616
367,1436542276349,65.2900695775342
368,1436542276836,67.3701287489982
369,1436542277380,61.6089010442321
370,1436542277776,62.1620768359885
371,1436542278210,62.0105785919458
372,1436542278696,62.8488273666726
373,1436542279175,65.078175159011
374,1436542279654,62.017610727679
375,1436542280147,62.7266811889822
376,1436542280645,63.6870106063314
377,1436542281125,62.7481934482129
378,1436542281609,61.5960840712104
379,1436542282117,59.8217940848983
380,1436542282588,64.9981812575078
381,1436542283038,63.106471283143
382,1436542283528,63.919270857422
383,1436542284001,64.2035893472184
384,1436542284466,64.1950167167909
385,1436542284902,60.2903991287313
386,1436542285352,58.757339929492
387,1436542285854,60.0343746285889
388,1436542286321,63.4221372728208
389,1436542286794,62.7622872971998
390,1436542287266,63.0732616328908
391,1436542287725,61.5234031408738
392,1436542288188,64.0144792588518
393,1436542288709,63.4404694696143
394,1436542289087,63.5566710794391
395,1436542289485,62.5518026171932
396,1436542289909,61.168328998031
397,1436542290329,62.8134406569555
398,1436542290766,64.0447484338496
399,1436542291226,66.3790198329969
400,1436542291695,62.6142530470682
401,1436542292167,65.9602049744813
402,1436542292636,63.8182743871176
403,1436542293099,65.783216295675
404,1436542293569,66.9001653258632
405,1436542294002,66.546919797663
406,1436542294461,64.2973116425798
407,1436542294959,65.1233082134384
408,1436542295489,65.4194952121372
409,1436542295987,64.9526104008688
410,1436542296490,63.6767230212185
411,1436542296982,65.3540497710108
412,1436542297584,68.0426871029603
413,1436542298083,68.6317497109981
414,1436542298582,65.1645310086155
415,1436542299056,66.9342244357431
416,1436542299545,63.4562988135794
417,1436542299994,65.8616553123313
418,1436542300445,65.2946106602148
419,1436542300933,65.4241114846213
420,1436542301412,65.1654471252592
421,1436542301881,65.9903098977056
422,1436542302415,66.4491541673618
423,1436542302886,66.8407561635247
424,1436542303355,66.5458813393451
425,1436542303910,70.7511892555637
426,1436542304399,65.8660907158256
427,1436542304886,67.5234392712824
428,1436542305353,69.6329608684611
429,1436542305843,70.2551367180295
430,1436542306302,71.3618659158973
431,1436542306778,64.7455500728122
432,1436542307266,63.6131225329999
433,1436542307761,62.8539406014715
434,1436542308275,64.5251437034301
435,1436542308757,62.2986885399052
436,1436542309227,61.9927801920002
437,1436542309696,63.4735520290343
438,1436542310175,64.5505750917253
439,1436542310636,62.2858920995043
440,1436542311116,63.2196722837756
441,1436542311605,59.3505808634201
442,1436542312152,61.2947308267872
443,1436542312639,56.9750153924943
444,1436542313118,61.0138345882075
445,1436542313589,58.8891483866208
446,1436542314039,58.124739671473
447,1436542314533,59.7079366273695
448,1436542315017,60.9269833256846
449,1436542315515,62.7165958716845
450,1436542315935,61.8658548206368
451,1436542316406,63.4930265469831
452,1436542316871,63.8513795039351
453,1436542317369,63.5362221091568
454,1436542317842,62.446308630924
455,1436542318352,68.8467965088125
456,1436542318838,62.7999364623959
457,1436542319312,70.6404709805925
458,1436542319784,71.7484049993521
459,1436542320263,64.3500875771982
460,1436542320728,64.1182852990139
461,1436542321206,65.1738649157927
462,1436542321686,64.4906694002804
463,1436542322215,64.139630951213
464,1436542322684,64.427159740743
465,1436542323142,64.3832144751352
466,1436542323631,66.3228381938614
467,1436542324110,65.9810021674212
468,1436542324589,64.75604448558
469,1436542325091,67.9161221686772
470,1436542325576,66.8302899838873
471,1436542326063,67.7426196068262
472,1436542326529,65.3904063544627
473,1436542327012,68.0440114707116
474,1436542327535,65.0968844632444
475,1436542328003,64.9122340374809
476,1436542328529,61.2180526775484
477,1436542329004,63.1820608829339
478,1436542329535,62.17276265721
479,1436542330047,64.137377126495
480,1436542330547,63.9592349047924
481,1436542331017,62.3199345555705
482,1436542331526,62.0754647518358
483,1436542332025,63.3409652231168
484,1436542332598,62.6886625226762
485,1436542333089,64.1313016293922
486,1436542333571,66.880815147048
487,1436542334078,64.6912925683087
488,1436542334482,62.3807908163013
489,1436542334907,64.2078162385043
490,1436542335368,63.7892975829389
491,1436542335856,64.2175866505492
492,1436542336337,63.3112002718368
493,1436542336824,63.8078305440259
494,1436542337368,63.0378352931752
495,1436542337846,62.8160097826926
496,1436542338309,61.7294896170941
497,1436542338811,63.0512672295341
498,1436542339285,64.37363905602
499,1436542339805,67.9696763683203
500,1436542340287,66.1755025050088
501,1436542340765,62.346048625414
502,1436542341247,58.0006635223233
503,1436542341758,61.6334479436271
504,1436542342304,60.5024284287757
505,1436542342762,63.8138614686536
506,1436542343132,59.74737126327
507,1436542343537,59.4835810172917
508,1436542344000,63.4327811581895
509,1436542344496,60.3337891856491
510,1436542344965,62.9206042677848
511,1436542345477,60.3892107244225
512,1436542345959,64.356357640999
513,1436542346433,60.6078891515083
514,1436542346896,58.8437297511088
515,1436542347409,62.9021023280207
516,1436542347898,59.4348161388847
517,1436542348374,61.2924215707008
518,1436542348878,62.1590198818452
519,1436542349402,60.7310449134097
520,1436542349874,60.6606736338648
521,1436542350359,60.9410783112701
522,1436542350857,60.5300869922198
523,1436542351327,61.5118855885721
524,1436542351805,63.7010585458575
525,1436542352321,61.0509584966699
526,1436542352786,63.4095627684551
527,1436542353259,61.4883138332852
528,1436542353735,61.5405775369409
529,1436542354187,61.3086502295996
530,1436542354671,62.0083146477768
531,1436542355146,61.8942758559429
532,1436542355646,64.1793095067463
533,1436542356126,62.0364669031666
534,1436542356611,61.8419468403633
535,1436542357091,63.2261565740624
536,1436542357579,59.2061117521445
537,1436542358079,65.2672240309986
538,1436542358574,61.8430936057951
539,1436542359063,66.654251666486
540,1436542359553,61.9650181944425
541,1436542360032,62.9784336398351
542,1436542360534,64.4543292405008
543,1436542361038,66.2868726915128
544,1436542361550,64.2363629163927
545,1436542362024,66.2359920385052
546,1436542362531,65.4567216287621
547,1436542362968,61.9237304378843
548,1436542363424,62.321233000748
549,1436542363899,59.563904538891
550,1436542364365,61.2205439165552
551,1436542364825,62.9628902726064
552,1436542365319,61.078534972647
553,1436542365819,62.1380214087674
554,1436542366297,61.5868426960653
555,1436542366773,62.258453779891
556,1436542367242,59.2565662957372
557,1436542367757,58.9016434671447
558,1436542368239,58.9256933388512
559,1436542368695,61.8385690109944
560,1436542369136,65.6116340057333
561,1436542369603,60.6613892984798
562,1436542370090,58.7236934153945
563,1436542370574,56.9617182339267
564,1436542371079,59.9162985550815
565,1436542371576,57.830954807009
566,1436542372062,59.2633901203078
567,1436542372573,61.8523290309158
568,1436542373065,64.9111334253311
569,1436542373556,59.5171883241422
570,1436542374050,58.0483653626422
571,1436542374576,56.3204140856393
572,1436542374979,56.290734268663
573,1436542375401,56.0070506058397
574,1436542375862,57.4366840545245
575,1436542376342,56.1138230161361
576,1436542376852,55.7196468608059
