id,attr_time,attr_light
1,1436286769058,0.0
2,1436286769080,0.0
3,1436286769098,0.0
4,1436286769162,0.0
5,1436286769163,0.0
6,1436286769164,0.0
7,1436286769177,0.0
8,1436286769197,0.0
9,1436286769218,0.0
10,1436286769238,0.0
11,1436286769261,0.0
12,1436286769280,0.0
13,1436286769298,0.0
14,1436286769318,0.0
15,1436286769338,0.0
16,1436286769358,0.0
17,1436286769379,0.0
18,1436286769401,0.0
19,1436286769419,0.0
20,1436286769440,0.0
21,1436286769461,0.0
22,1436286769479,0.0
23,1436286769505,0.0
24,1436286769521,0.0
25,1436286769542,0.0
26,1436286769561,0.0
27,1436286769580,0.0
28,1436286769599,0.0
29,1436286769620,0.0
30,1436286769641,0.0
31,1436286769660,0.0
32,1436286769682,0.0
33,1436286769699,0.0
34,1436286769720,0.0
35,1436286769741,0.0
36,1436286769847,0.0
37,1436286769848,0.0
38,1436286769849,0.0
39,1436286769850,0.0
40,1436286769851,0.0
41,1436286769861,0.0
42,1436286769878,0.0
43,1436286769897,0.0
44,1436286769919,0.0
45,1436286769938,0.0
46,1436286769961,0.0
47,1436286769982,0.0
48,1436286770000,0.0
49,1436286770021,0.0
50,1436286770041,0.0
51,1436286770062,0.0
52,1436286770080,0.0
53,1436286770099,0.0
54,1436286770122,0.0
55,1436286770140,0.0
56,1436286770161,0.0
57,1436286770182,0.0
58,1436286770200,0.0
59,1436286770223,0.0
60,1436286770240,0.0
61,1436286770260,0.0
62,1436286770280,0.0
63,1436286770301,0.0
64,1436286770320,0.0
65,1436286770340,0.0
66,1436286770359,0.0
67,1436286770380,0.0
68,1436286770401,0.0
69,1436286770426,0.0
70,1436286770517,0.0
71,1436286770518,0.0
72,1436286770519,0.0
73,1436286770520,0.0
74,1436286770521,0.0
75,1436286770539,0.0
76,1436286770559,0.0
77,1436286770580,0.0
78,1436286770598,0.0
79,1436286770621,0.0
80,1436286770642,0.0
81,1436286770662,0.0
82,1436286770681,0.0
83,1436286770703,0.0
84,1436286770721,0.0
85,1436286770742,0.0
86,1436286770763,0.0
87,1436286770781,0.0
88,1436286770800,0.0
89,1436286770822,0.0
90,1436286770840,0.0
91,1436286770862,0.0
92,1436286770881,0.0
93,1436286770907,0.0
94,1436286770921,0.0
95,1436286770946,0.0
96,1436286770964,0.0
97,1436286770984,0.0
98,1436286771002,0.0
99,1436286771020,0.0
100,1436286771041,0.0
101,1436286771063,0.0
102,1436286771092,0.0
103,1436286771132,0.0
104,1436286771133,0.0
105,1436286771147,0.0
106,1436286771159,0.0
107,1436286771180,0.0
108,1436286771201,0.0
109,1436286771222,0.0
110,1436286771241,0.0
111,1436286771260,0.0
112,1436286771280,0.0
113,1436286771301,0.0
114,1436286771320,0.0
115,1436286771341,0.0
116,1436286771360,0.0
117,1436286771384,0.0
118,1436286771402,0.0
119,1436286771425,0.0
120,1436286771442,0.0
121,1436286771463,0.0
122,1436286771488,0.0
123,1436286771502,0.0
124,1436286771521,0.0
125,1436286771540,0.0
126,1436286771562,0.0
127,1436286771583,0.0
128,1436286771601,0.0
129,1436286771622,0.0
130,1436286771642,0.0
131,1436286771662,0.0
132,1436286771683,0.0
133,1436286771701,0.0
134,1436286771722,0.0
135,1436286771811,0.0
136,1436286771812,0.0
137,1436286771813,0.0
138,1436286771814,0.0
139,1436286771824,0.0
140,1436286771839,0.0
141,1436286771860,0.0
142,1436286771880,0.0
143,1436286771902,0.0
144,1436286771921,0.0
145,1436286771943,0.0
146,1436286771962,0.0
147,1436286771984,0.0
148,1436286772002,0.0
149,1436286772022,0.0
150,1436286772041,0.0
151,1436286772063,0.0
152,1436286772083,0.0
153,1436286772103,0.0
154,1436286772123,0.0
155,1436286772142,0.0
156,1436286772163,0.0
157,1436286772184,0.0
158,1436286772202,0.0
159,1436286772225,0.0
160,1436286772247,0.0
161,1436286772265,0.0
162,1436286772284,0.0
163,1436286772308,0.0
164,1436286772321,0.0
165,1436286772342,0.0
166,1436286772367,0.0
167,1436286772422,0.0
168,1436286772423,0.0
169,1436286772424,0.0
170,1436286772441,0.0
171,1436286772460,0.0
172,1436286772481,0.0
173,1436286772503,0.0
174,1436286772521,0.0
175,1436286772541,0.0
176,1436286772562,0.0
177,1436286772585,0.0
178,1436286772604,0.0
179,1436286772624,0.0
180,1436286772642,0.0
181,1436286772663,0.0
182,1436286772684,0.0
183,1436286772704,0.0
184,1436286772724,0.0
185,1436286772744,0.0
186,1436286772762,0.0
187,1436286772783,0.0
188,1436286772808,0.0
189,1436286772822,0.0
190,1436286772857,0.0
191,1436286772872,0.0
192,1436286772881,0.0
193,1436286772901,0.0
194,1436286772920,0.0
195,1436286772942,0.0
196,1436286772967,0.0
197,1436286773012,0.0
198,1436286773013,0.0
199,1436286773026,0.0
200,1436286773042,0.0
201,1436286773061,0.0
202,1436286773080,0.0
203,1436286773100,0.0
204,1436286773120,0.0
205,1436286773140,0.0
206,1436286773161,0.0
207,1436286773181,0.0
208,1436286773201,0.0
209,1436286773221,0.0
210,1436286773241,0.0
211,1436286773261,0.0
212,1436286773281,0.0
213,1436286773301,0.0
214,1436286773321,0.0
215,1436286773341,0.0
216,1436286773362,0.0
217,1436286773382,0.0
218,1436286773407,0.0
219,1436286773425,0.0
220,1436286773443,0.0
221,1436286773465,0.0
222,1436286773485,0.0
223,1436286773504,0.0
224,1436286773527,0.0
225,1436286773548,0.0
226,1436286773567,0.0
227,1436286773584,0.0
228,1436286773606,0.0
229,1436286773660,0.0
230,1436286773661,0.0
231,1436286773664,0.0
232,1436286773683,0.0
233,1436286773703,0.0
234,1436286773723,0.0
235,1436286773744,0.0
236,1436286773766,0.0
237,1436286773782,0.0
238,1436286773802,0.0
239,1436286773822,0.0
240,1436286773843,0.0
241,1436286773864,0.0
242,1436286773883,0.0
243,1436286773905,0.0
244,1436286773923,0.0
245,1436286773946,0.0
246,1436286773966,0.0
247,1436286773986,0.0
248,1436286774004,0.0
249,1436286774024,0.0
250,1436286774046,0.0
251,1436286774063,0.0
252,1436286774083,0.0
253,1436286774103,0.0
254,1436286774128,0.0
255,1436286774144,0.0
256,1436286774168,0.0
257,1436286774186,0.0
258,1436286774203,0.0
259,1436286774224,0.0
260,1436286774243,0.0
261,1436286774266,0.0
262,1436286774283,0.0
263,1436286774333,0.0
264,1436286774334,0.0
265,1436286774342,0.0
266,1436286774363,0.0
267,1436286774382,0.0
268,1436286774402,0.0
269,1436286774422,0.0
270,1436286774443,0.0
271,1436286774463,0.0
272,1436286774486,0.0
273,1436286774504,0.0
274,1436286774529,0.0
275,1436286774546,0.0
276,1436286774565,0.0
277,1436286774584,0.0
278,1436286774606,0.0
279,1436286774626,0.0
280,1436286774648,0.0
281,1436286774664,0.0
282,1436286774686,0.0
283,1436286774706,0.0
284,1436286774726,0.0
285,1436286774746,0.0
286,1436286774767,0.0
287,1436286774785,0.0
288,1436286774804,0.0
289,1436286774831,0.0
290,1436286774854,0.0
291,1436286774871,0.0
292,1436286774888,0.0
293,1436286774974,0.0
294,1436286774975,0.0
295,1436286774976,0.0
296,1436286774977,0.0
297,1436286774982,0.0
298,1436286775003,0.0
299,1436286775027,0.0
300,1436286775044,0.0
301,1436286775063,0.0
302,1436286775083,0.0
303,1436286775107,0.0
304,1436286775126,0.0
305,1436286775147,0.0
306,1436286775164,0.0
307,1436286775184,0.0
308,1436286775208,0.0
309,1436286775226,0.0
310,1436286775247,0.0
311,1436286775267,0.0
312,1436286775286,0.0
313,1436286775306,0.0
314,1436286775330,0.0
315,1436286775345,0.0
316,1436286775365,0.0
317,1436286775384,0.0
318,1436286775404,0.0
319,1436286775424,0.0
320,1436286775449,0.0
321,1436286775470,0.0
322,1436286775486,0.0
323,1436286775505,0.0
324,1436286775532,0.0
325,1436286775556,0.0
326,1436286775564,0.0
327,1436286775593,0.0
328,1436286775613,0.0
329,1436286775623,0.0
330,1436286775644,0.0
331,1436286775667,0.0
332,1436286775688,0.0
333,1436286775704,0.0
334,1436286775723,0.0
335,1436286775745,0.0
336,1436286775767,0.0
337,1436286775787,0.0
338,1436286775808,0.0
339,1436286775825,0.0
340,1436286775850,0.0
341,1436286775865,0.0
342,1436286775885,0.0
343,1436286775904,0.0
344,1436286775927,0.0
345,1436286775944,0.0
346,1436286775966,0.0
347,1436286775986,0.0
348,1436286776009,0.0
349,1436286776029,0.0
350,1436286776050,0.0
351,1436286776067,0.0
352,1436286776087,0.0
353,1436286776107,0.0
354,1436286776126,0.0
355,1436286776148,0.0
356,1436286776170,0.0
357,1436286776190,0.0
358,1436286776207,0.0
359,1436286776229,0.0
360,1436286776274,0.0
361,1436286776275,0.0
362,1436286776290,0.0
363,1436286776308,0.0
364,1436286776324,0.0
365,1436286776343,0.0
366,1436286776364,0.0
367,1436286776384,0.0
368,1436286776404,0.0
369,1436286776424,0.0
370,1436286776446,0.0
371,1436286776468,0.0
372,1436286776486,0.0
373,1436286776506,0.0
374,1436286776526,0.0
375,1436286776547,0.0
376,1436286776568,0.0
377,1436286776591,0.0
378,1436286776607,0.0
379,1436286776627,0.0
380,1436286776647,0.0
381,1436286776667,0.0
382,1436286776686,0.0
383,1436286776710,0.0
384,1436286776730,0.0
385,1436286776750,0.0
386,1436286776766,0.0
387,1436286776787,0.0
388,1436286776807,0.0
389,1436286776829,0.0
390,1436286776917,0.0
391,1436286776918,0.0
392,1436286776919,0.0
393,1436286776920,0.0
394,1436286776928,0.0
395,1436286776944,0.0
396,1436286776964,0.0
397,1436286776984,0.0
398,1436286777004,0.0
399,1436286777026,0.0
400,1436286777048,0.0
401,1436286777067,0.0
402,1436286777088,0.0
403,1436286777110,0.0
404,1436286777129,0.0
405,1436286777148,0.0
406,1436286777166,0.0
407,1436286777189,0.0
408,1436286777207,0.0
409,1436286777227,0.0
410,1436286777248,0.0
411,1436286777268,0.0
412,1436286777287,0.0
413,1436286777308,0.0
414,1436286777332,0.0
415,1436286777355,0.0
416,1436286777366,0.0
417,1436286777387,0.0
418,1436286777406,0.0
419,1436286777426,0.0
420,1436286777448,0.0
421,1436286777467,0.0
422,1436286777487,0.0
423,1436286777541,0.0
424,1436286777542,0.0
425,1436286777546,0.0
426,1436286777574,0.0
427,1436286777586,0.0
428,1436286777608,0.0
429,1436286777626,0.0
430,1436286777647,0.0
431,1436286777666,0.0
432,1436286777687,0.0
433,1436286777709,0.0
434,1436286777729,0.0
435,1436286777750,0.0
436,1436286777769,0.0
437,1436286777789,0.0
438,1436286777808,0.0
439,1436286777829,0.0
440,1436286777856,0.0
441,1436286777880,0.0
442,1436286777889,0.0
443,1436286777906,0.0
444,1436286777926,0.0
445,1436286777948,0.0
446,1436286777968,0.0
447,1436286777991,0.0
448,1436286778009,0.0
449,1436286778029,0.0
450,1436286778045,0.0
451,1436286778067,0.0
452,1436286778087,0.0
453,1436286778108,0.0
454,1436286778127,0.0
455,1436286778192,0.0
456,1436286778193,0.0
457,1436286778194,0.0
458,1436286778205,0.0
459,1436286778227,0.0
460,1436286778249,0.0
461,1436286778267,0.0
462,1436286778289,0.0
463,1436286778307,0.0
464,1436286778329,0.0
465,1436286778352,0.0
466,1436286778367,0.0
467,1436286778387,0.0
468,1436286778407,0.0
469,1436286778427,0.0
470,1436286778450,0.0
471,1436286778470,0.0
472,1436286778490,0.0
473,1436286778510,0.0
474,1436286778528,0.0
475,1436286778550,0.0
476,1436286778568,0.0
477,1436286778588,0.0
478,1436286778607,0.0
479,1436286778629,0.0
480,1436286778650,0.0
481,1436286778670,0.0
482,1436286778690,0.0
483,1436286778707,0.0
484,1436286778727,0.0
485,1436286778758,0.0
486,1436286778817,0.0
487,1436286778818,0.0
488,1436286778819,0.0
489,1436286778828,0.0
490,1436286778848,0.0
491,1436286778866,0.0
492,1436286778886,0.0
493,1436286778906,0.0
494,1436286778926,0.0
495,1436286778947,0.0
496,1436286778970,0.0
497,1436286778990,0.0
498,1436286779011,0.0
499,1436286779028,0.0
500,1436286779049,0.0
501,1436286779068,0.0
502,1436286779089,0.0
503,1436286779111,0.0
504,1436286779133,0.0
505,1436286779148,0.0
506,1436286779170,0.0
507,1436286779188,0.0
508,1436286779210,0.0
509,1436286779228,0.0
510,1436286779251,0.0
511,1436286779271,0.0
512,1436286779290,0.0
513,1436286779310,0.0
514,1436286779334,0.0
515,1436286779352,0.0
516,1436286779369,0.0
517,1436286779388,0.0
518,1436286779472,0.0
519,1436286779473,0.0
520,1436286779474,0.0
521,1436286779475,0.0
522,1436286779488,0.0
523,1436286779506,0.0
524,1436286779527,0.0
525,1436286779548,0.0
526,1436286779568,0.0
527,1436286779590,0.0
528,1436286779611,0.0
529,1436286779629,0.0
530,1436286779651,0.0
531,1436286779671,0.0
532,1436286779691,0.0
533,1436286779711,0.0
534,1436286779729,0.0
535,1436286779750,0.0
536,1436286779771,0.0
537,1436286779793,0.0
538,1436286779810,0.0
539,1436286779841,0.0
540,1436286779855,0.0
541,1436286779871,0.0
542,1436286779889,0.0
543,1436286779909,0.0
544,1436286779933,0.0
545,1436286779952,0.0
546,1436286779971,0.0
547,1436286779991,0.0
548,1436286780091,0.0
549,1436286780092,0.0
550,1436286780093,0.0
551,1436286780094,0.0
552,1436286780095,0.0
553,1436286780107,0.0
554,1436286780127,0.0
555,1436286780147,0.0
556,1436286780167,0.0
557,1436286780188,0.0
558,1436286780207,0.0
559,1436286780227,0.0
560,1436286780247,0.0
561,1436286780269,0.0
562,1436286780290,0.0
563,1436286780311,0.0
564,1436286780329,0.0
565,1436286780349,0.0
566,1436286780368,0.0
567,1436286780392,0.0
568,1436286780409,0.0
569,1436286780431,0.0
570,1436286780452,0.0
571,1436286780472,0.0
572,1436286780489,0.0
573,1436286780509,0.0
574,1436286780529,0.0
575,1436286780547,0.0
576,1436286780569,0.0
577,1436286780592,0.0
578,1436286780611,0.0
579,1436286780629,0.0
580,1436286780654,0.0
581,1436286780709,0.0
582,1436286780710,0.0
583,1436286780711,0.0
584,1436286780728,0.0
585,1436286780749,0.0
586,1436286780768,0.0
587,1436286780792,0.0
588,1436286780808,0.0
589,1436286780830,0.0
590,1436286780848,0.0
591,1436286780871,0.0
592,1436286780889,0.0
593,1436286780910,0.0
594,1436286780929,0.0
595,1436286780951,0.0
596,1436286780971,0.0
597,1436286780992,0.0
598,1436286781012,0.0
599,1436286781033,0.0
600,1436286781051,0.0
601,1436286781072,0.0
602,1436286781090,0.0
603,1436286781111,0.0
604,1436286781131,0.0
605,1436286781150,0.0
606,1436286781170,0.0
607,1436286781192,0.0
608,1436286781211,0.0
609,1436286781230,0.0
610,1436286781252,0.0
611,1436286781272,0.0
612,1436286781290,0.0
613,1436286781312,0.0
614,1436286781367,0.0
615,1436286781368,0.0
616,1436286781370,0.0
617,1436286781388,0.0
618,1436286781408,0.0
619,1436286781428,0.0
620,1436286781448,0.0
621,1436286781471,0.0
622,1436286781491,0.0
623,1436286781513,0.0
624,1436286781531,0.0
625,1436286781551,0.0
626,1436286781572,0.0
627,1436286781593,0.0
628,1436286781612,0.0
629,1436286781633,0.0
630,1436286781651,0.0
631,1436286781673,0.0
632,1436286781693,0.0
633,1436286781713,0.0
634,1436286781730,0.0
635,1436286781750,0.0
636,1436286781770,0.0
637,1436286781791,0.0
638,1436286781815,0.0
639,1436286781837,0.0
640,1436286781850,0.0
641,1436286781879,0.0
642,1436286781893,0.0
643,1436286781910,0.0
644,1436286781933,0.0
645,1436286781978,0.0
646,1436286781979,0.0
647,1436286781989,0.0
648,1436286782009,0.0
649,1436286782029,0.0
650,1436286782051,0.0
651,1436286782069,0.0
652,1436286782090,0.0
653,1436286782112,0.0
654,1436286782133,0.0
655,1436286782150,0.0
656,1436286782173,0.0
657,1436286782192,0.0
658,1436286782214,0.0
659,1436286782233,0.0
660,1436286782251,0.0
661,1436286782273,0.0
662,1436286782292,0.0
663,1436286782318,0.0
664,1436286782333,0.0
665,1436286782352,0.0
666,1436286782376,0.0
667,1436286782390,0.0
668,1436286782411,0.0
669,1436286782432,0.0
670,1436286782452,0.0
671,1436286782473,0.0
672,1436286782492,0.0
673,1436286782512,0.0
674,1436286782531,0.0
675,1436286782551,0.0
676,1436286782581,0.0
677,1436286782652,0.0
678,1436286782653,0.0
679,1436286782654,0.0
680,1436286782655,0.0
681,1436286782670,0.0
682,1436286782690,0.0
683,1436286782711,0.0
684,1436286782731,0.0
685,1436286782751,0.0
686,1436286782772,0.0
687,1436286782793,0.0
688,1436286782811,0.0
689,1436286782832,0.0
690,1436286782866,0.0
691,1436286782878,0.0
692,1436286782893,0.0
693,1436286782911,0.0
694,1436286782930,0.0
695,1436286782951,0.0
696,1436286782973,0.0
697,1436286783017,0.0
698,1436286783018,0.0
699,1436286783033,0.0
700,1436286783052,0.0
701,1436286783074,0.0
702,1436286783094,0.0
703,1436286783115,0.0
704,1436286783136,0.0
705,1436286783151,0.0
706,1436286783186,0.0
707,1436286783193,0.0
708,1436286783212,0.0
709,1436286783232,0.0
710,1436286783260,0.0
711,1436286783270,0.0
712,1436286783290,0.0
713,1436286783310,0.0
714,1436286783330,0.0
715,1436286783354,0.0
716,1436286783371,0.0
717,1436286783390,0.0
718,1436286783411,0.0
719,1436286783431,0.0
720,1436286783451,0.0
721,1436286783472,0.0
722,1436286783493,0.0
723,1436286783514,0.0
724,1436286783534,0.0
725,1436286783552,0.0
726,1436286783574,0.0
727,1436286783593,0.0
728,1436286783614,0.0
729,1436286783634,0.0
730,1436286783652,0.0
731,1436286783672,0.0
732,1436286783692,0.0
733,1436286783716,0.0
734,1436286783737,0.0
735,1436286783753,0.0
736,1436286783774,0.0
737,1436286783792,0.0
738,1436286783813,0.0
739,1436286783835,0.0
740,1436286783950,0.0
741,1436286783951,0.0
742,1436286783952,0.0
743,1436286783953,0.0
744,1436286783954,0.0
745,1436286783955,0.0
746,1436286783970,0.0
747,1436286783990,0.0
748,1436286784011,0.0
749,1436286784033,0.0
750,1436286784055,0.0
751,1436286784074,0.0
752,1436286784094,0.0
753,1436286784112,0.0
754,1436286784133,0.0
755,1436286784152,0.0
756,1436286784175,0.0
757,1436286784193,0.0
758,1436286784212,0.0
759,1436286784234,0.0
760,1436286784253,0.0
761,1436286784274,0.0
762,1436286784296,0.0
763,1436286784317,0.0
764,1436286784336,0.0
765,1436286784353,0.0
766,1436286784373,0.0
767,1436286784394,0.0
768,1436286784412,0.0
769,1436286784435,0.0
770,1436286784455,0.0
771,1436286784475,0.0
772,1436286784493,0.0
773,1436286784574,0.0
774,1436286784575,0.0
775,1436286784576,0.0
776,1436286784577,0.0
777,1436286784592,0.0
778,1436286784613,0.0
779,1436286784633,0.0
780,1436286784654,0.0
781,1436286784673,0.0
782,1436286784696,0.0
783,1436286784714,0.0
784,1436286784735,0.0
785,1436286784758,0.0
786,1436286784775,0.0
787,1436286784795,0.0
788,1436286784814,0.0
789,1436286784835,0.0
790,1436286784855,0.0
791,1436286784874,0.0
792,1436286784937,0.0
793,1436286784938,0.0
794,1436286784939,0.0
795,1436286784952,0.0
796,1436286784972,0.0
797,1436286784992,0.0
798,1436286785015,0.0
799,1436286785033,0.0
800,1436286785056,0.0
801,1436286785076,0.0
802,1436286785098,0.0
803,1436286785116,0.0
804,1436286785135,0.0
805,1436286785157,0.0
806,1436286785201,0.0
807,1436286785202,0.0
808,1436286785212,0.0
809,1436286785232,0.0
810,1436286785256,0.0
811,1436286785275,0.0
812,1436286785296,0.0
813,1436286785312,0.0
814,1436286785333,0.0
815,1436286785354,0.0
816,1436286785376,0.0
817,1436286785394,0.0
818,1436286785439,0.0
819,1436286785440,0.0
820,1436286785452,0.0
821,1436286785472,0.0
822,1436286785492,0.0
823,1436286785513,0.0
824,1436286785535,0.0
825,1436286785555,0.0
826,1436286785576,0.0
827,1436286785596,0.0
828,1436286785617,0.0
829,1436286785636,0.0
830,1436286785656,0.0
831,1436286785676,0.0
832,1436286785696,0.0
833,1436286785717,0.0
834,1436286785736,0.0
835,1436286785756,0.0
836,1436286785776,0.0
837,1436286785864,0.0
838,1436286785865,0.0
839,1436286785871,0.0
840,1436286785872,0.0
841,1436286785885,0.0
842,1436286785897,0.0
843,1436286785913,0.0
844,1436286785933,0.0
845,1436286785952,0.0
846,1436286785972,0.0
847,1436286785992,0.0
848,1436286786016,0.0
849,1436286786037,0.0
850,1436286786054,0.0
851,1436286786074,0.0
852,1436286786102,0.0
853,1436286786114,0.0
854,1436286786134,0.0
855,1436286786153,0.0
856,1436286786178,0.0
857,1436286786194,0.0
858,1436286786216,0.0
859,1436286786236,0.0
860,1436286786255,0.0
861,1436286786276,0.0
862,1436286786299,0.0
863,1436286786320,0.0
864,1436286786339,0.0
865,1436286786357,0.0
866,1436286786375,0.0
867,1436286786400,0.0
868,1436286786418,0.0
869,1436286786443,0.0
870,1436286786484,0.0
871,1436286786485,0.0
872,1436286786501,0.0
873,1436286786519,0.0
874,1436286786533,0.0
875,1436286786555,0.0
876,1436286786574,0.0
877,1436286786594,0.0
878,1436286786617,0.0
879,1436286786637,0.0
880,1436286786658,0.0
881,1436286786677,0.0
882,1436286786695,0.0
883,1436286786717,0.0
884,1436286786737,0.0
885,1436286786757,0.0
886,1436286786777,0.0
887,1436286786797,0.0
888,1436286786817,0.0
889,1436286786836,0.0
890,1436286786857,0.0
891,1436286786875,0.0
892,1436286786920,0.0
893,1436286786921,0.0
894,1436286786934,0.0
895,1436286786954,0.0
896,1436286786978,0.0
897,1436286786995,0.0
898,1436286787017,0.0
899,1436286787037,0.0
900,1436286787057,0.0
901,1436286787076,0.0
902,1436286787144,0.0
903,1436286787145,0.0
904,1436286787146,0.0
905,1436286787162,0.0
906,1436286787174,0.0
907,1436286787197,0.0
908,1436286787215,0.0
909,1436286787235,0.0
910,1436286787256,0.0
911,1436286787279,0.0
912,1436286787296,0.0
