id,attr_time,attr_light
1,1436286769061,0.0
2,1436286769081,0.0
3,1436286769101,0.0
4,1436286769123,0.0
5,1436286769143,0.0
6,1436286769162,0.0
7,1436286769190,0.0
8,1436286769229,0.0
9,1436286769230,0.0
10,1436286769244,0.0
11,1436286769266,0.0
12,1436286769285,0.0
13,1436286769302,0.0
14,1436286769322,0.0
15,1436286769342,0.0
16,1436286769366,0.0
17,1436286769383,0.0
18,1436286769402,0.0
19,1436286769468,0.0
20,1436286769469,0.0
21,1436286769470,0.0
22,1436286769481,0.0
23,1436286769506,0.0
24,1436286769521,0.0
25,1436286769541,0.0
26,1436286769567,0.0
27,1436286769582,0.0
28,1436286769603,0.0
29,1436286769623,0.0
30,1436286769642,0.0
31,1436286769665,0.0
32,1436286769682,0.0
33,1436286769704,0.0
34,1436286769723,0.0
35,1436286769742,0.0
36,1436286769765,0.0
37,1436286769783,0.0
38,1436286769805,0.0
39,1436286769823,0.0
40,1436286769843,0.0
41,1436286769865,0.0
42,1436286769883,0.0
43,1436286769906,0.0
44,1436286769924,0.0
45,1436286769944,0.0
46,1436286769964,0.0
47,1436286769985,0.0
48,1436286770007,0.0
49,1436286770023,0.0
50,1436286770046,0.0
51,1436286770066,0.0
52,1436286770084,0.0
53,1436286770104,0.0
54,1436286770263,0.0
55,1436286770264,0.0
56,1436286770265,0.0
57,1436286770266,0.0
58,1436286770267,0.0
59,1436286770268,0.0
60,1436286770269,0.0
61,1436286770270,0.0
62,1436286770354,0.0
63,1436286770355,0.0
64,1436286770356,0.0
65,1436286770357,0.0
66,1436286770393,0.0
67,1436286770394,0.0
68,1436286770414,0.0
69,1436286770423,0.0
70,1436286770442,0.0
71,1436286770462,0.0
72,1436286770482,0.0
73,1436286770502,0.0
74,1436286770526,0.0
75,1436286770545,0.0
76,1436286770567,0.0
77,1436286770582,0.0
78,1436286770606,0.0
79,1436286770626,0.0
80,1436286770644,0.0
81,1436286770663,0.0
82,1436286770683,0.0
83,1436286770704,0.0
84,1436286770724,0.0
85,1436286770742,0.0
86,1436286770761,0.0
87,1436286770786,0.0
88,1436286770804,0.0
89,1436286770826,0.0
90,1436286770845,0.0
91,1436286770862,0.0
92,1436286770884,0.0
93,1436286770902,0.0
94,1436286770925,0.0
95,1436286770943,0.0
96,1436286770969,0.0
97,1436286770985,0.0
98,1436286771003,0.0
99,1436286771022,0.0
100,1436286771042,0.0
101,1436286771065,0.0
102,1436286771082,0.0
103,1436286771103,0.0
104,1436286771124,0.0
105,1436286771151,0.0
106,1436286771163,0.0
107,1436286771217,0.0
108,1436286771218,0.0
109,1436286771238,0.0
110,1436286771243,0.0
111,1436286771267,0.0
112,1436286771286,0.0
113,1436286771306,0.0
114,1436286771326,0.0
115,1436286771344,0.0
116,1436286771367,0.0
117,1436286771386,0.0
118,1436286771406,0.0
119,1436286771425,0.0
120,1436286771446,0.0
121,1436286771467,0.0
122,1436286771486,0.0
123,1436286771506,0.0
124,1436286771527,0.0
125,1436286771548,0.0
126,1436286771565,0.0
127,1436286771586,0.0
128,1436286771604,0.0
129,1436286771658,0.0
130,1436286771659,0.0
131,1436286771678,0.0
132,1436286771684,0.0
133,1436286771707,0.0
134,1436286771729,0.0
135,1436286771743,0.0
136,1436286771763,0.0
137,1436286771785,0.0
138,1436286771805,0.0
139,1436286771824,0.0
140,1436286771844,0.0
141,1436286771869,0.0
142,1436286771887,0.0
143,1436286771907,0.0
144,1436286771927,0.0
145,1436286771946,0.0
146,1436286771968,0.0
147,1436286771987,0.0
148,1436286772007,0.0
149,1436286772027,0.0
150,1436286772048,0.0
151,1436286772065,0.0
152,1436286772087,0.0
153,1436286772107,0.0
154,1436286772129,0.0
155,1436286772148,0.0
156,1436286772166,0.0
157,1436286772194,0.0
158,1436286772209,0.0
159,1436286772227,0.0
160,1436286772248,0.0
161,1436286772264,0.0
162,1436286772287,0.0
163,1436286772306,0.0
164,1436286772335,0.0
165,1436286772399,0.0
166,1436286772402,0.0
167,1436286772403,0.0
168,1436286772404,0.0
169,1436286772428,0.0
170,1436286772445,0.0
171,1436286772468,0.0
172,1436286772484,0.0
173,1436286772510,0.0
174,1436286772527,0.0
175,1436286772546,0.0
176,1436286772573,0.0
177,1436286772585,0.0
178,1436286772610,0.0
179,1436286772628,0.0
180,1436286772647,0.0
181,1436286772667,0.0
182,1436286772687,0.0
183,1436286772707,0.0
184,1436286772728,0.0
185,1436286772747,0.0
186,1436286772768,0.0
187,1436286772789,0.0
188,1436286772805,0.0
189,1436286772828,0.0
190,1436286772847,0.0
191,1436286772867,0.0
192,1436286772886,0.0
193,1436286772908,0.0
194,1436286772928,0.0
195,1436286772948,0.0
196,1436286772968,0.0
197,1436286772987,0.0
198,1436286773007,0.0
199,1436286773028,0.0
200,1436286773048,0.0
201,1436286773072,0.0
202,1436286773162,0.0
203,1436286773166,0.0
204,1436286773167,0.0
205,1436286773168,0.0
206,1436286773169,0.0
207,1436286773229,0.0
208,1436286773230,0.0
209,1436286773231,0.0
210,1436286773257,0.0
211,1436286773296,0.0
212,1436286773297,0.0
213,1436286773317,0.0
214,1436286773325,0.0
215,1436286773345,0.0
216,1436286773365,0.0
217,1436286773385,0.0
218,1436286773408,0.0
219,1436286773428,0.0
220,1436286773448,0.0
221,1436286773468,0.0
222,1436286773488,0.0
223,1436286773508,0.0
224,1436286773529,0.0
225,1436286773548,0.0
226,1436286773566,0.0
227,1436286773585,0.0
228,1436286773606,0.0
229,1436286773630,0.0
230,1436286773649,0.0
231,1436286773670,0.0
232,1436286773689,0.0
233,1436286773705,0.0
234,1436286773727,0.0
235,1436286773748,0.0
236,1436286773770,0.0
237,1436286773790,0.0
238,1436286773810,0.0
239,1436286773828,0.0
240,1436286773848,0.0
241,1436286773917,0.0
242,1436286773918,0.0
243,1436286773919,0.0
244,1436286773928,0.0
245,1436286773948,0.0
246,1436286773969,0.0
247,1436286773986,0.0
248,1436286774013,0.0
249,1436286774028,0.0
250,1436286774049,0.0
251,1436286774067,0.0
252,1436286774087,0.0
253,1436286774106,0.0
254,1436286774131,0.0
255,1436286774150,0.0
256,1436286774168,0.0
257,1436286774187,0.0
258,1436286774208,0.0
259,1436286774227,0.0
260,1436286774249,0.0
261,1436286774269,0.0
262,1436286774289,0.0
263,1436286774308,0.0
264,1436286774329,0.0
265,1436286774349,0.0
266,1436286774369,0.0
267,1436286774389,0.0
268,1436286774409,0.0
269,1436286774429,0.0
270,1436286774449,0.0
271,1436286774469,0.0
272,1436286774489,0.0
273,1436286774509,0.0
274,1436286774528,0.0
275,1436286774547,0.0
276,1436286774578,0.0
277,1436286774647,0.0
278,1436286774648,0.0
279,1436286774649,0.0
280,1436286774650,0.0
281,1436286774667,0.0
282,1436286774687,0.0
283,1436286774707,0.0
284,1436286774727,0.0
285,1436286774754,0.0
286,1436286774767,0.0
287,1436286774789,0.0
288,1436286774807,0.0
289,1436286774832,0.0
290,1436286774847,0.0
291,1436286774870,0.0
292,1436286774890,0.0
293,1436286774910,0.0
294,1436286774934,0.0
295,1436286774947,0.0
296,1436286774970,0.0
297,1436286774990,0.0
298,1436286775010,0.0
299,1436286775032,0.0
300,1436286775048,0.0
301,1436286775070,0.0
302,1436286775088,0.0
303,1436286775108,0.0
304,1436286775131,0.0
305,1436286775148,0.0
306,1436286775170,0.0
307,1436286775187,0.0
308,1436286775209,0.0
309,1436286775230,0.0
310,1436286775272,0.0
311,1436286775273,0.0
312,1436286775294,0.0
313,1436286775307,0.0
314,1436286775351,0.0
315,1436286775352,0.0
316,1436286775372,0.0
317,1436286775388,0.0
318,1436286775407,0.0
319,1436286775428,0.0
320,1436286775448,0.0
321,1436286775471,0.0
322,1436286775487,0.0
323,1436286775508,0.0
324,1436286775529,0.0
325,1436286775547,0.0
326,1436286775571,0.0
327,1436286775587,0.0
328,1436286775607,0.0
329,1436286775634,0.0
330,1436286775646,0.0
331,1436286775666,0.0
332,1436286775688,0.0
333,1436286775710,0.0
334,1436286775731,0.0
335,1436286775747,0.0
336,1436286775771,0.0
337,1436286775790,0.0
338,1436286775811,0.0
339,1436286775830,0.0
340,1436286775850,0.0
341,1436286775869,0.0
342,1436286775889,0.0
343,1436286775909,0.0
344,1436286775930,0.0
345,1436286775951,0.0
346,1436286775971,0.0
347,1436286775988,0.0
348,1436286776010,0.0
349,1436286776039,0.0
350,1436286776054,0.0
351,1436286776074,0.0
352,1436286776087,0.0
353,1436286776109,0.0
354,1436286776127,0.0
355,1436286776148,0.0
356,1436286776168,0.0
357,1436286776187,0.0
358,1436286776209,0.0
359,1436286776227,0.0
360,1436286776247,0.0
361,1436286776270,0.0
362,1436286776288,0.0
363,1436286776311,0.0
364,1436286776332,0.0
365,1436286776350,0.0
366,1436286776370,0.0
367,1436286776391,0.0
368,1436286776409,0.0
369,1436286776431,0.0
370,1436286776451,0.0
371,1436286776469,0.0
372,1436286776491,0.0
373,1436286776512,0.0
374,1436286776532,0.0
375,1436286776551,0.0
376,1436286776569,0.0
377,1436286776590,0.0
378,1436286776611,0.0
379,1436286776630,0.0
380,1436286776650,0.0
381,1436286776674,0.0
382,1436286776734,0.0
383,1436286776735,0.0
384,1436286776736,0.0
385,1436286776755,0.0
386,1436286776768,0.0
387,1436286776791,0.0
388,1436286776808,0.0
389,1436286776828,0.0
390,1436286776850,0.0
391,1436286776870,0.0
392,1436286776889,0.0
393,1436286776909,0.0
394,1436286776931,0.0
395,1436286776949,0.0
396,1436286776972,0.0
397,1436286776990,0.0
398,1436286777012,0.0
399,1436286777032,0.0
400,1436286777051,0.0
401,1436286777071,0.0
402,1436286777090,0.0
403,1436286777111,0.0
404,1436286777132,0.0
405,1436286777151,0.0
406,1436286777171,0.0
407,1436286777195,0.0
408,1436286777217,0.0
409,1436286777231,0.0
410,1436286777252,0.0
411,1436286777272,0.0
412,1436286777290,0.0
413,1436286777311,0.0
414,1436286777332,0.0
415,1436286777352,0.0
416,1436286777372,0.0
417,1436286777391,0.0
418,1436286777416,0.0
419,1436286777478,0.0
420,1436286777479,0.0
421,1436286777480,0.0
422,1436286777501,0.0
423,1436286777509,0.0
424,1436286777536,0.0
425,1436286777549,0.0
426,1436286777569,0.0
427,1436286777590,0.0
428,1436286777609,0.0
429,1436286777631,0.0
430,1436286777650,0.0
431,1436286777670,0.0
432,1436286777691,0.0
433,1436286777711,0.0
434,1436286777732,0.0
435,1436286777752,0.0
436,1436286777772,0.0
437,1436286777792,0.0
438,1436286777811,0.0
439,1436286777832,0.0
440,1436286777852,0.0
441,1436286777872,0.0
442,1436286777890,0.0
443,1436286777911,0.0
444,1436286777931,0.0
445,1436286777951,0.0
446,1436286777970,0.0
447,1436286777992,0.0
448,1436286778013,0.0
449,1436286778033,0.0
450,1436286778052,0.0
451,1436286778070,0.0
452,1436286778090,0.0
453,1436286778111,0.0
454,1436286778147,0.0
455,1436286778235,0.0
456,1436286778236,0.0
457,1436286778237,0.0
458,1436286778238,0.0
459,1436286778239,0.0
460,1436286778254,0.0
461,1436286778270,0.0
462,1436286778290,0.0
463,1436286778311,0.0
464,1436286778330,0.0
465,1436286778352,0.0
466,1436286778373,0.0
467,1436286778395,0.0
468,1436286778412,0.0
469,1436286778431,0.0
470,1436286778453,0.0
471,1436286778473,0.0
472,1436286778494,0.0
473,1436286778514,0.0
474,1436286778532,0.0
475,1436286778553,0.0
476,1436286778573,0.0
477,1436286778593,0.0
478,1436286778612,0.0
479,1436286778632,0.0
480,1436286778653,0.0
481,1436286778670,0.0
482,1436286778691,0.0
483,1436286778711,0.0
484,1436286778733,0.0
485,1436286778754,0.0
486,1436286778776,0.0
487,1436286778791,0.0
488,1436286778811,0.0
489,1436286778830,0.0
490,1436286778852,0.0
491,1436286778871,0.0
492,1436286778957,0.0
493,1436286778958,0.0
494,1436286778976,0.0
495,1436286778977,0.0
496,1436286778978,0.0
497,1436286779010,0.0
498,1436286779011,0.0
499,1436286779033,0.0
500,1436286779051,0.0
501,1436286779076,0.0
502,1436286779091,0.0
503,1436286779111,0.0
504,1436286779130,0.0
505,1436286779151,0.0
506,1436286779171,0.0
507,1436286779191,0.0
508,1436286779237,0.0
509,1436286779238,0.0
510,1436286779252,0.0
511,1436286779274,0.0
512,1436286779294,0.0
513,1436286779314,0.0
514,1436286779332,0.0
515,1436286779355,0.0
516,1436286779374,0.0
517,1436286779397,0.0
518,1436286779411,0.0
519,1436286779432,0.0
520,1436286779451,0.0
521,1436286779471,0.0
522,1436286779491,0.0
523,1436286779511,0.0
524,1436286779531,0.0
525,1436286779552,0.0
526,1436286779578,0.0
527,1436286779593,0.0
528,1436286779616,0.0
529,1436286779691,0.0
530,1436286779692,0.0
531,1436286779693,0.0
532,1436286779694,0.0
533,1436286779715,0.0
534,1436286779731,0.0
535,1436286779751,0.0
536,1436286779778,0.0
537,1436286779791,0.0
538,1436286779816,0.0
539,1436286779834,0.0
540,1436286779853,0.0
541,1436286779871,0.0
542,1436286779894,0.0
543,1436286779914,0.0
544,1436286779931,0.0
545,1436286779952,0.0
546,1436286779972,0.0
547,1436286779992,0.0
548,1436286780015,0.0
549,1436286780034,0.0
550,1436286780054,0.0
551,1436286780075,0.0
552,1436286780095,0.0
553,1436286780111,0.0
554,1436286780133,0.0
555,1436286780153,0.0
556,1436286780177,0.0
557,1436286780203,0.0
558,1436286780218,0.0
559,1436286780234,0.0
560,1436286780252,0.0
561,1436286780272,0.0
562,1436286780291,0.0
563,1436286780314,0.0
564,1436286780334,0.0
565,1436286780403,0.0
566,1436286780404,0.0
567,1436286780405,0.0
568,1436286780412,0.0
569,1436286780432,0.0
570,1436286780453,0.0
571,1436286780472,0.0
572,1436286780492,0.0
573,1436286780514,0.0
574,1436286780534,0.0
575,1436286780554,0.0
576,1436286780572,0.0
577,1436286780592,0.0
578,1436286780615,0.0
579,1436286780636,0.0
580,1436286780654,0.0
581,1436286780675,0.0
582,1436286780693,0.0
583,1436286780714,0.0
584,1436286780737,0.0
585,1436286780754,0.0
586,1436286780775,0.0
587,1436286780795,0.0
588,1436286780814,0.0
589,1436286780836,0.0
590,1436286780852,0.0
591,1436286780873,0.0
592,1436286780892,0.0
593,1436286780914,0.0
594,1436286780941,0.0
595,1436286780955,0.0
596,1436286780976,0.0
597,1436286780992,0.0
598,1436286781013,0.0
599,1436286781032,0.0
600,1436286781056,0.0
601,1436286781076,0.0
602,1436286781167,0.0
603,1436286781168,0.0
604,1436286781169,0.0
605,1436286781170,0.0
606,1436286781177,0.0
607,1436286781201,0.0
608,1436286781221,0.0
609,1436286781339,0.0
610,1436286781340,0.0
611,1436286781342,0.0
612,1436286781343,0.0
613,1436286781344,0.0
614,1436286781345,0.0
615,1436286781367,0.0
616,1436286781373,0.0
617,1436286781395,0.0
618,1436286781416,0.0
619,1436286781433,0.0
620,1436286781456,0.0
621,1436286781476,0.0
622,1436286781497,0.0
623,1436286781516,0.0
624,1436286781535,0.0
625,1436286781555,0.0
626,1436286781579,0.0
627,1436286781594,0.0
628,1436286781616,0.0
629,1436286781636,0.0
630,1436286781655,0.0
631,1436286781674,0.0
632,1436286781697,0.0
633,1436286781716,0.0
634,1436286781737,0.0
635,1436286781756,0.0
636,1436286781775,0.0
637,1436286781797,0.0
638,1436286781815,0.0
639,1436286781836,0.0
640,1436286781902,0.0
641,1436286781903,0.0
642,1436286781904,0.0
643,1436286781924,0.0
644,1436286781935,0.0
645,1436286781953,0.0
646,1436286781974,0.0
647,1436286781993,0.0
648,1436286782026,0.0
649,1436286782034,0.0
650,1436286782055,0.0
651,1436286782074,0.0
652,1436286782097,0.0
653,1436286782114,0.0
654,1436286782140,0.0
655,1436286782159,0.0
656,1436286782177,0.0
657,1436286782194,0.0
658,1436286782216,0.0
659,1436286782237,0.0
660,1436286782257,0.0
661,1436286782278,0.0
662,1436286782296,0.0
663,1436286782317,0.0
664,1436286782334,0.0
665,1436286782353,0.0
666,1436286782376,0.0
667,1436286782399,0.0
668,1436286782420,0.0
669,1436286782439,0.0
670,1436286782456,0.0
671,1436286782475,0.0
672,1436286782495,0.0
673,1436286782516,0.0
674,1436286782537,0.0
675,1436286782559,0.0
676,1436286782608,0.0
677,1436286782609,0.0
678,1436286782628,0.0
679,1436286782634,0.0
680,1436286782657,0.0
681,1436286782679,0.0
682,1436286782695,0.0
683,1436286782714,0.0
684,1436286782736,0.0
685,1436286782756,0.0
686,1436286782776,0.0
687,1436286782794,0.0
688,1436286782820,0.0
689,1436286782837,0.0
690,1436286782857,0.0
691,1436286782877,0.0
692,1436286782897,0.0
693,1436286782917,0.0
694,1436286782934,0.0
695,1436286782957,0.0
696,1436286782978,0.0
697,1436286782997,0.0
698,1436286783019,0.0
699,1436286783034,0.0
700,1436286783057,0.0
701,1436286783078,0.0
702,1436286783097,0.0
703,1436286783117,0.0
704,1436286783137,0.0
705,1436286783154,0.0
706,1436286783177,0.0
707,1436286783201,0.0
708,1436286783220,0.0
709,1436286783237,0.0
710,1436286783259,0.0
711,1436286783275,0.0
712,1436286783296,0.0
713,1436286783366,0.0
714,1436286783367,0.0
715,1436286783368,0.0
716,1436286783376,0.0
717,1436286783397,0.0
718,1436286783417,0.0
719,1436286783435,0.0
720,1436286783461,0.0
721,1436286783477,0.0
722,1436286783496,0.0
723,1436286783516,0.0
724,1436286783538,0.0
725,1436286783555,0.0
726,1436286783580,0.0
727,1436286783597,0.0
728,1436286783618,0.0
729,1436286783638,0.0
730,1436286783658,0.0
731,1436286783678,0.0
732,1436286783696,0.0
733,1436286783718,0.0
734,1436286783738,0.0
735,1436286783758,0.0
736,1436286783778,0.0
737,1436286783797,0.0
738,1436286783819,0.0
739,1436286783838,0.0
740,1436286783858,0.0
741,1436286783878,0.0
742,1436286783900,0.0
743,1436286783918,0.0
744,1436286783938,0.0
745,1436286783960,0.0
746,1436286783979,0.0
747,1436286783997,0.0
748,1436286784024,0.0
749,1436286784082,0.0
750,1436286784083,0.0
751,1436286784084,0.0
752,1436286784103,0.0
753,1436286784116,0.0
754,1436286784143,0.0
755,1436286784167,0.0
756,1436286784177,0.0
757,1436286784196,0.0
758,1436286784226,0.0
759,1436286784240,0.0
760,1436286784257,0.0
761,1436286784281,0.0
762,1436286784296,0.0
763,1436286784317,0.0
764,1436286784339,0.0
765,1436286784359,0.0
766,1436286784379,0.0
767,1436286784399,0.0
768,1436286784417,0.0
769,1436286784439,0.0
770,1436286784459,0.0
771,1436286784479,0.0
772,1436286784500,0.0
773,1436286784517,0.0
774,1436286784539,0.0
775,1436286784559,0.0
776,1436286784578,0.0
777,1436286784599,0.0
778,1436286784619,0.0
779,1436286784639,0.0
780,1436286784666,0.0
781,1436286784677,0.0
782,1436286784697,0.0
783,1436286784716,0.0
784,1436286784736,0.0
785,1436286784757,0.0
786,1436286784817,0.0
787,1436286784818,0.0
788,1436286784819,0.0
789,1436286784840,0.0
790,1436286784856,0.0
791,1436286784877,0.0
792,1436286784897,0.0
793,1436286784916,0.0
794,1436286784936,0.0
795,1436286784959,0.0
796,1436286784978,0.0
797,1436286784998,0.0
798,1436286785018,0.0
799,1436286785040,0.0
800,1436286785059,0.0
801,1436286785079,0.0
802,1436286785099,0.0
803,1436286785119,0.0
804,1436286785138,0.0
805,1436286785159,0.0
806,1436286785184,0.0
807,1436286785198,0.0
808,1436286785220,0.0
809,1436286785240,0.0
810,1436286785260,0.0
811,1436286785280,0.0
812,1436286785300,0.0
813,1436286785318,0.0
814,1436286785338,0.0
815,1436286785359,0.0
816,1436286785380,0.0
817,1436286785400,0.0
818,1436286785421,0.0
819,1436286785437,0.0
820,1436286785459,0.0
821,1436286785478,0.0
822,1436286785498,0.0
823,1436286785586,0.0
824,1436286785587,0.0
825,1436286785588,0.0
826,1436286785589,0.0
827,1436286785598,0.0
828,1436286785617,0.0
829,1436286785640,0.0
830,1436286785657,0.0
831,1436286785681,0.0
832,1436286785698,0.0
833,1436286785718,0.0
834,1436286785738,0.0
835,1436286785759,0.0
836,1436286785777,0.0
837,1436286785800,0.0
838,1436286785820,0.0
839,1436286785842,0.0
840,1436286785860,0.0
841,1436286785880,0.0
842,1436286785900,0.0
843,1436286785922,0.0
844,1436286785938,0.0
845,1436286785960,0.0
846,1436286785978,0.0
847,1436286786000,0.0
848,1436286786020,0.0
849,1436286786040,0.0
850,1436286786059,0.0
851,1436286786081,0.0
852,1436286786100,0.0
853,1436286786121,0.0
854,1436286786144,0.0
855,1436286786159,0.0
856,1436286786183,0.0
857,1436286786201,0.0
858,1436286786218,0.0
859,1436286786417,0.0
860,1436286786418,0.0
861,1436286786419,0.0
862,1436286786420,0.0
863,1436286786421,0.0
864,1436286786422,0.0
865,1436286786423,0.0
866,1436286786424,0.0
867,1436286786425,0.0
868,1436286786426,0.0
869,1436286786460,0.0
870,1436286786461,0.0
871,1436286786506,0.0
872,1436286786507,0.0
873,1436286786518,0.0
874,1436286786538,0.0
875,1436286786564,0.0
876,1436286786578,0.0
877,1436286786601,0.0
878,1436286786621,0.0
879,1436286786641,0.0
880,1436286786660,0.0
881,1436286786680,0.0
882,1436286786698,0.0
883,1436286786720,0.0
884,1436286786741,0.0
885,1436286786761,0.0
886,1436286786781,0.0
887,1436286786798,0.0
888,1436286786822,0.0
889,1436286786843,0.0
890,1436286786864,0.0
891,1436286786883,0.0
892,1436286786899,0.0
893,1436286786918,0.0
894,1436286786939,0.0
895,1436286786958,0.0
896,1436286786984,0.0
897,1436286786999,0.0
898,1436286787024,0.0
899,1436286787041,0.0
900,1436286787067,0.0
901,1436286787161,0.0
902,1436286787162,0.0
903,1436286787163,0.0
904,1436286787164,0.0
905,1436286787165,0.0
906,1436286787183,0.0
907,1436286787229,0.0
908,1436286787230,0.0
909,1436286787238,0.0
910,1436286787271,0.0
911,1436286787279,0.0
912,1436286787300,0.0
