id,attr_time,attr_db
1,1436988059533,6.5262187489773
2,1436988060269,41.0923851101927
3,1436988060985,44.563559387363
4,1436988061690,53.7629943575125
5,1436988062375,28.6972855280326
6,1436988063119,34.4499547712769
7,1436988063812,46.9702871572431
8,1436988064543,56.7815454137298
9,1436988065273,57.0633042278255
10,1436988065860,69.5446451884435
11,1436988066518,64.3355707520587
12,1436988067238,63.6338097775366
13,1436988067964,60.8580771612345
14,1436988068662,55.3913238086396
15,1436988069437,68.7910252390027
16,1436988070084,52.0376051521959
17,1436988070802,56.3629565288967
18,1436988071533,53.8913776426973
19,1436988072254,44.7838672052232
20,1436988072975,68.3020093823406
21,1436988073740,58.9147236304902
22,1436988074653,39.3783008042797
23,1436988075394,48.9152536646194
24,1436988076130,47.3635355184265
25,1436988076870,56.2472236877607
26,1436988077622,31.6069225706475
27,1436988078356,24.6841624329028
28,1436988079122,48.0909782634463
29,1436988079882,56.5498565512751
30,1436988080600,49.3897431956819
31,1436988081324,43.7094818940203
32,1436988082063,41.5487811934143
33,1436988082793,44.415990849441
34,1436988083522,59.4439603035347
35,1436988084262,34.8908249942908
36,1436988084978,69.8979262818478
37,1436988085733,54.5251434223005
38,1436988086394,24.1681009899299
39,1436988087130,46.3793170923364
40,1436988087858,50.0080313586608
41,1436988088598,41.3702864402404
42,1436988089237,45.2885118834992
43,1436988089896,63.4513157442435
44,1436988090599,55.6796323217823
45,1436988091343,50.1767586987053
46,1436988092082,56.5281537289097
47,1436988092841,57.4185127809451
48,1436988093575,59.3907112613973
49,1436988094283,47.0652904169302
50,1436988094942,42.4697176704497
51,1436988095675,44.1794921772841
52,1436988096420,55.9114781237307
53,1436988097153,61.0973782405307
54,1436988097902,50.8381153916628
55,1436988098646,58.0052094018106
56,1436988099358,56.1529109772475
57,1436988100027,3.551717252191
58,1436988100718,45.9935765671148
59,1436988101457,26.541807040305
60,1436988102178,57.9939917230965
61,1436988102896,47.7335446695252
62,1436988103687,61.3565671274193
63,1436988104415,38.8989108851072
64,1436988105144,64.0421448228474
65,1436988105922,65.1962810262314
66,1436988106596,48.1692170183646
67,1436988107328,49.9851715748324
68,1436988108091,46.693525259867
69,1436988108930,48.92540615311
70,1436988109673,64.3298455329321
71,1436988110363,47.8382020437477
72,1436988111066,52.7738320951836
73,1436988111837,42.6067791155183
74,1436988112572,33.4082215433038
75,1436988113334,49.7499040791476
76,1436988114122,58.2391545722084
77,1436988114879,45.1955039746182
78,1436988115459,63.2775410580994
79,1436988116140,59.6846095508451
80,1436988116874,27.5036018832885
81,1436988117613,15.5525101005415
82,1436988118366,45.3408797003573
83,1436988119095,33.6647260283428
84,1436988119828,15.5344720747046
85,1436988120513,61.2759959154511
86,1436988121162,46.2650756539408
87,1436988121891,66.873823974845
88,1436988122644,61.3958080773007
89,1436988123439,41.5533329830615
90,1436988124169,49.8431101435964
91,1436988125860,35.6411878731053
92,1436988126447,30.0145168165589
93,1436988127143,3.03083465262957
94,1436988127883,4.11163521917775
95,1436988128593,41.6128267156628
96,1436988129353,2.99922493359151
97,1436988130087,43.2320004566632
98,1436988130706,36.9382531992466
99,1436988131394,51.0869546846549
100,1436988132120,40.8231734553102
101,1436988132857,36.6792613337216
102,1436988133554,44.6629081544222
103,1436988134200,16.99008397928
104,1436988134935,50.7523962709513
105,1436988135694,46.9362652807876
106,1436988136463,47.7391824249145
107,1436988137203,35.4298105951717
108,1436988137930,55.3153031671379
109,1436988138667,61.5202628455953
110,1436988139414,45.0333823789435
111,1436988140147,48.5992457582443
112,1436988140850,56.3602105140287
113,1436988141491,38.3998430813933
114,1436988142244,56.2336299536912
115,1436988142984,44.464489775018
116,1436988143825,52.0599731091529
117,1436988144568,62.0583289994356
118,1436988145285,64.4312962591263
119,1436988146041,45.754653407952
120,1436988146810,35.1488645188052
121,1436988148267,53.892555915316
122,1436988149023,51.5346847151937
123,1436988149833,61.6344853044867
124,1436988150513,55.5918656151655
125,1436988151178,67.5050677770205
126,1436988151908,49.2789245736136
127,1436988152647,65.1541019379673
128,1436988153370,64.6779502096901
129,1436988154819,35.5521342324971
130,1436988155480,58.3720752188505
131,1436988156181,57.1457416107074
132,1436988156915,46.1182532551005
133,1436988157660,12.2653689349835
134,1436988158405,47.5020679578281
135,1436988159135,62.0511125767413
136,1436988159861,59.9439127344262
137,1436988160621,61.8608672279109
138,1436988161347,51.1992760652181
139,1436988162000,57.4248845705376
140,1436988162750,48.9542442066083
141,1436988163484,57.2601312823098
142,1436988164188,48.731106858536
143,1436988164924,45.1327867912428
144,1436988165646,32.5866169426269
145,1436988167121,54.3790228875768
146,1436988167842,51.3099788573886
147,1436988168562,46.6085802113642
148,1436988169303,49.9942234458247
149,1436988170020,53.0770760856049
150,1436988170718,62.8796952328688
151,1436988171460,56.5835072276086
152,1436988172138,52.2070359365103
153,1436988172880,45.9044424328985
154,1436988173631,46.3463145121184
155,1436988174353,38.5528098670556
156,1436988175080,45.6350202013751
157,1436988175841,45.8034708662667
158,1436988176575,38.792602979124
159,1436988177317,18.8848445168707
160,1436988178078,31.3708171557803
161,1436988178857,38.4306162326307
162,1436988179604,50.4592437695162
163,1436988180343,54.9545031559838
164,1436988181080,50.8456725137887
165,1436988181783,54.3159366901553
166,1436988182448,53.0983389451458
167,1436988183167,56.1467244161411
168,1436988183968,47.867241095031
169,1436988184728,3.97420304802666
170,1436988185464,40.4557529836618
171,1436988186147,37.8000841570551
172,1436988186803,38.0171901093556
173,1436988187518,37.7495227176444
174,1436988188238,43.6971786122766
175,1436988189042,25.4212333206295
176,1436988189850,44.2799148104494
177,1436988190580,2.07560521469752
178,1436988191273,40.4131843211478
179,1436988192039,35.7054645859559
180,1436988192774,17.2091008222446
181,1436988193509,39.402458436855
182,1436988194255,25.5003024372773
183,1436988194991,42.0589021302467
184,1436988195733,32.0015167536386
185,1436988196444,48.4350410973888
186,1436988197082,43.7573873762699
187,1436988197791,39.0681664818194
188,1436988198529,27.9282806523991
189,1436988199278,57.0287174792932
190,1436988200013,46.5060031005032
191,1436988200778,11.9798327645064
192,1436988201534,51.6767567695773
193,1436988202265,42.8054582241161
194,1436988202993,39.9360301838624
195,1436988203765,3.44725626119497
196,1436988204489,5.8979478561722
197,1436988205221,30.3107895781514
198,1436988205948,23.6259913453854
199,1436988206645,33.5538218943826
200,1436988207283,33.1338342190277
201,1436988207971,49.1848727987844
202,1436988208614,45.7733104994725
203,1436988209334,20.6881604938157
204,1436988210059,34.8783934165223
205,1436988210782,39.0322054493171
206,1436988211483,25.7706526561153
207,1436988212192,22.1555693047918
208,1436988212923,39.0473237481337
209,1436988213573,40.7519343828495
210,1436988214321,24.3354994909818
211,1436988215053,55.4991127755567
212,1436988215788,6.13473657072666
213,1436988216535,27.7213498597844
214,1436988217243,32.2151313827357
215,1436988217986,8.59497435298399
216,1436988218670,41.9436324326206
217,1436988219302,37.9212107020849
218,1436988219983,37.4497609645412
219,1436988220753,56.5886674277671
220,1436988221471,47.5686844894325
221,1436988222211,31.1262597698602
222,1436988222961,44.9701133469372
223,1436988223709,58.9533387505353
224,1436988224443,29.6520110259153
225,1436988225164,18.9770696642503
226,1436988225914,40.3573140915785
227,1436988226554,45.6871870481226
228,1436988227291,11.9108408327486
229,1436988228025,57.4229752288833
230,1436988228753,51.0775202100088
231,1436988229464,44.2759092468895
232,1436988230192,58.6677028815397
233,1436988230785,40.8833775287205
234,1436988231468,54.7660998664597
235,1436988232206,44.3763405568608
236,1436988232940,62.3330674861071
237,1436988233699,54.3209473571968
238,1436988234423,59.418677145428
239,1436988235163,36.2478649129409
240,1436988235859,48.3861165297695
241,1436988236539,61.913879293954
242,1436988237271,61.1051445753452
243,1436988238010,37.8006325236755
244,1436988238756,38.8528908181354
245,1436988239501,40.1353783175702
246,1436988240233,48.9417363513032
247,1436988240968,59.5065278934455
248,1436988241722,40.564800633904
249,1436988242316,40.2382714176941
250,1436988243054,43.2788948604149
251,1436988243842,39.7645443935215
252,1436988244635,56.7623678988486
253,1436988245343,36.8758390258597
254,1436988246002,53.613507864049
255,1436988246610,32.9276654264581
256,1436988247341,44.9180005959433
257,1436988248065,54.347219937649
258,1436988248807,38.2759229882329
259,1436988249552,43.3943215151053
260,1436988250254,52.4061715347428
261,1436988250943,51.820221966815
262,1436988251679,36.0112679042676
263,1436988252411,31.398904044468
264,1436988253149,31.035916956188
265,1436988253890,41.5960208883249
266,1436988254660,52.9929064479323
267,1436988255401,56.4162052857005
268,1436988256168,56.9694868545769
269,1436988256885,59.0694758201219
270,1436988257531,62.2894973589315
271,1436988258159,40.0372313205733
272,1436988258754,49.4455832163632
273,1436988259451,61.4171655763432
274,1436988260131,48.0600538671987
275,1436988260798,53.6963032666783
276,1436988261512,45.3989680698045
277,1436988262262,65.3305278531344
278,1436988263013,56.8418858607184
279,1436988263770,55.0260870303451
280,1436988264494,64.4485644309488
281,1436988265232,48.777584919047
282,1436988265952,60.2016603585527
283,1436988266719,62.3308412359355
284,1436988267428,60.1140270102625
285,1436988268140,63.1309860514593
286,1436988268860,67.5607888195449
287,1436988269557,70.0829658541669
288,1436988270246,51.2694062770373
289,1436988271024,31.1083964841794
290,1436988271712,59.5078114964026
291,1436988272437,49.8691347984994
292,1436988273128,40.7364425516877
293,1436988273853,48.2008525021062
294,1436988274577,38.6998626337918
295,1436988275301,49.4530431941273
296,1436988276055,53.1549738068903
297,1436988276815,57.0829965919275
298,1436988277553,30.1336101906997
299,1436988278293,45.8983377187861
300,1436988279050,55.7760652163516
301,1436988279817,58.6594856916581
302,1436988280542,54.6122557281918
303,1436988281258,41.1270616443698
304,1436988281954,45.9694034334782
305,1436988282622,23.4376781733001
306,1436988283353,38.5016754956453
307,1436988284001,62.4655943742252
308,1436988284707,47.8074082295401
309,1436988285433,36.3130989551448
310,1436988286172,36.3349560989729
311,1436988286951,37.1852042692826
312,1436988287591,5.68733689920292
313,1436988288333,33.9079949421709
314,1436988289048,27.443895047736
315,1436988289716,18.5233999617713
316,1436988290471,39.7221471166867
317,1436988291207,56.1141220937374
318,1436988291883,44.7266401279839
319,1436988292629,22.7179009333326
320,1436988293370,43.7033508846173
321,1436988294053,56.8623967515292
322,1436988294706,55.3308087095558
323,1436988295430,54.1301661285395
324,1436988296161,60.6470234502095
325,1436988296891,60.3315417179479
326,1436988297634,30.717136508377
327,1436988298359,52.3130718654561
328,1436988299119,38.9288462677781
329,1436988299877,39.8707629379642
330,1436988300618,33.1027096584154
331,1436988301361,55.756086914708
332,1436988302103,43.8052794811863
333,1436988302828,56.7571203012637
334,1436988303556,54.5175578277994
335,1436988304195,44.4149392776835
336,1436988304840,47.7729897201285
337,1436988305584,59.6951509642691
338,1436988306328,62.2982999096397
339,1436988307056,56.3288572055015
340,1436988307667,60.2509278773561
341,1436988308331,62.8019699307355
342,1436988309058,57.5867710992294
343,1436988309820,54.966036998155
344,1436988310541,55.0163532763224
345,1436988311240,61.5816255775643
346,1436988311941,57.0878095263714
347,1436988312655,60.1429065757119
348,1436988313388,46.0809713546497
349,1436988314106,37.407395962201
350,1436988314784,62.8632468116586
351,1436988315503,48.8701491340994
352,1436988316280,36.7565636353301
353,1436988317058,42.3685961897691
354,1436988317838,53.2272591714417
355,1436988318578,53.8898823796672
356,1436988319327,45.5174487844266
357,1436988320019,10.1609488433605
358,1436988320656,49.1648079462539
359,1436988321376,43.2625644582321
360,1436988322106,42.8067712981922
361,1436988322847,47.6139691195222
362,1436988323580,47.1568800408087
363,1436988324312,47.6348377619554
364,1436988324967,42.3246102688604
365,1436988325677,50.9746620261316
366,1436988326421,27.8152921377486
367,1436988327145,38.4434356175718
368,1436988327821,39.8700966469587
369,1436988328551,33.3549622373814
370,1436988329297,45.957212309401
371,1436988330041,31.1771519428025
372,1436988330813,40.2168118023707
373,1436988331513,5.40696284266866
374,1436988332176,51.0634181591547
375,1436988332897,32.9270637287891
376,1436988333706,45.2304131886637
377,1436988334439,46.1370051757527
378,1436988335127,55.5073873384378
379,1436988335714,44.9741271248012
380,1436988336438,41.491929570768
381,1436988337186,53.7951555018498
382,1436988337911,46.5658125281409
383,1436988338628,5.36664232214404
384,1436988339297,32.0611135947849
385,1436988340039,21.5982114556676
386,1436988340710,39.7248976712679
387,1436988342152,38.2220037316982
388,1436988342824,56.2141716981211
389,1436988343567,34.3013700041343
390,1436988344313,40.4607881312056
391,1436988345067,60.1592596501589
392,1436988345800,41.0540434858253
393,1436988347227,57.9013858144191
394,1436988347948,38.4959044276733
395,1436988348745,46.4696757271971
396,1436988349471,46.7662614135874
397,1436988350207,39.6075445094387
398,1436988350880,46.3002273210833
399,1436988352399,42.1620503085466
400,1436988353066,58.0002376857754
401,1436988353853,2.50818703445611
402,1436988354560,36.1511060565699
403,1436988355186,49.3458740681407
404,1436988355857,4.55263803403923
405,1436988356596,56.5065895303772
406,1436988357291,54.9035337693049
407,1436988358029,55.3174326585489
408,1436988358839,8.8953846164739
409,1436988359567,34.3541102507521
410,1436988360313,33.3055014327875
411,1436988361058,31.1606931819384
412,1436988361773,40.5791529830758
413,1436988363557,56.3876832628443
414,1436988364298,42.9927044045505
415,1436988365048,46.0782366223523
416,1436988365776,42.6799108414682
417,1436988366461,47.3302584435994
418,1436988367148,50.3117511347997
419,1436988367851,45.3793580373085
420,1436988368476,46.2424461594317
421,1436988369173,51.3826655768047
422,1436988369892,45.6426606668913
423,1436988370638,31.9217675220317
424,1436988371371,54.8899858796228
425,1436988372125,43.4649913717543
426,1436988372870,48.5553680887751
427,1436988373610,45.929541388827
428,1436988374388,37.510113716914
429,1436988375126,39.9181232409755
430,1436988375882,41.3398148645043
431,1436988376624,45.8222840471168
432,1436988377340,32.1300268602641
433,1436988378078,56.614638401572
434,1436988378808,54.5719917708791
435,1436988379457,46.2094815815315
436,1436988380136,52.4341560765382
437,1436988380867,43.3220530488782
438,1436988381631,59.2589435660567
439,1436988382370,53.0726975561204
440,1436988383112,10.8247690528841
441,1436988383857,31.6185205936464
442,1436988384435,47.7509442120461
443,1436988385109,48.7501437071884
444,1436988385849,46.4435686747279
445,1436988387490,46.142413980901
446,1436988388160,14.6270549538942
447,1436988388893,54.5167856901885
448,1436988389636,53.121486080619
449,1436988390351,62.0666785979637
450,1436988391097,49.8538316091786
451,1436988391936,61.7837579728758
452,1436988392605,56.6054113328479
453,1436988393345,58.8834953858947
454,1436988394141,59.2153207546029
455,1436988394869,47.2111730495642
456,1436988395515,27.8102155860616
457,1436988396228,55.7999223129989
458,1436988396968,62.4489014711158
459,1436988397743,62.6699484188048
460,1436988398548,64.0622958796236
461,1436988399285,55.6844701483977
462,1436988399987,55.3499102209116
463,1436988400764,62.1146518495368
464,1436988401513,48.3883932478012
465,1436988402258,57.285715327072
466,1436988403083,57.9200957201477
467,1436988403849,60.2266956112649
468,1436988404591,55.6973909279527
469,1436988405225,54.5317666644515
470,1436988405902,57.9190629786296
471,1436988406653,57.3518169617052
472,1436988407381,49.5737167283322
473,1436988408100,43.560002251061
474,1436988408785,59.1305855933051
475,1436988409425,51.6753066224336
476,1436988410120,47.2762727439663
477,1436988410852,63.3805821759484
478,1436988411571,59.6739855549243
479,1436988412237,43.8103927306971
480,1436988412966,49.792754974001
481,1436988413740,59.6938445667784
482,1436988414483,47.1351429932643
483,1436988415217,30.7462911003225
484,1436988415912,51.1746388475665
485,1436988416568,66.0541647402592
486,1436988417297,41.4359976590782
487,1436988418065,14.3238606612612
488,1436988418832,54.6457066813083
489,1436988419578,63.6469774158612
490,1436988420307,57.3056701875035
491,1436988421067,52.5349534767287
492,1436988421834,47.6135779735087
493,1436988422594,33.7695052235697
494,1436988423314,45.3889178232046
495,1436988424172,50.4516600692723
496,1436988424891,46.8146361265718
497,1436988425646,26.2851531458669
498,1436988426385,56.9113238328741
499,1436988427134,6.64240442134894
500,1436988427933,42.3659940283116
501,1436988428549,1.66696013444188
502,1436988429228,39.3575182647173
503,1436988429911,52.136674494474
504,1436988430687,51.1196377644945
505,1436988431411,50.661869539143
506,1436988432155,28.3230906294994
507,1436988432836,45.0445641488725
508,1436988433602,41.8895349485499
509,1436988434445,37.7377234964884
510,1436988435144,38.715122684574
511,1436988435821,37.9855543779598
512,1436988436562,56.1488390614713
513,1436988437285,72.7428338657018
514,1436988438033,46.7540581759493
515,1436988438844,41.6830862057329
516,1436988439532,21.60680329955
517,1436988440125,46.5131229762259
518,1436988440802,62.4680900381172
519,1436988441547,50.3334040761063
520,1436988442274,56.2011600703236
521,1436988443011,56.3116213128713
522,1436988443756,55.3153173877232
523,1436988444577,33.1493269847823
524,1436988445301,59.0405115103164
525,1436988446061,55.7454946974178
526,1436988446819,35.4371397236962
527,1436988447545,48.8580310085973
528,1436988448247,30.8627488856724
529,1436988448938,57.6674381629936
530,1436988449698,36.2039945621327
531,1436988450414,43.6443415486076
532,1436988451169,26.6825887495169
533,1436988451905,47.023389315221
534,1436988452651,54.0911080476613
535,1436988453408,45.8977371662125
536,1436988454125,47.167644194304
537,1436988454845,42.7402249762898
538,1436988455591,53.3956983575532
539,1436988456317,62.4882142090322
540,1436988457007,43.6904467521189
541,1436988457702,53.6050741344487
542,1436988458348,36.4721709397842
543,1436988459087,52.954293927568
544,1436988459846,53.2299080736701
545,1436988460606,51.0200509036162
546,1436988461387,29.0512293861444
547,1436988462094,59.8171541109596
548,1436988462838,49.8661823689156
549,1436988463579,20.9233441429059
550,1436988464339,56.808696541012
551,1436988465079,46.481422135455
552,1436988465820,64.5649045269279
553,1436988466546,54.799096859597
554,1436988467284,42.1343220189383
555,1436988467956,58.1064874852384
556,1436988468555,47.2695650225422
557,1436988469295,41.0679664478971
558,1436988470041,39.3743503583584
559,1436988470815,2.88589391766358
560,1436988471559,21.1345756151091
561,1436988472274,33.5695646213382
562,1436988472879,12.0220980308565
563,1436988473587,22.2349550943908
564,1436988474344,55.3011157047897
565,1436988475082,40.9346003391634
566,1436988475810,28.1923172202576
567,1436988476545,44.8571783963405
568,1436988477287,45.8572860673554
569,1436988478018,49.7496316829482
570,1436988478798,34.3130384501662
571,1436988479626,44.1947691201241
572,1436988480365,47.4359256303359
573,1436988481108,33.6888098763643
574,1436988481846,40.4446911438657
575,1436988482590,40.7983236089529
