id,attr_time,attr_db
1,1436168796701,58.5610253857839
2,1436168797423,61.1476780704723
3,1436168798135,60.27724761152
4,1436168798761,50.2901048943549
5,1436168799453,43.8886481642395
6,1436168800178,44.7077955676199
7,1436168800928,49.2378363906647
8,1436168801657,47.7490128054211
9,1436168802405,54.7372693882563
10,1436168803142,59.4245880964532
11,1436168803750,46.3049192091211
12,1436168804424,47.1338393713875
13,1436168805159,46.6373049477447
14,1436168805891,48.9033564598946
15,1436168806630,52.4526452726669
16,1436168807368,59.0180572391987
17,1436168808147,48.0791253293016
18,1436168808857,46.0745919103703
19,1436168809536,53.6950106110344
20,1436168810262,63.0740321190214
21,1436168811018,54.7959845024353
22,1436168811758,62.1619798759163
23,1436168812478,58.7962666355998
24,1436168813261,60.9884011598504
25,1436168814012,56.4638462614326
26,1436168815768,43.6320915841693
27,1436168816409,43.2951938160843
28,1436168817151,47.454211769434
29,1436168817884,54.0640007209824
30,1436168818619,55.3858597407031
31,1436168819347,52.2285488775152
32,1436168820039,51.2775174241645
33,1436168820690,49.483531330123
34,1436168821426,57.0161574062685
35,1436168822175,53.0579204016272
36,1436168822917,50.9303774722891
37,1436168823727,56.2199283716506
38,1436168824442,57.8803862500541
39,1436168825194,47.5222101375914
40,1436168825860,55.7883927409896
41,1436168826608,61.3435892023894
42,1436168827340,56.8259212010369
43,1436168828074,53.9859369706678
44,1436168828889,61.9083417399407
45,1436168829617,54.511766407467
46,1436168830359,56.302004033592
47,1436168830999,51.0458296247677
48,1436168831696,49.5420789879997
49,1436168833437,53.417055866808
50,1436168834178,55.9773830616018
51,1436168834926,55.8716822894224
52,1436168835715,59.6924912412621
53,1436168836370,51.4241690504961
54,1436168837062,48.6775053089249
55,1436168837805,43.9089605738819
56,1436168838538,44.9972595272696
57,1436168839227,53.1981845456457
58,1436168839896,52.1038522388196
59,1436168840649,47.3455507916937
60,1436168841374,56.5716998406125
61,1436168842085,51.1347119188717
62,1436168842748,48.8544698443138
63,1436168843504,51.3822545531957
64,1436168844239,47.6556800996857
65,1436168844996,42.1224994614653
66,1436168845712,58.7620893890834
67,1436168846460,50.5947532459016
68,1436168847190,52.0664351983241
69,1436168847940,56.0471103719866
70,1436168848663,62.5055600173944
71,1436168849380,54.5076970168177
72,1436168850121,56.7567853271135
73,1436168850851,51.9268614863392
74,1436168851583,51.9686486309522
75,1436168852254,55.8287619323608
76,1436168852967,52.7123494539535
77,1436168853689,45.9932670076399
78,1436168854409,46.5206760250234
79,1436168855165,58.4926064605041
80,1436168855935,50.2341751242496
81,1436168856611,58.5384225626398
82,1436168857336,48.1982225629073
83,1436168858064,51.4917951152791
84,1436168858769,50.6098670057034
85,1436168859475,48.1381893622474
86,1436168860145,53.8948222461331
87,1436168860880,62.2316179598739
88,1436168861603,56.2752019110873
89,1436168862325,54.5536919863532
90,1436168862996,51.8881700636697
91,1436168863707,51.0630764201564
92,1436168864442,47.9944880993102
93,1436168865184,50.6016983823255
94,1436168865959,56.8652188871255
95,1436168866684,63.508825081505
96,1436168867410,43.1912547589426
97,1436168868141,51.6982662632328
98,1436168868852,52.4449868117718
99,1436168869530,49.5592698881954
100,1436168870266,49.2194759611721
101,1436168871006,46.0177688316768
102,1436168871749,51.0961287563764
103,1436168872471,54.8009830939917
104,1436168873144,61.0288004446134
105,1436168873818,69.6605785160419
106,1436168874544,53.5284589290849
107,1436168875264,64.347783822022
108,1436168876007,52.9629300633831
109,1436168876582,46.8087083465526
110,1436168877255,55.6079764221184
111,1436168878010,52.3651726795388
112,1436168878741,51.3585243534089
113,1436168879481,48.6966850109993
114,1436168880277,42.6758974139186
115,1436168881026,45.9000546326818
116,1436168881747,52.0865105462151
117,1436168882436,50.5495007056978
118,1436168883066,60.0518615348762
119,1436168883738,50.9317044231952
120,1436168884422,48.4698611684323
121,1436168885157,45.8801788166521
122,1436168885893,47.2045654730543
123,1436168886579,48.6379363655221
124,1436168887305,41.4951269188897
125,1436168888040,52.421602615414
126,1436168888756,60.4684903457466
127,1436168889477,57.2517187977644
128,1436168890203,45.8829287461616
129,1436168890920,40.9083608695808
130,1436168891651,50.5098102599918
131,1436168892382,55.2693264659396
132,1436168893109,54.5713101377391
133,1436168893794,55.7262698571304
134,1436168894524,50.5305837804185
135,1436168895264,51.0883637539302
136,1436168896004,50.4026999951955
137,1436168896695,45.8826221706023
138,1436168897288,55.5089292167988
139,1436168897956,49.5074447377992
140,1436168898747,45.4610443756463
141,1436168899481,44.2068613258794
142,1436168900220,45.5669533528076
143,1436168900965,44.7473606280753
144,1436168901683,49.5432233646812
145,1436168902437,47.1359638085542
146,1436168903165,43.6189899598613
147,1436168903857,60.2093790046343
148,1436168904515,48.5253734664842
149,1436168905212,42.7545997894697
150,1436168905980,46.0126575781383
151,1436168906705,52.494586380672
152,1436168907437,48.3734616010737
153,1436168908155,47.8093846935047
154,1436168908856,50.5815638597297
155,1436168909523,47.1220526860947
156,1436168910237,43.540912738437
157,1436168910943,56.6833468067762
158,1436168911670,58.5024744286441
159,1436168912391,58.8692521548761
160,1436168913142,50.6430861139347
161,1436168913857,51.0614455261418
162,1436168914500,47.8796642738841
163,1436168915229,48.9016525598038
164,1436168915982,46.2530905504327
165,1436168916703,48.0616247374181
166,1436168917408,49.6898092175361
167,1436168918051,54.1425032973975
168,1436168918792,44.6539617656436
169,1436168919527,48.4350343198539
170,1436168920291,46.4692101828455
171,1436168921032,42.329906922902
172,1436168921772,52.8245106539719
173,1436168922508,50.6015733543431
174,1436168923246,57.6646733350019
175,1436168923993,55.7393384325609
176,1436168924654,61.0318608255384
177,1436168925391,58.5067178784144
178,1436168926122,50.152356971327
179,1436168926856,40.7366721664417
180,1436168927578,44.1908574769657
181,1436168928311,54.9615620433418
182,1436168929097,43.0956899724231
183,1436168929781,50.1840828933551
184,1436168930515,53.6429186866916
185,1436168931241,61.5308164086871
186,1436168931960,58.1401329099608
187,1436168932657,45.4239285646374
188,1436168933372,55.3866194948682
189,1436168934096,49.1537425955574
190,1436168935139,53.7500363420999
191,1436168935728,53.2687166869704
192,1436168936406,51.631718291035
193,1436168937114,52.0189065443495
194,1436168937784,62.0315711674503
195,1436168938436,60.6738777145099
196,1436168939147,51.9771017576242
197,1436168939880,52.4332730845247
198,1436168940611,52.7618683464119
199,1436168941350,52.6124156937297
200,1436168942082,59.0675026902684
201,1436168942812,60.5621816028447
202,1436168943544,60.3649581331832
203,1436168944248,53.4733090448277
204,1436168944919,57.1878378199173
205,1436168945660,57.48548325717
206,1436168946376,58.0847740998652
207,1436168947125,65.1551822385959
208,1436168947867,58.0807284130216
209,1436168948703,49.7536972556649
210,1436168949441,58.2475189545991
211,1436168950215,59.495360034406
212,1436168950939,56.3543583673639
213,1436168951666,58.1252223870019
214,1436168952362,55.128789657497
215,1436168953159,54.1725146066316
216,1436168953889,45.089779432357
217,1436168954581,50.515487301205
218,1436168955256,59.3765880874322
219,1436168956023,61.7515980271972
220,1436168956752,60.090603291948
221,1436168957433,52.0207535812914
222,1436168958009,62.3640570695151
223,1436168958707,55.7239710236258
224,1436168959407,41.6291166159584
225,1436168960127,49.3541297801715
226,1436168960862,53.8351897248055
227,1436168961596,50.5242231326087
228,1436168962337,60.3351391200175
229,1436168963054,54.3565107344958
230,1436168963859,57.4590507245978
231,1436168964582,59.0956239311319
232,1436168965282,54.8716361955056
233,1436168965982,39.2423519500962
234,1436168966723,51.8577165732217
235,1436168967461,54.1943039294393
236,1436168968229,63.3506383018768
237,1436168970112,49.7653649099207
238,1436168970772,63.3005730870031
239,1436168971472,50.7098687771949
240,1436168972180,57.3142080513205
241,1436168972898,54.9843353923064
242,1436168973627,54.409294878288
243,1436168974352,59.801158991897
244,1436168975086,53.8736721431079
245,1436168975728,50.8908824910381
246,1436168976452,41.0697482153812
247,1436168977205,49.6587540683798
248,1436168978013,49.4572990956566
249,1436168978792,50.3213437730132
250,1436168979527,42.1507084138134
251,1436168980247,53.8595578538048
252,1436168981027,52.1516970688007
253,1436168981788,47.1068304592333
254,1436168982495,47.798231130613
255,1436168983186,59.7370296999811
256,1436168983849,51.3581982811516
257,1436168984575,48.9927156775904
258,1436168985257,53.029372970318
259,1436168985920,59.1229841651024
260,1436168986652,54.2531557276934
261,1436168987386,59.6141221986513
262,1436168988116,46.0214424488872
263,1436168988921,51.7928479970795
264,1436168989647,38.9327065280201
265,1436168990368,56.0204823913947
266,1436168991126,49.6598058975118
267,1436168991854,49.0130245751891
268,1436168992511,58.1463731421511
269,1436168994041,58.6830892249178
270,1436168994770,50.9276297038914
271,1436168995499,49.079738246723
272,1436168996234,50.3113718852655
273,1436168997003,54.7981965812046
274,1436168997644,61.9342961069264
275,1436168998306,56.286600820432
276,1436168999042,55.3265725168635
277,1436168999762,45.6124434577259
278,1436169000554,43.226419146266
279,1436169001269,59.7092430413
280,1436169001995,51.2105932563821
281,1436169002715,52.8041603543704
282,1436169003449,58.6889019688589
283,1436169004240,58.7671727158256
284,1436169004970,57.7529145094266
285,1436169005694,49.9116691211873
286,1436169006419,48.3630240376364
287,1436169007114,60.9571443904676
288,1436169007817,59.9987547695021
289,1436169008559,55.1523923917663
290,1436169009404,59.4651721891175
291,1436169010134,56.5052905483571
292,1436169010864,59.9138154670264
293,1436169011595,57.9625591093992
294,1436169012332,57.5036579063062
295,1436169013082,57.7554103771232
296,1436169013665,54.8856142749634
297,1436169014385,52.108432894618
298,1436169015120,61.9314304980891
299,1436169015853,60.0282216977874
300,1436169016596,58.4212180964857
301,1436169017277,52.4375148970155
302,1436169017927,51.2396210907278
303,1436169018591,61.0007909803576
304,1436169019383,54.1768249873781
305,1436169020130,56.1848740367747
306,1436169020868,61.5622175412694
307,1436169021614,53.4785927932757
308,1436169022364,51.4650573115609
309,1436169023113,54.5821049346909
310,1436169023772,49.673325707494
311,1436169024455,52.0310991722429
312,1436169025114,60.618168970936
313,1436169025850,48.0301969439801
314,1436169026592,44.4630068937784
315,1436169027316,54.3001471382612
316,1436169028004,62.3267024487308
317,1436169028676,58.0326356695247
318,1436169029415,62.1855475545951
319,1436169030135,50.425684244689
320,1436169032168,67.4507482889712
321,1436169032960,60.7748902580355
322,1436169033713,64.6491210803236
323,1436169034390,49.1584092406374
324,1436169035108,50.3998525595505
325,1436169035820,61.3558366315301
326,1436169036524,56.7997284769714
327,1436169037255,60.0507926699093
328,1436169037980,57.8074200094164
329,1436169038589,53.1542599456284
330,1436169039261,65.4005191019604
331,1436169040010,58.0308155811539
332,1436169040731,48.5134246732305
333,1436169041460,45.4960822864541
334,1436169042195,53.6148988648817
335,1436169042982,54.305484387355
336,1436169043738,56.9024993545803
337,1436169044466,56.8399509095092
338,1436169045185,56.9289829679022
339,1436169045903,57.4393656082228
340,1436169046641,55.5130709220801
341,1436169047382,53.807842478915
342,1436169048166,46.7776460398852
343,1436169048906,43.1442253316332
344,1436169049634,45.65680428508
345,1436169050347,46.3500388497663
346,1436169050988,64.9216827920904
347,1436169051735,52.151767441159
348,1436169053482,54.2876863993806
349,1436169054212,45.308625160746
350,1436169054872,63.5982022314709
351,1436169055596,52.8039696541305
352,1436169056328,45.9394212949606
353,1436169057051,58.630826359032
354,1436169057788,55.403891328701
355,1436169058522,58.5265818283816
356,1436169059256,63.7181613038965
357,1436169059995,61.0253984485113
358,1436169060714,52.6756133207053
359,1436169061406,49.2730976751514
360,1436169062106,56.4081711698971
361,1436169062857,47.9018260829013
362,1436169063577,48.3236533850142
363,1436169064324,60.8279384473634
364,1436169065070,58.7021814330078
365,1436169065804,49.651839195201
366,1436169066501,49.9792186066254
367,1436169067237,56.9328319593841
368,1436169067975,56.3883672313907
369,1436169068735,62.7373728485616
370,1436169069527,48.6761173340704
371,1436169070268,59.609822453131
372,1436169071019,63.1886472141006
373,1436169071689,53.9079068102264
374,1436169072411,45.3052959818274
375,1436169073211,35.9003264467806
376,1436169073961,47.4040025322796
377,1436169074667,50.1241761777777
378,1436169075398,54.6369443770015
379,1436169076132,48.3344449642552
380,1436169076881,61.271978773139
381,1436169077615,55.2654816103846
382,1436169078311,51.2271517033237
383,1436169078988,62.2275399668461
384,1436169079697,61.5066534670403
385,1436169080430,61.423842484179
386,1436169081180,61.848808839711
387,1436169081915,53.961466097956
388,1436169082661,53.0344936005122
389,1436169083394,48.9032746780303
390,1436169084131,41.8745517218226
391,1436169084900,42.2885601814507
392,1436169085646,41.7513486557816
393,1436169086390,47.4821713644877
394,1436169087142,53.0647353343658
395,1436169087861,57.409632110906
396,1436169088633,54.6781389364676
397,1436169089374,63.4543138461547
398,1436169090115,64.2991468231206
399,1436169090841,50.3982380926291
400,1436169091582,44.0516333026489
401,1436169092276,52.6616951168081
402,1436169092998,55.6300954997462
403,1436169093715,60.7536520033548
404,1436169094465,56.7179205929704
405,1436169095200,60.8310568855058
406,1436169095986,62.9024344722315
407,1436169096719,63.6900424191043
408,1436169097457,49.0311626005994
409,1436169098204,53.9334946266978
410,1436169098815,48.0912997956613
411,1436169099524,59.7479081222464
412,1436169100202,63.3056040873473
413,1436169100786,51.4193190151907
414,1436169101467,60.2208702472416
415,1436169102167,58.1912481237205
416,1436169102798,41.5217951136639
417,1436169103491,55.2126312623957
418,1436169104175,52.8147315650918
419,1436169104832,51.878398266611
420,1436169105560,49.1044154192577
421,1436169106252,44.8533544375766
422,1436169106914,60.8821356659965
423,1436169107648,61.0236545363068
424,1436169108420,62.1956242698448
425,1436169109209,59.0751058326898
426,1436169109955,60.1779520282769
427,1436169110678,58.9779489319834
428,1436169111435,55.7389249168382
429,1436169112156,57.1112636502632
430,1436169112811,45.8293352049687
431,1436169113545,56.6345821653607
432,1436169114289,49.1587372392705
433,1436169115033,55.9761345153474
434,1436169115781,54.5697141602294
435,1436169116507,65.6133821389433
436,1436169117232,59.4686377370088
437,1436169117981,54.9800900202682
438,1436169118717,54.9259464233208
439,1436169119446,51.0962004040088
440,1436169120159,55.2422481287257
441,1436169120899,62.3400632295148
442,1436169121631,43.6953987921956
443,1436169122389,60.8504580049191
444,1436169123126,57.9232987465765
445,1436169123835,57.1854233643889
446,1436169124493,64.2152727068476
447,1436169125192,48.7669308253946
448,1436169125962,49.899240677472
449,1436169126695,41.8090619487164
450,1436169127417,53.9257264013734
451,1436169128158,53.7949449559333
452,1436169128979,42.409379740373
453,1436169129591,66.175188887025
454,1436169130308,59.1721524018571
455,1436169131035,53.427948085562
456,1436169131776,45.7524969118852
457,1436169132501,54.3591769411957
458,1436169133235,51.3581543486132
459,1436169133897,60.7661877388497
460,1436169134551,49.127577234669
461,1436169135238,44.490288306889
462,1436169135920,53.9338627173381
463,1436169136634,57.5985447501928
464,1436169137355,57.6627521096012
465,1436169138142,64.6532295987765
466,1436169138861,55.5666460858531
467,1436169139477,55.0264978076803
468,1436169140197,61.0542192336481
469,1436169140939,63.2104798099956
470,1436169141669,63.3079097304092
471,1436169142383,55.6192359210625
472,1436169143122,48.7084349634905
473,1436169143888,46.9850373511902
474,1436169144620,46.6046973827961
475,1436169145305,55.5285530871363
476,1436169145999,55.2797505727058
477,1436169146730,63.1893430137185
478,1436169147455,55.3461781599786
479,1436169148180,48.1326860131983
480,1436169148931,45.8717814609972
481,1436169149653,50.1728612597491
482,1436169150388,55.5990480807811
483,1436169151146,52.8892534484075
484,1436169151825,62.148453278172
485,1436169152560,57.7966489405783
486,1436169153291,54.3258755171302
487,1436169154036,51.1229059113079
488,1436169154760,46.9602040731597
489,1436169155508,45.5059888267827
490,1436169156210,57.0579396230225
491,1436169156869,56.7023417750626
492,1436169157582,65.5454655682388
493,1436169158319,51.8138212287434
494,1436169159060,55.7954200607765
495,1436169159715,50.5930834924147
496,1436169160452,59.1871906136117
497,1436169161172,56.4506267985355
498,1436169161888,65.4700199959053
499,1436169162562,63.6981361980446
500,1436169163306,48.1864486135287
501,1436169164038,42.6213764973325
502,1436169164755,55.0316931832387
503,1436169165492,50.4394000627255
504,1436169166238,54.7013262946118
505,1436169166970,58.039909437981
506,1436169167689,62.0808523884852
507,1436169168381,52.6042565497471
508,1436169169062,45.1684346491563
509,1436169169824,60.0014879197183
510,1436169170544,52.543513960548
511,1436169171280,59.8069476049929
512,1436169172048,64.1942795805145
513,1436169172710,61.2551767417462
514,1436169174074,55.1040591454475
515,1436169174800,54.1606144749134
516,1436169175534,55.1680392828999
517,1436169176288,60.9940122233402
518,1436169177020,59.9578739054041
519,1436169177755,55.2275895176495
520,1436169178489,49.8117594579962
521,1436169179183,44.7111383406297
522,1436169179820,61.6176501925901
523,1436169180536,58.1382490943916
524,1436169181301,59.0292595977545
525,1436169182045,55.4997779033251
526,1436169182746,51.1331902892838
527,1436169183425,50.9003263099069
528,1436169184108,51.6457807788236
529,1436169184817,58.7270509392362
530,1436169185492,52.070417328542
531,1436169186205,48.1755463243174
532,1436169186878,62.946442959012
533,1436169187609,66.4342368482267
534,1436169188351,65.6907798911192
535,1436169189111,60.8147663694654
536,1436169189823,63.4824256116407
537,1436169190550,55.2050935417454
538,1436169191286,51.0812019183904
539,1436169192034,66.6054007905606
540,1436169192770,46.8913984813847
541,1436169193496,43.638987073106
542,1436169194227,40.2185694451887
543,1436169194995,42.4237682682855
544,1436169195710,39.7007971163907
545,1436169196468,51.1194016446618
546,1436169197142,45.8642667456864
547,1436169197870,51.923856527012
548,1436169198612,49.787113015845
549,1436169199294,54.084917343342
550,1436169199909,56.5585789196762
551,1436169200566,52.5904797804443
552,1436169202177,59.1349927658981
553,1436169202835,45.6877241769443
554,1436169203557,50.7448408758245
555,1436169204288,59.3337581511537
556,1436169205060,57.4035920707951
557,1436169205799,50.7997487581005
558,1436169206521,55.7833400544464
559,1436169207219,56.074303378183
560,1436169207892,49.8131998669904
561,1436169208708,66.2894488634312
562,1436169209447,53.2938683311075
563,1436169210179,46.48079622408
564,1436169210896,42.3081173628859
565,1436169211536,50.1765921133817
566,1436169212221,55.0464869743531
567,1436169213012,60.5760219627871
568,1436169213748,54.0073899258374
569,1436169214471,48.233875313222
570,1436169215194,39.8482545552807
571,1436169215969,53.7420543668524
572,1436169216711,46.779368585327
573,1436169217401,54.9304250714405
574,1436169218125,65.3659481297182
575,1436169218857,62.6989730341368
576,1436169219548,46.236300170232
