id,attr_time,attr_db
1,1436168796469,8.10086023353638
2,1436168796838,10.2551026646083
3,1436168797294,13.0532791068484
4,1436168797762,19.9946417222715
5,1436168798251,24.9045450042354
6,1436168798737,14.3405475222593
7,1436168799224,17.4630490637028
8,1436168799721,27.1584877882705
9,1436168800224,51.8391787636383
10,1436168800740,62.3484825434921
11,1436168801266,54.1574193915691
12,1436168801737,63.2572851105206
13,1436168802208,54.0643187940746
14,1436168802634,53.5023855223034
15,1436168803089,38.7733352329551
16,1436168803565,64.5120668862203
17,1436168804048,56.1618462463704
18,1436168804570,38.0278068009993
19,1436168805058,65.1745007219567
20,1436168805548,60.0560976993201
21,1436168806075,42.6672196431771
22,1436168806540,58.9799631509755
23,1436168806927,62.0521514894679
24,1436168807351,60.7407971371415
25,1436168807808,57.3648415641475
26,1436168808289,70.052592060731
27,1436168808773,49.064920108754
28,1436168809277,62.8533058916867
29,1436168809749,60.0935948712974
30,1436168810232,55.6198254333011
31,1436168810730,62.9320976308255
32,1436168811237,63.792769638803
33,1436168811723,62.7798646066472
34,1436168812222,62.6152620972628
35,1436168812697,39.2305814444909
36,1436168813195,51.9490101911733
37,1436168813689,62.7637751277125
38,1436168814195,52.3619439993272
39,1436168814696,61.8753225896686
40,1436168815187,51.4154768658782
41,1436168815714,39.1164613999867
42,1436168816218,51.0226959752322
43,1436168816677,55.6829052036897
44,1436168817197,66.0073512144387
45,1436168817701,59.2215146874679
46,1436168818205,62.4273098197024
47,1436168818695,38.7164201815482
48,1436168819189,60.2965157605115
49,1436168819653,61.8049095563052
50,1436168820140,36.9350866352264
51,1436168820536,43.6121931212024
52,1436168821046,62.253281614748
53,1436168821429,42.3325532991242
54,1436168821838,54.3218964074709
55,1436168822314,60.0613714941368
56,1436168822726,62.4005132985676
57,1436168823058,51.4779786377518
58,1436168823491,62.0887050048104
59,1436168823944,41.5897460340645
60,1436168824462,64.1780281184632
61,1436168824944,57.8216776703237
62,1436168825435,46.0776205978521
63,1436168825916,49.8437071715783
64,1436168826509,55.5843131534599
65,1436168826999,46.7945332119633
66,1436168827541,67.2003809369383
67,1436168828017,55.7501624868935
68,1436168828538,45.0090695694651
69,1436168829007,65.6252179968922
70,1436168829515,60.0938908453775
71,1436168830001,50.0988583498829
72,1436168830531,67.227782578246
73,1436168831016,58.834418999873
74,1436168831604,65.2145016477122
75,1436168832090,69.8132443901112
76,1436168832582,62.2093846262414
77,1436168833061,45.3935861637426
78,1436168833567,65.9582549326663
79,1436168834048,61.0502241188707
80,1436168834555,46.2954211964321
81,1436168835046,61.1431651340516
82,1436168835546,59.3643870434151
83,1436168836011,49.662816738827
84,1436168836586,62.6815316306117
85,1436168837056,54.5313714787525
86,1436168837544,53.1370764389494
87,1436168838027,55.9398149070667
88,1436168838507,68.5874198403683
89,1436168838975,50.4060921655495
90,1436168839404,62.4369350554007
91,1436168839848,55.73285852001
92,1436168840339,54.2465036203623
93,1436168840852,66.3700897469195
94,1436168841261,55.8430824362411
95,1436168841654,52.5790323513649
96,1436168842155,43.7881236337409
97,1436168842632,64.1825416518421
98,1436168843124,57.6539897247353
99,1436168843613,46.4098846298964
100,1436168844140,61.4255813906777
101,1436168844608,56.1150068014963
102,1436168845050,55.4667235029783
103,1436168845528,66.6364177544991
104,1436168846021,64.5960835214971
105,1436168846494,58.1072070635268
106,1436168846977,60.0709152638695
107,1436168847477,40.995695644071
108,1436168847976,66.9212959055756
109,1436168848459,53.6626677246994
110,1436168848956,43.1285679770607
111,1436168849447,55.6051543961703
112,1436168849943,62.6892058357017
113,1436168850433,50.6098439990399
114,1436168851187,51.9348139055576
115,1436168851574,61.7654512751116
116,1436168851899,59.8133542699193
117,1436168852347,67.3437936978055
118,1436168852802,43.0187802542076
119,1436168853271,59.1580913348804
120,1436168853758,65.7444945295177
121,1436168854253,48.8286832427165
122,1436168854744,58.7749692300711
123,1436168855246,64.6351848254457
124,1436168855740,53.7910297291216
125,1436168856235,62.8096926190632
126,1436168856798,67.092788563619
127,1436168857288,52.7972803017422
128,1436168857753,60.1921165972004
129,1436168858261,65.4302308594393
130,1436168858759,63.9419756740535
131,1436168859257,56.5009426620559
132,1436168859736,45.6347987326317
133,1436168860208,62.7576447726421
134,1436168860704,45.952555234954
135,1436168861192,51.3844884830566
136,1436168861702,62.3401339922471
137,1436168862152,63.8122323401491
138,1436168862590,59.6091084279103
139,1436168863060,59.9249631732546
140,1436168863545,37.3614064535227
141,1436168864038,64.3286155660538
142,1436168864503,60.9292519727025
143,1436168865009,42.7810198043971
144,1436168865487,46.636981446335
145,1436168865990,65.7141062238148
146,1436168866529,56.602236787575
147,1436168867014,48.838428526714
148,1436168867494,66.0891019170436
149,1436168867968,51.0534005816058
150,1436168868381,59.8238353087843
151,1436168868823,44.8953347937065
152,1436168869280,43.7734279493947
153,1436168869757,66.4801788973
154,1436168870253,51.219000160604
155,1436168870752,59.983403787765
156,1436168871238,58.8676112177621
157,1436168871793,47.0671577252919
158,1436168872299,58.535137713922
159,1436168872788,60.9146002835552
160,1436168873248,60.8559696256098
161,1436168873691,57.6081933519912
162,1436168874146,46.828418280413
163,1436168874621,46.8268760002513
164,1436168875102,66.860595439318
165,1436168875475,67.641603073083
166,1436168875905,59.8038596766702
167,1436168877272,45.7600286697265
168,1436168877669,69.5189132485083
169,1436168878145,72.8697125070053
170,1436168878614,60.4286102559326
171,1436168879093,60.7997296474263
172,1436168879570,44.7223233016787
173,1436168880070,69.3688067335901
174,1436168880596,59.4330121511535
175,1436168881100,44.8632936520912
176,1436168881619,61.6689932837422
177,1436168881971,63.5361412706555
178,1436168882424,62.7211325115073
179,1436168882910,54.4407216387196
180,1436168883417,44.0400341861385
181,1436168883831,45.7491353390282
182,1436168884280,70.455140242168
183,1436168884754,61.797717016338
184,1436168885244,62.3863401406976
185,1436168885733,47.4618551942296
186,1436168886215,65.3375253749416
187,1436168886714,55.0867603383287
188,1436168887264,46.7498548643123
189,1436168887758,64.5354905760632
190,1436168888234,57.7304924905365
191,1436168888719,47.310603216117
192,1436168889222,49.7621548440433
193,1436168889716,65.1148500387165
194,1436168890193,49.4941083363269
195,1436168890717,60.9168855556779
196,1436168891199,67.882858534078
197,1436168891678,54.2259965002322
198,1436168892155,65.032326305636
199,1436168892645,42.1949048445535
200,1436168893131,69.149849421957
201,1436168893584,54.6718434717841
202,1436168894024,47.4467005829009
203,1436168894447,60.8990920582213
204,1436168894952,59.9604528641466
205,1436168895437,70.1284964969531
206,1436168895938,59.0610382584106
207,1436168896423,44.7936001124883
208,1436168896965,67.5217419463068
209,1436168897358,64.1716093264943
210,1436168897770,60.4237043262528
211,1436168898227,60.0741160489934
212,1436168898702,48.0442626985707
213,1436168899190,52.5017660200949
214,1436168899683,64.6947330477088
215,1436168900163,49.0204749315633
216,1436168900643,62.3439566274902
217,1436168901148,63.583588973647
218,1436168902599,47.7258306057694
219,1436168903075,52.9320666351514
220,1436168903569,62.4633464168656
221,1436168904067,49.0679311121984
222,1436168904575,56.4543419293476
223,1436168905059,66.6609878003181
224,1436168905490,65.5928065163944
225,1436168905878,58.2969964441508
226,1436168906338,52.0637882751964
227,1436168906826,56.8146394459164
228,1436168907323,43.6307774482684
229,1436168907800,66.4544585891501
230,1436168908285,48.2263008200671
231,1436168908770,44.9600608987372
232,1436168909266,53.569232520054
233,1436168909757,64.5601593197327
234,1436168910259,50.5442957942509
235,1436168910745,61.6848568221606
236,1436168911306,43.2097287997597
237,1436168911822,45.6672010749721
238,1436168912312,42.4332704143473
239,1436168912829,67.5000888440074
240,1436168913303,54.326739739482
241,1436168913795,63.6079015251105
242,1436168914273,43.1101935488519
243,1436168914758,63.0499799024215
244,1436168915255,58.2306876782603
245,1436168915748,54.1125176740863
246,1436168916254,64.2930475926642
247,1436168916735,60.4268932419238
248,1436168917218,59.555948242115
249,1436168917735,50.9402233222694
250,1436168918177,67.6401268109094
251,1436168918620,66.51424847684
252,1436168919116,58.028735962014
253,1436168919597,47.20931576381
254,1436168920083,48.8743297448963
255,1436168920548,67.3478711884052
256,1436168921040,48.0230854828657
257,1436168921441,64.3417203292841
258,1436168921858,44.452040210435
259,1436168922305,54.6904708073348
260,1436168922802,63.3987673524001
261,1436168923288,60.6155265768006
262,1436168923752,61.5724334556474
263,1436168924244,46.6203759133937
264,1436168924744,68.1092852095818
265,1436168925248,61.2270973915232
266,1436168925751,48.5042434833728
267,1436168926227,45.273990214131
268,1436168926725,68.12582574799
269,1436168927215,51.380296560925
270,1436168927683,55.6659074182433
271,1436168928063,44.7432560233458
272,1436168928484,57.2458750158001
273,1436168928940,70.0680321398661
274,1436168929430,70.524477050337
275,1436168929896,58.0723560565052
276,1436168930375,47.562039489083
277,1436168930846,52.9812381806008
278,1436168931317,69.9816296659638
279,1436168931789,57.845516291098
280,1436168932290,63.8337753663961
281,1436168932741,46.9368242411621
282,1436168933208,62.359373547164
283,1436168933683,66.3078337014456
284,1436168934182,43.2162814895939
285,1436168934663,58.0985227654531
286,1436168935152,65.8535788136049
287,1436168935634,46.6826232839677
288,1436168936114,63.3848822771092
289,1436168936656,41.7090916293506
290,1436168937146,67.2717359564761
291,1436168937633,52.6777422905902
292,1436168939529,52.8855535610099
293,1436168940027,64.7543342497077
294,1436168940505,48.3760846448639
295,1436168940986,66.9545395522612
296,1436168941504,57.3994683603495
297,1436168942095,67.3771962417715
298,1436168942452,69.1408660211854
299,1436168942883,69.8719745848243
300,1436168943365,55.8639047948327
301,1436168943848,62.4228144204168
302,1436168944324,46.455596512902
303,1436168944833,67.9574589350706
304,1436168945335,56.0975682976196
305,1436168945853,45.2220929837763
306,1436168946362,64.4272166672736
307,1436168946856,59.382176516087
308,1436168947336,48.71306369574
309,1436168947834,50.3729497052605
310,1436168948330,66.2396582734602
311,1436168948815,50.6584120299853
312,1436168949262,62.2595072136542
313,1436168949700,44.4870404444223
314,1436168950180,45.5725635866548
315,1436168950664,69.5911435473454
316,1436168951170,53.074103019108
317,1436168951724,43.6092105904265
318,1436168952214,71.9258860154938
319,1436168952703,50.8188099113852
320,1436168953203,59.3901365589532
321,1436168953658,45.889687361107
322,1436168954103,62.3073456273121
323,1436168954564,67.6048265542377
324,1436168955039,57.7760625282075
325,1436168955482,59.9641651613319
326,1436168955903,45.7695130453681
327,1436168956373,59.2292636351538
328,1436168956846,69.9215274449885
329,1436168957374,55.6161376748804
330,1436168957856,63.4624087612243
331,1436168958345,55.2449346300673
332,1436168958830,66.1369876860838
333,1436168959252,62.5798005280862
334,1436168960767,65.8871631707853
335,1436168961202,61.372853901248
336,1436168961648,57.7584592345245
337,1436168962172,46.7082433343204
338,1436168962593,52.581897013558
339,1436168963014,43.6896110269503
340,1436168963473,65.9207921696243
341,1436168963940,62.7342908724039
342,1436168964409,56.0010817751937
343,1436168964882,63.9290672345058
344,1436168965365,62.0961527807918
345,1436168965879,62.4175488868354
346,1436168966421,61.3471210372155
347,1436168966905,38.7946640435754
348,1436168967394,68.9466485307023
349,1436168967868,60.6458617239198
350,1436168968359,45.9013111273302
351,1436168968854,51.2690455269241
352,1436168969328,65.2729725123176
353,1436168969774,48.8396691555216
354,1436168970201,63.3764685465162
355,1436168970658,45.3024061496557
356,1436168971141,56.1350729569345
357,1436168971656,68.6714360818069
358,1436168972162,53.9442174468554
359,1436168972659,65.2587346927893
360,1436168973139,50.6018268665982
361,1436168973610,67.3700127600612
362,1436168974091,61.7747840819576
363,1436168974575,45.1123305619917
364,1436168975068,49.6829919619474
365,1436168975582,64.4492393152988
366,1436168976045,49.8352127411834
367,1436168976544,63.9536280639744
368,1436168977052,67.739630675572
369,1436168977461,72.448889648679
370,1436168977913,60.5726857487646
371,1436168978399,42.5544753378871
372,1436168978904,51.3112511184391
373,1436168979375,67.767918374717
374,1436168979859,59.1606598443675
375,1436168980339,61.9626823993389
376,1436168980866,46.9367785121466
377,1436168981365,61.7224105855878
378,1436168981845,56.3781816357601
379,1436168982222,60.4465357986113
380,1436168982559,60.8305657179828
381,1436168983014,48.5543764887772
382,1436168983483,61.27775684006
383,1436168983963,57.0210509981529
384,1436168984422,68.6123697294162
385,1436168984872,59.5911579051244
386,1436168985340,52.9928453265097
387,1436168985838,61.1580671251298
388,1436168986303,60.7760036812881
389,1436168986784,67.7420393517419
390,1436168987255,60.5034412124267
391,1436168987744,47.4219242727197
392,1436168988237,44.2473235131404
393,1436168988729,61.3200660320359
394,1436168989216,59.9474408678156
395,1436168989685,55.0197945864218
396,1436168990167,43.8429454750472
397,1436168990702,69.5993443040302
398,1436168991185,62.0532399731416
399,1436168991667,40.9293562829478
400,1436168992083,47.0672730981718
401,1436168992522,54.2882552932727
402,1436168992996,63.0309571989441
403,1436168993489,59.5784825652365
404,1436168993977,45.5972477292585
405,1436168994458,47.0674674730888
406,1436168994956,64.7333082577236
407,1436168995436,58.6894992722214
408,1436168995975,58.1767205933328
409,1436168996456,64.6073080507514
410,1436168996935,51.6996988629977
411,1436168997418,64.6793131631935
412,1436168997849,49.7524883960206
413,1436168998344,54.6568374434339
414,1436168998842,69.6619330446933
415,1436168999328,49.7605416962203
416,1436168999815,57.6238329035424
417,1436169000304,40.3965331258782
418,1436169000778,67.7451096076779
419,1436169001265,61.9311450832617
420,1436169001746,53.5585797828885
421,1436169002236,52.3468482677148
422,1436169002757,52.0251056199595
423,1436169003121,51.6104996120878
424,1436169003498,66.9930627018372
425,1436169003966,57.1539325226996
426,1436169004438,66.1884765802384
427,1436169004912,38.3831236048251
428,1436169005383,64.3696132897645
429,1436169005874,52.7273739753373
430,1436169006371,56.8987024805202
431,1436169006829,65.9093952851015
432,1436169007279,41.3673825087356
433,1436169007702,63.5241539591662
434,1436169008174,68.6177365515827
435,1436169008652,56.5021966701397
436,1436169009148,64.1855275957144
437,1436169009629,40.9899887686138
438,1436169010126,65.9361745221358
439,1436169010616,57.1002129099756
440,1436169011097,45.4635443791196
441,1436169011580,53.9722811213136
442,1436169012079,67.963716088056
443,1436169012545,55.2388841816382
444,1436169012919,57.0587061572884
445,1436169013349,54.1583320659823
446,1436169013818,62.2706065429994
447,1436169014321,47.1149081133262
448,1436169014810,69.2051192636661
449,1436169015289,60.2925623147821
450,1436169015833,48.8565545790896
451,1436169016317,59.4262273185924
452,1436169016804,59.399713889689
453,1436169017333,51.6984558683192
454,1436169017813,39.7625163682788
455,1436169018315,67.6824857459466
456,1436169018794,48.7741103572088
457,1436169019273,61.4196453002419
458,1436169019786,51.8173229569183
459,1436169020287,61.2794540699314
460,1436169020784,64.3340552057934
461,1436169021353,63.3594181910412
462,1436169021830,55.5538231998445
463,1436169022327,61.3272915124951
464,1436169022803,45.1258845248389
465,1436169023288,65.055950157984
466,1436169023759,52.4509747390108
467,1436169024181,60.3832728608912
468,1436169024622,60.5447194420065
469,1436169025128,40.1415648343875
470,1436169025602,66.1746003958562
471,1436169026150,60.5002865861382
472,1436169026630,45.1430193007721
473,1436169027124,53.5570642501182
474,1436169027619,63.1686552768642
475,1436169028134,53.1317037237832
476,1436169028606,54.927442630124
477,1436169029080,69.5165738670245
478,1436169029491,69.1322885163233
479,1436169029895,59.6698494584474
480,1436169030276,60.8558314969592
481,1436169030747,53.316544635557
482,1436169031267,45.8792394280358
483,1436169031759,52.0844982673394
484,1436169032284,65.6318440163954
485,1436169032779,50.4031350539079
486,1436169033275,50.6702232128736
487,1436169033759,68.0981433259626
488,1436169034267,57.6433637992765
489,1436169034764,65.3174623966815
490,1436169035274,43.7912367619092
491,1436169035776,70.4186442767495
492,1436169036272,63.1557336723583
493,1436169036681,50.8026195952574
494,1436169037155,56.4086856398743
495,1436169037652,46.6782498399932
496,1436169038165,63.1089424647968
497,1436169038636,53.5591737003256
498,1436169039121,48.0143873387623
499,1436169039511,51.0300211939791
500,1436169039946,43.7411415794797
501,1436169040434,67.5469599896031
502,1436169040907,63.0678674968614
503,1436169041458,41.9138887295553
504,1436169041936,43.0359416832562
505,1436169042416,65.724797322244
506,1436169042899,57.7572930998528
507,1436169043367,62.2599715400423
508,1436169043857,45.9669405019652
509,1436169044351,66.1909400469653
510,1436169044838,57.0498317022121
511,1436169045308,46.963536941835
512,1436169045787,62.7919662055353
513,1436169046289,49.9921345508209
514,1436169046727,69.9363167981682
515,1436169047132,62.975139071399
516,1436169047574,60.1980494836099
517,1436169048052,58.5631938264749
518,1436169048548,44.2854935610127
519,1436169049044,67.080133025574
520,1436169049527,67.0016326280499
521,1436169050028,59.9749771615051
522,1436169050512,54.0696536825098
523,1436169051010,68.1647950090715
524,1436169051534,52.1294635197477
525,1436169051997,60.1976143736536
526,1436169052485,41.2714198361712
527,1436169052993,66.5759415427135
528,1436169053434,53.6051663750256
529,1436169053893,54.5754838174085
530,1436169054366,66.9245126293565
531,1436169054837,40.1052441404572
532,1436169055323,67.7860621118749
533,1436169055808,54.5177981219132
534,1436169056299,45.4534157714842
535,1436169056802,57.8450475566409
536,1436169057251,68.6235993159049
537,1436169057658,70.284078810024
538,1436169058110,71.1580890611455
539,1436169058569,61.0536016776256
540,1436169058998,63.1369313453531
541,1436169059417,47.5097757865118
542,1436169059915,40.9118816818192
543,1436169060443,67.9293589644243
544,1436169060908,60.1650047769138
545,1436169061398,65.5482175316821
546,1436169061890,39.470933428235
547,1436169062378,70.022905337045
548,1436169062868,61.4225118855084
549,1436169063404,36.0860473674907
550,1436169063771,57.7229739790109
551,1436169064160,42.9503512314642
552,1436169064525,62.9612707015631
553,1436169065016,38.7150229375672
554,1436169065509,66.4352189700896
555,1436169066002,61.7685429198388
556,1436169066585,42.3367711721584
557,1436169067072,66.0200368072708
558,1436169067569,54.8110853670444
559,1436169068066,46.1598294654754
560,1436169068543,52.2119555949411
561,1436169069025,65.9580410532347
562,1436169069516,58.1262729493152
563,1436169070013,63.3150970443655
564,1436169070486,42.4061465067761
565,1436169070958,63.3899956052741
566,1436169071342,68.4274680175395
567,1436169071757,69.4781506970583
568,1436169072202,66.6778003323827
569,1436169072709,43.2857394369618
570,1436169073198,58.8079526019502
571,1436169073672,41.4291727154876
572,1436169074169,65.8129620009353
573,1436169074650,57.6519330393097
574,1436169075117,43.7880251566244
575,1436169075558,60.0678454937742
576,1436169076022,54.1567410722565
