id,attr_time,attr_db
1,1436168797053,19.3367802183194
2,1436168797781,42.2096421298444
3,1436168798501,12.811244213017
4,1436168799202,30.8507570980983
5,1436168800640,49.632690427599
6,1436168801292,31.0704275632587
7,1436168802152,49.5022898375624
8,1436168802869,44.5286891616539
9,1436168803564,47.6949038449235
10,1436168804307,50.7099726712692
11,1436168805018,49.7753058074071
12,1436168805646,33.4826037884427
13,1436168806280,44.2383113800065
14,1436168806978,39.8310959180492
15,1436168807783,41.3568505460475
16,1436168808498,43.1080805219304
17,1436168809223,44.5607273589783
18,1436168809943,39.7641311397205
19,1436168810679,40.9813155439497
20,1436168811420,39.8241980782904
21,1436168812197,42.7040133985092
22,1436168812872,41.9759315558016
23,1436168813534,46.7611500165767
24,1436168814296,46.9210500720962
25,1436168815033,49.5494884307917
26,1436168815720,37.7916771116219
27,1436168816452,33.0512099408248
28,1436168817220,35.8863621216355
29,1436168817952,32.7852136405663
30,1436168818699,33.0275178945378
31,1436168819417,37.7288643367514
32,1436168820154,39.8397502954165
33,1436168820900,42.27208489093
34,1436168821653,42.560611213272
35,1436168822402,44.6426444803401
36,1436168823126,42.0796410055616
37,1436168823847,40.4863717139487
38,1436168825493,41.7564102387171
39,1436168826264,44.0268799404955
40,1436168827021,36.6747788336671
41,1436168827728,40.1996125628893
42,1436168828490,43.7007946811963
43,1436168829142,43.2464732252504
44,1436168829860,45.0840607955689
45,1436168830602,50.7525022914118
46,1436168831337,48.6363451338792
47,1436168832091,38.7655820671675
48,1436168832808,37.11382220003
49,1436168833487,35.0465699574549
50,1436168834219,35.3369985572795
51,1436168834957,40.1683843795622
52,1436168835650,42.5529279261931
53,1436168836278,45.9920445705828
54,1436168836994,37.4193934053588
55,1436168837744,37.7823319328097
56,1436168838446,38.7254049904397
57,1436168839174,38.488897904447
58,1436168839843,41.4509562801896
59,1436168840585,39.0352881649249
60,1436168841324,37.7171768667163
61,1436168842044,36.8835387734174
62,1436168842775,41.8820568834893
63,1436168843527,43.0102436240837
64,1436168844252,43.8442799037108
65,1436168844999,45.4344297914454
66,1436168845711,45.0321123800181
67,1436168846444,37.0660264463043
68,1436168847180,29.9123854208074
69,1436168847858,39.1420680353885
70,1436168848512,37.2476636059237
71,1436168849275,39.7821295637748
72,1436168849999,41.3895798145575
73,1436168850703,48.4406469658858
74,1436168851440,40.4213101848871
75,1436168852172,36.1027463199933
76,1436168852889,30.2583708736851
77,1436168853545,40.0047552293699
78,1436168854243,41.9219370796915
79,1436168854995,43.9162414072962
80,1436168855719,51.168426337479
81,1436168856456,49.8408208587452
82,1436168857196,40.5958982678068
83,1436168857958,40.3820776187057
84,1436168858721,45.6434232805317
85,1436168859374,35.7404305937039
86,1436168860101,40.608611388052
87,1436168860774,40.328195824336
88,1436168862287,35.9842541501455
89,1436168862968,50.819052951344
90,1436168863704,44.9196862814421
91,1436168864428,40.8047922386927
92,1436168865166,38.5533261644295
93,1436168865896,34.5721597795161
94,1436168866589,35.1593128812401
95,1436168867299,41.9825585822115
96,1436168868062,40.6427394316968
97,1436168868801,44.1034983181358
98,1436168869540,42.3421431323622
99,1436168870282,46.0120995842359
100,1436168870977,45.7986126528638
101,1436168871661,28.4312868598825
102,1436168872427,38.1440289977487
103,1436168873163,40.9041496009382
104,1436168873793,40.9926615414715
105,1436168874490,43.7666364571729
106,1436168875084,55.3844694016023
107,1436168875800,38.4014910684356
108,1436168876535,70.9967008280881
109,1436168877288,75.2372489987006
110,1436168878028,45.5097843832757
111,1436168878816,37.039827180452
112,1436168879541,46.6444367449438
113,1436168880258,40.6560283860173
114,1436168880899,45.1164360040937
115,1436168881628,40.3086210742011
116,1436168882328,37.5188744648471
117,1436168883995,49.1772206625155
118,1436168884634,36.8424048832859
119,1436168885373,37.4893891612415
120,1436168886105,43.0181760998182
121,1436168886828,42.103810050535
122,1436168887648,39.5137108180103
123,1436168888382,43.0148266526646
124,1436168889116,41.5186653822843
125,1436168889861,44.389517941681
126,1436168890577,40.2695532044937
127,1436168891207,39.3629432729175
128,1436168891906,35.343060027912
129,1436168892689,32.474743659472
130,1436168893532,48.4528900925283
131,1436168894137,43.6292033530872
132,1436168894825,41.2281018609169
133,1436168895556,42.7410330582309
134,1436168896304,53.518919335843
135,1436168897028,50.7136890997381
136,1436168897796,46.0189793247373
137,1436168898531,42.5025983501236
138,1436168899221,40.1233741535949
139,1436168899877,40.7523685173735
140,1436168900579,40.6885018388309
141,1436168901217,40.1904729665654
142,1436168901915,39.8716810256117
143,1436168902652,39.8713213889641
144,1436168903427,41.6971394258742
145,1436168904136,41.7793213731695
146,1436168904877,41.4633501105244
147,1436168905608,49.7747477387263
148,1436168906340,49.7433986710201
149,1436168907065,44.1357480054684
150,1436168907786,36.0280903883561
151,1436168908525,28.5863353268521
152,1436168909247,36.9145630734565
153,1436168909960,41.8111634859386
154,1436168910693,44.3104263392148
155,1436168911368,45.0661719163283
156,1436168912032,38.6822434368405
157,1436168912799,38.191721510561
158,1436168913494,36.4713005570022
159,1436168914168,43.5228674815791
160,1436168914836,50.4172391014895
161,1436168915556,39.326458112668
162,1436168916286,39.6728749849404
163,1436168917078,34.330630019311
164,1436168917822,33.7249810689463
165,1436168918551,33.2083564764481
166,1436168919258,40.0852426381974
167,1436168919991,40.7830779463101
168,1436168920723,40.7200645763741
169,1436168921488,40.2885020851039
170,1436168922283,42.0984744284904
171,1436168922985,45.7305257566405
172,1436168923709,46.8172733105431
173,1436168924451,54.5570888754969
174,1436168925145,40.6022230869906
175,1436168925897,41.1819804692158
176,1436168926627,34.5387279408961
177,1436168927368,43.1109708516344
178,1436168928120,39.7058515671698
179,1436168928849,41.0641683128921
180,1436168929560,38.915671483144
181,1436168930257,54.1701012145871
182,1436168930969,41.9349264760076
183,1436168931708,37.9701625764536
184,1436168932366,42.0469731031642
185,1436168933110,41.2921829152515
186,1436168933810,39.6166701154412
187,1436168934439,41.3383322294974
188,1436168935087,40.8428990486699
189,1436168935785,41.0919052999013
190,1436168936523,40.4689974509039
191,1436168937260,44.4786554748342
192,1436168938018,49.1306902858279
193,1436168938757,54.7669478121654
194,1436168939479,54.6193537628401
195,1436168940210,42.6618135135028
196,1436168940947,46.7197534414716
197,1436168941671,48.9377968081325
198,1436168942380,46.5919959423571
199,1436168943100,39.2641636930953
200,1436168943825,41.2892002910045
201,1436168944555,55.0214268315889
202,1436168945288,51.5131692008433
203,1436168946019,39.2910349271267
204,1436168946766,39.2957729309621
205,1436168947502,35.2403946515765
206,1436168948229,33.6718858075321
207,1436168948975,41.2942852988439
208,1436168949699,45.2690437484525
209,1436168950450,40.1368822767169
210,1436168951181,50.3697666947852
211,1436168951858,55.8404575844563
212,1436168952499,39.8449752869414
213,1436168953264,40.1796061320207
214,1436168954064,38.1313463999189
215,1436168954705,44.5566128653865
216,1436168955404,55.5231196400996
217,1436168956131,49.1074830357689
218,1436168956872,38.5807850720255
219,1436168957596,45.1330677001356
220,1436168958324,44.2301660071321
221,1436168959076,44.8512830175009
222,1436168959826,45.0118180061424
223,1436168960556,40.1801905780401
224,1436168961302,43.1803003497786
225,1436168962060,48.5351537724687
226,1436168962772,53.7604602002283
227,1436168963469,37.7874556777483
228,1436168964219,35.478526827412
229,1436168964959,39.1375201489453
230,1436168965715,40.3746316161006
231,1436168966465,42.7276146207718
232,1436168967237,43.5235073990004
233,1436168967959,41.1455669250291
234,1436168968694,41.7523466609769
235,1436168969431,45.7300604186065
236,1436168970185,51.9523923654554
237,1436168970923,41.2484220228133
238,1436168971647,40.0905988097295
239,1436168972320,42.5877718777739
240,1436168972982,46.9684247905749
241,1436168973745,43.6354883972043
242,1436168974524,43.27566378451
243,1436168975114,39.2525067600755
244,1436168975768,43.6936191000903
245,1436168976491,42.976206091359
246,1436168977297,43.0343601000868
247,1436168978035,40.3455823182501
248,1436168978770,43.94576714689
249,1436168979534,48.9663494698535
250,1436168980258,51.5726072803449
251,1436168980995,42.7783895597396
252,1436168981736,43.0381033311718
253,1436168982450,40.6664849943651
254,1436168983135,43.2165219966343
255,1436168983853,41.6679659107763
256,1436168984591,39.6767511817509
257,1436168985352,41.4270779499232
258,1436168986046,50.3912429332629
259,1436168986652,34.3308115564073
260,1436168987327,42.6996933625905
261,1436168988087,45.3200826414945
262,1436168988826,51.8429039595677
263,1436168989550,45.3363864805476
264,1436168990307,42.0977136643307
265,1436168991039,42.0076102667286
266,1436168991809,40.1169920331981
267,1436168992552,30.3025524782722
268,1436168993246,39.4327621618559
269,1436168993978,41.8951602531968
270,1436168994719,38.810319292148
271,1436168995471,36.1474140705047
272,1436168996141,38.9129097594255
273,1436168996880,39.9436476609409
274,1436168997604,35.0940458661416
275,1436168998319,41.2750438526422
276,1436168999073,47.3224539466464
277,1436168999825,40.0463531316446
278,1436169000556,41.7100524821215
279,1436169001275,49.5612770832936
280,1436169002011,45.5956629475367
281,1436169002739,52.7459310263768
282,1436169003374,45.0498091813925
283,1436169004950,31.8163341442168
284,1436169005644,33.7725718116532
285,1436169006411,33.7948223944537
286,1436169007091,52.6783165669345
287,1436169007827,41.3955097455762
288,1436169008594,38.7559227130743
289,1436169009379,44.9071996294936
290,1436169010114,27.8173329202447
291,1436169010865,34.537847734488
292,1436169011600,41.0288636687222
293,1436169012330,40.9368546914665
294,1436169013059,37.6475115008927
295,1436169013718,50.718908459627
296,1436169014419,33.7834822425606
297,1436169015120,31.7102446898623
298,1436169015735,44.9268886170578
299,1436169016446,47.9851105843741
300,1436169017175,39.3395549286294
301,1436169017903,44.2213516775968
302,1436169018637,34.4153789183233
303,1436169019376,31.6148389879248
304,1436169020124,42.5453464952408
305,1436169020848,42.5122638560308
306,1436169021617,41.3492167239147
307,1436169022343,42.1297535629003
308,1436169023048,44.1703820772172
309,1436169023688,37.9794576959786
310,1436169024393,44.2930406912555
311,1436169025133,42.2974048404001
312,1436169025866,40.1999641358952
313,1436169026581,36.9807962213326
314,1436169027240,43.8221660537128
315,1436169028009,41.118826212375
316,1436169028731,36.7878903875785
317,1436169029463,36.5592665639124
318,1436169030195,39.053805311224
319,1436169030915,41.5100939051909
320,1436169031641,42.2044350401711
321,1436169032359,39.9042117907649
322,1436169034013,44.1279817884173
323,1436169034712,41.8307121183039
324,1436169035516,43.0970367481291
325,1436169036168,43.0526110232676
326,1436169036915,34.9484129075312
327,1436169037688,39.6524909650668
328,1436169038421,34.676224475471
329,1436169039141,39.5944142667554
330,1436169039838,43.9195227106656
331,1436169040599,42.600755457394
332,1436169041332,43.8129621404594
333,1436169042069,44.1488600466787
334,1436169042808,38.0988424376731
335,1436169043516,42.8691557771633
336,1436169044312,43.736379136244
337,1436169044950,41.4491898642409
338,1436169045652,44.4640126007994
339,1436169046395,45.9230311262483
340,1436169047119,36.4632659531722
341,1436169047847,36.3336240786651
342,1436169048550,43.9589873372768
343,1436169049271,38.4837079192799
344,1436169049987,41.8977677669066
345,1436169050754,47.5903642217568
346,1436169051483,40.6026083525637
347,1436169052210,29.0278366528996
348,1436169052942,41.189687420711
349,1436169053685,40.7319288439486
350,1436169054438,40.6804573833279
351,1436169055191,45.1799364059501
352,1436169055866,42.8371754491473
353,1436169056579,41.6470343623903
354,1436169057321,45.5626491880473
355,1436169058042,35.6465202827203
356,1436169058769,34.231993358901
357,1436169059503,40.5948246517407
358,1436169060220,37.4540649194861
359,1436169060957,43.1739843797105
360,1436169061697,42.6568272041366
361,1436169062436,41.5080112687231
362,1436169063176,30.2621259664904
363,1436169063913,42.260661509193
364,1436169064643,37.239804821857
365,1436169065353,42.6712919715589
366,1436169066030,51.1962092218663
367,1436169066812,41.7870169115717
368,1436169067529,38.8152456698206
369,1436169068220,42.4506901970802
370,1436169068871,36.2423619338726
371,1436169069616,43.0427677729782
372,1436169070387,45.5775400364267
373,1436169071145,45.1778823914545
374,1436169071868,43.3206917468245
375,1436169072603,34.0159130798272
376,1436169073330,42.2466066321284
377,1436169074082,33.8899512803006
378,1436169074820,41.1986723345197
379,1436169075504,43.98696035001
380,1436169076075,38.0525943640016
381,1436169076756,40.9369124879038
382,1436169078789,28.3653421047621
383,1436169079523,42.6492443622738
384,1436169080234,38.933762119174
385,1436169080967,37.8344975345428
386,1436169081700,41.8994075695916
387,1436169082417,37.6995161181341
388,1436169083145,31.0171313197932
389,1436169083871,36.807105995429
390,1436169084617,38.5627624951856
391,1436169085358,45.681381147211
392,1436169086089,37.0692372752332
393,1436169086784,45.3700304571763
394,1436169087534,46.4287539320426
395,1436169088263,41.0998438954334
396,1436169089001,36.6558731450969
397,1436169089728,32.4053303185191
398,1436169090474,41.7981769052715
399,1436169091210,43.1806217739274
400,1436169091974,41.4481669890095
401,1436169092705,39.7941259381192
402,1436169093432,48.9009580547347
403,1436169094202,46.6043852363365
404,1436169094942,40.8544282708132
405,1436169095684,44.1896527765581
406,1436169096333,44.7432527676733
407,1436169097019,48.4643779652629
408,1436169097760,48.0714314739224
409,1436169098506,50.9485492770023
410,1436169099241,53.3550269562951
411,1436169099908,41.9179928165746
412,1436169100537,39.5865308965211
413,1436169101264,42.8040370850019
414,1436169102042,45.861669491051
415,1436169102713,44.8306432693509
416,1436169104052,43.8091198127426
417,1436169104734,45.0953026230746
418,1436169105511,46.6780890299501
419,1436169106259,44.3430882498529
420,1436169106936,44.5038426956707
421,1436169107657,43.6885425731327
422,1436169108277,40.5668812947663
423,1436169108960,47.3239687588892
424,1436169109690,46.9427203182968
425,1436169110419,38.4618969316925
426,1436169111083,40.3343485418503
427,1436169111834,44.0825900321377
428,1436169112567,42.1946782553213
429,1436169113288,40.9685893364444
430,1436169114031,44.5864620768841
431,1436169114767,45.4060840611706
432,1436169115510,49.521131466129
433,1436169116211,43.1734474062142
434,1436169116950,39.9354950067407
435,1436169117684,38.7328908665938
436,1436169118355,43.7839846992862
437,1436169119091,45.2672969370228
438,1436169119835,43.1473593698675
439,1436169120572,44.2836599571193
440,1436169121355,42.9304986237437
441,1436169122055,47.2906278019488
442,1436169122781,47.0124473090501
443,1436169123538,41.9620206673659
444,1436169124089,40.5592399413408
445,1436169124767,49.5798983708713
446,1436169125497,39.8644035497089
447,1436169126231,38.9927957799379
448,1436169126974,40.3782558287952
449,1436169127708,36.8113054908085
450,1436169128441,40.1900835707189
451,1436169129130,42.3873067874385
452,1436169129849,43.0364614437817
453,1436169130632,39.4099074317203
454,1436169131359,35.4997400298334
455,1436169132006,44.9074999133343
456,1436169132760,38.1369579423148
457,1436169133485,38.3873651615575
458,1436169134224,43.3522330968526
459,1436169134944,39.474401601762
460,1436169135676,38.5995910294567
461,1436169136382,46.6138637140706
462,1436169137104,44.4036801828041
463,1436169137826,36.4787775528874
464,1436169138554,39.2286266590119
465,1436169139275,42.9534553229002
466,1436169140002,40.3365359367018
467,1436169140712,44.2181059064348
468,1436169141454,46.5899581619721
469,1436169142213,46.5970015005949
470,1436169142880,40.1704145701851
471,1436169143574,43.2732006175948
472,1436169144314,46.4845447571088
473,1436169145047,39.6309833639438
474,1436169145794,38.8667181767359
475,1436169146520,46.1320380814505
476,1436169147239,51.2361325021285
477,1436169147973,39.4496954984955
478,1436169148685,44.1283774008937
479,1436169149413,45.9572697680432
480,1436169150127,40.104395564199
481,1436169150850,43.4463558341679
482,1436169151488,40.6227389986017
483,1436169152272,37.7651984711816
484,1436169152997,42.7001644407572
485,1436169153717,45.2116773588953
486,1436169154424,42.9534581635605
487,1436169155163,40.6491155248803
488,1436169155891,45.5271714382336
489,1436169156607,48.554308232766
490,1436169157329,44.1471300535215
491,1436169158063,38.040112927598
492,1436169158809,42.3526933708452
493,1436169159537,47.0172734792587
494,1436169160251,50.4111742597731
495,1436169160932,42.3329327047209
496,1436169161617,43.3994269354008
497,1436169162379,46.1347856372506
498,1436169162997,44.2891137150378
499,1436169163718,41.3407851167348
500,1436169164495,45.0373937599959
501,1436169165235,40.7622000897352
502,1436169165977,43.5193451640929
503,1436169166711,49.1097837025374
504,1436169167483,46.3484306222344
505,1436169168227,51.4294247299138
506,1436169168949,44.2798960908395
507,1436169169671,36.7926919678067
508,1436169170392,51.7039615122153
509,1436169171098,41.4350191980592
510,1436169171803,44.0147953257798
511,1436169172481,45.737390590043
512,1436169173244,41.91728128995
513,1436169173975,44.0101171614839
514,1436169174676,45.785797483748
515,1436169175401,43.4026078207664
516,1436169176100,43.5510786161112
517,1436169176780,47.7795264746793
518,1436169177540,47.4578302484717
519,1436169178251,44.0697800047498
520,1436169178995,42.4241958508527
521,1436169179746,49.4880173541658
522,1436169180480,52.1111911662312
523,1436169181187,39.8337702773936
524,1436169181890,47.8089494137169
525,1436169182632,46.1879679467588
526,1436169183419,47.5604107731895
527,1436169184129,49.7707533870352
528,1436169184794,39.662392955006
529,1436169185514,46.990261049625
530,1436169186259,43.397052366245
531,1436169186997,39.4223149057228
532,1436169187727,42.3686558425595
533,1436169188450,55.1816645711308
534,1436169189160,42.7276296103608
535,1436169189889,38.4627777529146
536,1436169190626,73.4070656645795
537,1436169191352,55.8375778556327
538,1436169192057,75.6542469404123
539,1436169192708,50.1535567652736
540,1436169193436,47.1237059476233
541,1436169194189,43.2347013621245
542,1436169194913,45.2117908975981
543,1436169195633,48.5008296546013
544,1436169196369,37.9018935637586
545,1436169196976,43.575388084735
546,1436169197668,47.1575848860393
547,1436169198394,46.0113571566192
548,1436169199125,53.0100939911616
549,1436169199862,49.1832229449026
550,1436169200602,48.4575204209817
551,1436169201352,45.4379881857635
552,1436169202094,53.6924074684214
553,1436169202824,46.9208483645074
554,1436169203506,50.4290044992995
555,1436169204266,38.3079414834199
556,1436169204973,41.6753529464184
557,1436169205709,43.7384186920799
558,1436169206516,41.9398863108572
559,1436169207234,64.8384329578167
560,1436169209376,56.5390427806972
561,1436169210123,54.5549031889882
562,1436169210853,54.7303889718813
563,1436169211580,48.9368261197281
564,1436169212318,40.8640538792632
565,1436169213068,39.4039153132789
566,1436169213745,44.2150223507201
567,1436169214442,47.0354308396991
568,1436169215209,39.6771686575827
569,1436169215975,42.7219050211263
570,1436169216621,44.6413231987248
571,1436169217196,46.4187798997991
572,1436169217837,46.8869333851999
573,1436169218536,37.6168883095461
574,1436169219261,34.7293341310813
575,1436169220001,47.3205169144102
