id,attr_time,attr_db
1,1436168796523,24.1185231246474
2,1436168797180,27.7469102202446
3,1436168797892,18.0773452170917
4,1436168798631,19.5002969595854
5,1436168799336,34.1313006587919
6,1436168800065,39.8466829294226
7,1436168800810,38.3015370901179
8,1436168801516,41.4183868702889
9,1436168802270,42.6187911232931
10,1436168803033,41.2489730389606
11,1436168803682,49.9030504425684
12,1436168804406,49.1711022991195
13,1436168805133,48.1989444471605
14,1436168805848,65.7500035355328
15,1436168806595,58.3980351049396
16,1436168807309,56.0373387874494
17,1436168808040,56.5301545417971
18,1436168808815,40.4653131155379
19,1436168809404,47.5559081226376
20,1436168810098,38.0470411430778
21,1436168810710,43.8143830160923
22,1436168811389,43.4085180807194
23,1436168812198,43.2962333006385
24,1436168812927,43.7478547979953
25,1436168813677,45.1069796365544
26,1436168814298,52.340357489774
27,1436168814994,44.0756882689529
28,1436168815742,47.7132682586258
29,1436168816461,44.7650599331754
30,1436168817163,37.8656779249539
31,1436168817916,41.1821639573927
32,1436168818646,43.559510802291
33,1436168819385,40.4221343723068
34,1436168820154,39.929811842827
35,1436168820910,42.3871593756849
36,1436168821490,49.3071125621517
37,1436168822067,37.819684310686
38,1436168822643,46.2451834725586
39,1436168823210,47.2590995726306
40,1436168823844,44.1041372306485
41,1436168824502,50.5196645889539
42,1436168825245,53.0357915281541
43,1436168825795,45.3149623293096
44,1436168826376,62.5777907367356
45,1436168826938,41.2516895569839
46,1436168827505,45.499327955395
47,1436168828348,47.5397638205919
48,1436168829030,52.0923166508472
49,1436168829782,53.1203569518077
50,1436168830576,53.9637940661775
51,1436168831231,38.3135660442686
52,1436168831914,43.2300233772743
53,1436168832516,54.8416336468543
54,1436168833088,37.7712720205651
55,1436168833661,52.0565078337422
56,1436168834235,35.5888255151908
57,1436168834893,44.4657853807301
58,1436168835634,45.2543446567477
59,1436168836329,53.475059308231
60,1436168836958,43.7065982635934
61,1436168837533,43.0248657431253
62,1436168838095,48.0293142173833
63,1436168838645,42.2034369460623
64,1436168839196,39.2740751507451
65,1436168840369,47.4902560665185
66,1436168841057,47.5606309951622
67,1436168841767,41.2020161099881
68,1436168842483,45.8537441365226
69,1436168843277,41.542735753105
70,1436168843965,43.7875336054964
71,1436168844541,44.6963298874665
72,1436168845094,54.6718825743164
73,1436168845647,50.9156103007785
74,1436168846283,40.1153390561981
75,1436168847041,46.0055867756027
76,1436168847809,46.2719256455737
77,1436168848494,46.6124862925028
78,1436168849049,36.9651648735302
79,1436168849630,46.9479174511448
80,1436168850187,37.2190992844937
81,1436168850744,47.4109724106506
82,1436168852593,50.1222880765426
83,1436168853325,41.8254970278042
84,1436168854079,35.3405364450836
85,1436168854818,37.1546168195464
86,1436168855527,48.0036003458249
87,1436168856248,45.478461582024
88,1436168856910,48.0895186869132
89,1436168857674,45.9092536733049
90,1436168858398,47.2287994478778
91,1436168859110,50.009161658439
92,1436168859800,34.5589468679915
93,1436168860471,42.2780499639539
94,1436168861181,43.0570855559026
95,1436168861909,50.7809126165999
96,1436168862662,55.3708353179185
97,1436168863385,52.3486256544819
98,1436168864114,56.9799840469367
99,1436168864837,52.1361707741348
100,1436168865578,43.244705130117
101,1436168866375,55.149891803202
102,1436168867017,43.2805310462
103,1436168867726,44.5351194952129
104,1436168868436,40.3782594406374
105,1436168869180,45.5199228145151
106,1436168869885,53.2810695620522
107,1436168870625,61.538012731284
108,1436168871357,54.6134690022632
109,1436168871979,42.8999261899523
110,1436168872671,50.3668604806837
111,1436168873386,47.3399952290577
112,1436168874104,60.5723557744173
113,1436168874817,58.3924246335827
114,1436168875537,55.5944564604595
115,1436168876275,51.483637032231
116,1436168876974,74.0072857649503
117,1436168877659,73.1553444295834
118,1436168878341,45.2077442189587
119,1436168879066,53.9759611567218
120,1436168879809,58.2643980754502
121,1436168880539,50.109739014128
122,1436168881275,47.8606815479591
123,1436168881952,48.4279995286617
124,1436168882632,43.9518528925147
125,1436168883346,44.6361774976716
126,1436168884063,59.0602783648509
127,1436168884793,53.1632516051536
128,1436168885544,50.6018615736375
129,1436168886266,47.924819115402
130,1436168886998,40.042584212231
131,1436168887680,43.5159479679368
132,1436168888367,44.6357641676434
133,1436168889091,46.9289925933625
134,1436168889828,52.3375637239401
135,1436168890605,51.9808801318894
136,1436168891433,42.9809599965296
137,1436168891994,50.732846247185
138,1436168892675,44.6527237647546
139,1436168893395,45.2990434710024
140,1436168894115,51.2296783088668
141,1436168894863,44.8806163773954
142,1436168895597,41.8204549561816
143,1436168896279,55.5157268193047
144,1436168897001,50.3118163250429
145,1436168897760,49.6575751116002
146,1436168898514,46.4331747393514
147,1436168899257,38.8523117265814
148,1436168899962,41.7159191596137
149,1436168900715,38.3424724970183
150,1436168901434,45.2279718808932
151,1436168902101,57.7304311424935
152,1436168902865,51.9844351724055
153,1436168903582,45.4132592196264
154,1436168904306,42.2697728536623
155,1436168905036,43.1784786927207
156,1436168905777,57.4610361165052
157,1436168906501,42.9982095713578
158,1436168907219,46.6946071941343
159,1436168907931,55.5205204725085
160,1436168908680,47.3096180614135
161,1436168909364,50.0822386158875
162,1436168910089,44.3353011916773
163,1436168910808,42.3132339685422
164,1436168911552,42.0263550114424
165,1436168912216,50.8819437988344
166,1436168912964,46.8158534214498
167,1436168913676,55.7670477774172
168,1436168914402,49.9016945540284
169,1436168915137,52.4158681980322
170,1436168915867,42.9228177106791
171,1436168916604,42.7905626029206
172,1436168917335,36.0673482265976
173,1436168918047,61.623395852203
174,1436168920125,39.5119772066615
175,1436168920849,42.2217531706439
176,1436168921653,42.1686716729569
177,1436168922379,38.5653130220709
178,1436168923090,47.9727902237873
179,1436168923785,47.9340208026521
180,1436168924504,54.0025126526741
181,1436168925218,59.5242716043506
182,1436168925940,51.5809345527677
183,1436168926637,44.7066895352926
184,1436168927253,44.239803658992
185,1436168927927,56.5075047282214
186,1436168928651,52.3306869896823
187,1436168929379,45.6215269778621
188,1436168930087,42.9888502973531
189,1436168930733,45.5086250658557
190,1436168931422,62.2413630477758
191,1436168932102,46.2972987983298
192,1436168932782,43.9489173721452
193,1436168933525,40.3970568594245
194,1436168934240,45.2086326662014
195,1436168935002,41.7391364417658
196,1436168935747,53.4840752672232
197,1436168936463,56.4667261781634
198,1436168938331,58.3394979042226
199,1436168939019,54.0190211120311
200,1436168939757,53.7482585986989
201,1436168940500,51.3301073559045
202,1436168941237,48.4168993100558
203,1436168941979,55.8253390231592
204,1436168942710,46.9872831943704
205,1436168943432,56.8764337617126
206,1436168944146,61.3048534446834
207,1436168944902,60.1229109670303
208,1436168945586,39.3830350187891
209,1436168946302,42.1493721436716
210,1436168947039,39.7455989582553
211,1436168947770,44.2110803705984
212,1436168948510,46.7231030888591
213,1436168949244,57.4932544722899
214,1436168949945,63.3858704710443
215,1436168950690,50.2380578073751
216,1436168951408,46.6601195087659
217,1436168952006,46.6975273692208
218,1436168952614,49.6777312664925
219,1436168953324,44.1822559106444
220,1436168954053,44.6191501117961
221,1436168954790,45.89245052164
222,1436168955498,48.3958146027296
223,1436168956177,61.5734630192095
224,1436168956916,57.3995650233191
225,1436168957634,50.5826238574433
226,1436168958350,49.0402555663665
227,1436168959094,50.8904451521522
228,1436168959839,44.8364538382427
229,1436168960550,44.4463780958072
230,1436168961312,62.2002149611554
231,1436168962036,59.3661537463866
232,1436168962732,49.1517025703617
233,1436168963454,43.0575361076322
234,1436168964163,41.5587258339626
235,1436168964890,45.5161758534539
236,1436168965618,46.2756361471905
237,1436168966339,55.1303963208423
238,1436168967063,57.112800069939
239,1436168967701,40.2541579055126
240,1436168969152,62.3882901248069
241,1436168969890,52.5577874502466
242,1436168970615,59.5213568781238
243,1436168971367,53.9426628578823
244,1436168972061,51.5220559931407
245,1436168972680,46.6369820611778
246,1436168973352,62.456928869762
247,1436168974064,52.8403820886195
248,1436168974843,63.3603020289909
249,1436168975514,52.6021552416864
250,1436168976103,45.3716080495721
251,1436168976690,49.2594102442613
252,1436168977244,45.1318848755196
253,1436168977910,60.4087592055573
254,1436168978627,53.725504117508
255,1436168979407,53.4016371813995
256,1436168980011,47.6401870582043
257,1436168980626,55.985022540165
258,1436168981217,42.1431416167277
259,1436168981787,59.5711060350595
260,1436168983320,64.1952860864237
261,1436168983980,40.1368603327377
262,1436168984722,37.6473368071556
263,1436168986519,44.4663046230956
264,1436168987077,39.8858734806479
265,1436168987627,51.6962094734051
266,1436168988204,54.3903865012784
267,1436168988882,52.4222339489189
268,1436168989592,54.8638998665567
269,1436168990331,61.5007128256592
270,1436168990910,41.3348383888373
271,1436168991477,59.5676983390205
272,1436168992016,45.7455365122701
273,1436168993628,47.4036167927597
274,1436168994337,46.1191727094198
275,1436168995060,57.8427896136622
276,1436168995826,53.7578829055529
277,1436168996422,32.601870335677
278,1436168996983,56.1398750463977
279,1436168997561,40.2229598427024
280,1436168998129,58.0259953709316
281,1436168998797,36.8804832582409
282,1436168999514,46.6205490603131
283,1436169000230,46.1675965001859
284,1436169000838,61.151426560434
285,1436169001420,43.6330744763921
286,1436169002006,56.9043701690008
287,1436169002575,44.5510051945499
288,1436169004072,43.6128910520172
289,1436169004767,65.123834905693
290,1436169005521,55.514874995902
291,1436169006276,56.0357461435556
292,1436169007008,44.3609652211613
293,1436169007725,41.4720902505441
294,1436169008384,49.076992523479
295,1436169009105,54.1165091252404
296,1436169009844,56.7078657818948
297,1436169010609,57.2668076093191
298,1436169011325,48.1740523018504
299,1436169012035,40.7466858248536
300,1436169012675,49.6926056587875
301,1436169013311,62.915726319742
302,1436169014018,45.9629312777019
303,1436169014771,41.48432450049
304,1436169015476,44.0768224682939
305,1436169016188,58.5191735104964
306,1436169016903,53.9673813277154
307,1436169017661,51.3959020793817
308,1436169018378,61.505731605334
309,1436169019100,56.7038072707917
310,1436169019799,34.2418883418016
311,1436169020537,48.5575834163625
312,1436169021312,41.4313312879202
313,1436169022015,43.8051675040397
314,1436169022746,46.0732434267582
315,1436169023463,58.115284450779
316,1436169024089,51.1050912793507
317,1436169024775,45.2702077668289
318,1436169025519,42.0064905727338
319,1436169026231,47.4510764814045
320,1436169026961,51.2120321751295
321,1436169027783,47.1509156515989
322,1436169028506,56.8763465971857
323,1436169029204,57.1570060387804
324,1436169029904,48.9363425985973
325,1436169030676,44.7672071587779
326,1436169031410,40.8302252106847
327,1436169032464,51.4827272915787
328,1436169033087,58.8283221580925
329,1436169033814,49.3868540264406
330,1436169034489,44.8653989968689
331,1436169035203,46.7357191222449
332,1436169035925,56.9416155531426
333,1436169036680,54.3688019363827
334,1436169037423,58.0184834848378
335,1436169038137,55.3835749594649
336,1436169038827,46.9638286214916
337,1436169039469,51.441058441957
338,1436169040195,55.11486438444
339,1436169040926,56.3883153873436
340,1436169041634,44.8277285019156
341,1436169042388,48.1588676648093
342,1436169043118,44.4465710429007
343,1436169043826,44.2341448388758
344,1436169044479,58.2714865445396
345,1436169045201,55.9460788312671
346,1436169045938,40.753594798196
347,1436169046681,44.3238045267939
348,1436169047410,45.8573690983009
349,1436169048120,44.9764855292932
350,1436169048890,47.8049922495434
351,1436169049571,58.8805631378268
352,1436169050282,50.6911995466531
353,1436169051003,37.4600608097563
354,1436169051741,47.124634315157
355,1436169052452,45.5083109961107
356,1436169053113,59.4849305107577
357,1436169053808,52.2711698703766
358,1436169054521,41.970255422562
359,1436169055259,44.6796985260901
360,1436169055984,45.6914515501173
361,1436169056753,45.2572921169803
362,1436169057481,52.0107933385843
363,1436169058175,58.1056890608712
364,1436169058840,35.6373848510732
365,1436169059552,56.803227801528
366,1436169060285,60.1704264363119
367,1436169061034,44.137330561632
368,1436169061782,43.0888866696016
369,1436169062524,54.9851414686248
370,1436169063237,53.4066902811276
371,1436169063940,43.4968803113371
372,1436169064648,45.5949189582492
373,1436169065329,47.9341034382637
374,1436169066018,53.9274927321905
375,1436169066774,53.4154070901819
376,1436169067506,49.6791048856185
377,1436169068236,44.943242067793
378,1436169068977,51.163365340795
379,1436169069760,45.2898892406096
380,1436169070434,38.3972680390325
381,1436169071147,60.9746900923677
382,1436169071862,53.9096449456802
383,1436169072586,51.7742541126494
384,1436169073232,49.0443847014684
385,1436169073906,52.3294049020473
386,1436169074626,51.9405724448729
387,1436169075341,45.7794175986672
388,1436169076100,49.1676316578475
389,1436169076727,40.3200166179317
390,1436169077472,44.6643443846026
391,1436169078185,58.0152068289182
392,1436169078909,63.6850661487654
393,1436169079666,54.6685095143359
394,1436169080395,45.7822125930149
395,1436169081097,53.0648903733609
396,1436169081792,57.8135962427803
397,1436169082522,53.2457040085343
398,1436169083245,53.8832162292709
399,1436169083945,42.57801403447
400,1436169084700,40.0346440493193
401,1436169085421,45.00048466694
402,1436169086169,42.1910576656898
403,1436169086823,56.8068155120984
404,1436169087546,54.6790400076789
405,1436169088307,56.1304914881196
406,1436169089095,64.7478620841633
407,1436169089832,50.9439739328032
408,1436169090580,48.1273734775902
409,1436169091298,42.033616382059
410,1436169092028,49.7706183849771
411,1436169092764,51.9951408324519
412,1436169093481,56.1350055327316
413,1436169094216,59.4092797579259
414,1436169094958,56.8861675860724
415,1436169095680,52.1776357586954
416,1436169096427,42.9493751244888
417,1436169097159,54.7318053031821
418,1436169097865,48.5827938049643
419,1436169098579,61.2156862767207
420,1436169099299,64.6101542945764
421,1436169100037,60.2260818477274
422,1436169100798,66.6014712688029
423,1436169101506,50.6169420168142
424,1436169102234,47.722672936207
425,1436169102954,48.1686361004062
426,1436169103718,51.3289558194329
427,1436169104437,60.2830195611819
428,1436169105153,66.7871681433971
429,1436169105870,61.9677880602875
430,1436169106620,58.9657695061316
431,1436169107337,51.8529327257408
432,1436169108067,41.9992403335955
433,1436169108776,52.1571352900365
434,1436169109516,43.3024393323255
435,1436169110245,56.4778613151288
436,1436169110913,52.9634124506456
437,1436169111587,51.2344574699597
438,1436169112310,51.0638266939386
439,1436169113032,43.1158498397956
440,1436169113648,60.6996412747102
441,1436169114334,59.2266656921943
442,1436169115057,48.0323945787023
443,1436169115804,51.1935377189981
444,1436169116470,61.9724143092507
445,1436169117203,43.7680401239896
446,1436169117940,49.8968095906481
447,1436169118680,58.4913255654957
448,1436169119397,63.5633156326926
449,1436169120136,52.2897389282288
450,1436169120880,51.8419928374162
451,1436169121592,55.3087285692075
452,1436169122236,47.6359813904985
453,1436169124337,51.9576516084088
454,1436169125055,43.990109564489
455,1436169125806,50.0051920401181
456,1436169126553,38.2995111200537
457,1436169127249,56.7657908479529
458,1436169127993,60.1018241062855
459,1436169128735,53.8306866628339
460,1436169129435,60.1378612742515
461,1436169130107,52.4029453856548
462,1436169130819,43.5522061421513
463,1436169131554,42.3868505729523
464,1436169132285,44.3844838390823
465,1436169133015,45.8546720735976
466,1436169133656,60.5005396772737
467,1436169134385,54.3031300050431
468,1436169135091,43.5365912357389
469,1436169135836,43.8439718504059
470,1436169136535,41.8560043246893
471,1436169137200,57.0335284280626
472,1436169137921,52.0882695755035
473,1436169138652,51.1452105826559
474,1436169139391,43.3440405049695
475,1436169140121,46.751380828899
476,1436169140858,45.5607385405877
477,1436169141606,49.0642949635683
478,1436169142328,52.5870454415821
479,1436169143014,60.0645648797978
480,1436169143676,41.9718364925567
481,1436169144381,44.6895765447405
482,1436169145080,48.4562133166664
483,1436169146635,45.9136559635126
484,1436169147318,60.2285097639364
485,1436169148017,47.287043641107
486,1436169148714,44.4196885625562
487,1436169149440,55.3491542671512
488,1436169150170,54.4811360154615
489,1436169150895,59.226486903165
490,1436169151627,63.9130577046385
491,1436169152341,59.8083882233777
492,1436169153063,52.5787696282863
493,1436169153800,48.8442982019623
494,1436169154480,49.6814835755105
495,1436169155202,46.6125495897199
496,1436169155932,56.648308744081
497,1436169156682,52.0357922387388
498,1436169157385,57.6595632990968
499,1436169158110,56.8053641172338
500,1436169158881,57.5685662423422
501,1436169159543,55.3053365374413
502,1436169160271,50.8687093636588
503,1436169160979,63.2132116020045
504,1436169161689,65.0121609358105
505,1436169162397,52.9919352709746
506,1436169163140,51.0140484643583
507,1436169163815,45.7187402281608
508,1436169164476,47.7835967988339
509,1436169165177,64.0081893874477
510,1436169165899,51.9431541213714
511,1436169166657,53.9612366133675
512,1436169167389,42.4140594437153
513,1436169168101,43.1213020726919
514,1436169168840,49.7695406866967
515,1436169169561,49.8210466332164
516,1436169170272,49.4980299704349
517,1436169170955,59.118308734377
518,1436169171656,47.1736943409579
519,1436169172375,48.8889944027801
520,1436169173131,53.4702111654125
521,1436169173855,54.703370959374
522,1436169174609,53.0048795731295
523,1436169175289,63.3251736154214
524,1436169176040,59.329587286922
525,1436169176764,55.292248185659
526,1436169177488,42.3522285936642
527,1436169178207,43.6358164032976
528,1436169178935,52.1353005514159
529,1436169179652,50.2413938336776
530,1436169180381,52.6471192020712
531,1436169181094,63.2390081967463
532,1436169181821,50.7301750917915
533,1436169182529,42.4393327796006
534,1436169183256,52.0286666939131
535,1436169183917,42.659605121399
536,1436169185347,63.151066329464
537,1436169186035,46.0013631196707
538,1436169186810,43.0085248019841
539,1436169187515,42.1648427718202
540,1436169188222,53.8458658185141
541,1436169188941,55.5211243658839
542,1436169189693,62.2291572722497
543,1436169190408,54.2337614356327
544,1436169191132,66.4999451984101
545,1436169191827,73.8674243402574
546,1436169192489,70.8719603062351
547,1436169193236,45.2394506439985
548,1436169193956,51.0924696163403
549,1436169194593,51.9662050682727
550,1436169195259,45.8389189007135
551,1436169195997,54.1342621566074
552,1436169196758,51.5979828682646
553,1436169197524,45.9027675804758
554,1436169198234,46.2346815813989
555,1436169198940,50.0804511035958
556,1436169199684,51.3777058502649
557,1436169200396,44.5086743163501
558,1436169201112,45.7530368464417
559,1436169201861,51.5415972799788
560,1436169202592,55.3309762688736
561,1436169203320,53.7028337564329
562,1436169204043,57.4483712569574
563,1436169204774,60.8079977885762
564,1436169206832,48.5599572610618
565,1436169207514,57.7773820295493
566,1436169208234,59.1044698266787
567,1436169208957,55.6086238634477
568,1436169209710,52.0378619299366
569,1436169210441,48.400872724065
570,1436169211157,55.5789886806609
571,1436169211878,52.0969705117062
572,1436169212615,44.7590297188616
573,1436169213366,52.1967289529218
574,1436169214072,52.534319057009
575,1436169214792,57.2396616339166
