id,attr_time,attr_db
1,1436371709805,31.1508572532689
2,1436371710529,33.0537174670091
3,1436371711256,32.4844098826995
4,1436371712022,34.5951511925404
5,1436371712749,32.7192008491358
6,1436371713481,33.4834087957706
7,1436371714249,55.9210169207216
8,1436371715029,62.3462763082247
9,1436371715723,61.4716046047136
10,1436371716424,56.4831286487048
11,1436371717135,61.7075168346685
12,1436371717876,46.9993183104611
13,1436371718601,62.622665160813
14,1436371719353,53.3729140270597
15,1436371720054,67.2778227617957
16,1436371720704,43.4135282842724
17,1436371721443,57.9022499441378
18,1436371722195,50.3972209981627
19,1436371722960,45.2951645633154
20,1436371723694,46.4858432651516
21,1436371724427,71.7191933793815
22,1436371725155,63.1231544476389
23,1436371725887,61.8933474340483
24,1436371726705,44.6767532018718
25,1436371727420,45.0070488438078
26,1436371728157,46.1302596211199
27,1436371728912,42.3971952278422
28,1436371729636,40.2105518553992
29,1436371730387,44.3818488978061
30,1436371731140,50.8477601657546
31,1436371731779,43.2118341072896
32,1436371732491,40.6799183299531
33,1436371733222,43.7021315934102
34,1436371733961,39.8541004041137
35,1436371734678,42.5313875330769
36,1436371735472,44.1452503402879
37,1436371736191,51.5435450355553
38,1436371736927,42.9100380327289
39,1436371737658,42.6685363253619
40,1436371738388,46.5435874479978
41,1436371739117,40.1135215952438
42,1436371739833,38.7093069994916
43,1436371740579,44.4779989080647
44,1436371741300,46.5055222067768
45,1436371742012,46.9411416828551
46,1436371742706,42.3646574927648
47,1436371743384,47.7085583349223
48,1436371744134,58.2348756806616
49,1436371744840,44.3947824228145
50,1436371745592,44.8299192547566
51,1436371746344,51.6060896560918
52,1436371747122,44.6900793161868
53,1436371747772,52.2556968145371
54,1436371748461,52.1977580858719
55,1436371749228,46.33275609871
56,1436371749999,52.563290433977
57,1436371750675,53.9874245277818
58,1436371751446,48.7738043093097
59,1436371752129,54.0054669716765
60,1436371752774,51.516609537177
61,1436371753480,50.9936623274325
62,1436371754164,50.8444572768636
63,1436371754825,48.7464683157658
64,1436371755557,53.7220742226644
65,1436371756286,45.4392540428007
66,1436371757023,42.7080282020973
67,1436371757752,47.6370872592457
68,1436371758485,49.7936378205141
69,1436371759271,44.0157887150111
70,1436371759973,46.0598613318502
71,1436371760702,52.5038857736612
72,1436371761410,46.7774252990357
73,1436371762116,48.8726011160243
74,1436371762868,47.2278450090027
75,1436371763505,48.1462956378133
76,1436371764196,49.1275868827577
77,1436371764944,49.7165672461449
78,1436371765663,53.9532366611752
79,1436371766371,57.1189566989738
80,1436371767110,50.913960066067
81,1436371767842,53.6092825665596
82,1436371768583,54.0345873177404
83,1436371769331,46.8485212197862
84,1436371770093,48.6915555241978
85,1436371770815,51.0707028008767
86,1436371771529,49.8566981662543
87,1436371772246,47.096243263857
88,1436371772976,49.6497805542722
89,1436371773619,48.0364660545316
90,1436371774301,46.3189929782708
91,1436371775078,44.3445529071996
92,1436371775820,42.6307062432942
93,1436371776538,42.7683199938
94,1436371777264,48.835853316949
95,1436371777973,47.8750628322864
96,1436371778711,41.7239847458006
97,1436371779432,44.9553575086552
98,1436371780152,45.9816795059092
99,1436371780811,44.7097911426127
100,1436371781596,41.0898038542137
101,1436371782323,42.6971939343329
102,1436371783070,63.3888935261252
103,1436371783768,47.7517416934272
104,1436371784448,46.9576351176807
105,1436371785180,45.8697118973895
106,1436371785917,50.6903479464609
107,1436371786625,59.6656696926449
108,1436371787426,56.2010587035527
109,1436371788154,43.2001917768553
110,1436371788915,51.422671933021
111,1436371789639,42.6494899409944
112,1436371790383,43.2610016021465
113,1436371791166,43.731697308177
114,1436371791831,43.1630433947577
115,1436371792557,46.3586114587093
116,1436371793278,45.8112471600283
117,1436371794041,45.1356286437214
118,1436371794739,48.9130527944113
119,1436371795390,40.8592726527818
120,1436371796095,43.8642867379654
121,1436371796774,42.785637733146
122,1436371797412,41.3348080839266
123,1436371798119,40.9852848930799
124,1436371798857,41.3138380646314
125,1436371799587,62.7109105928489
126,1436371800268,48.2747393705655
127,1436371800883,37.9665548441698
128,1436371801644,58.4083324540743
129,1436371802393,37.2519425304607
130,1436371803119,46.7036723717442
131,1436371803849,38.0780857054894
132,1436371804580,37.0489761734939
133,1436371805287,34.6088645104446
134,1436371807248,39.5772858948018
135,1436371807930,41.4658005772167
136,1436371808641,39.0105472802913
137,1436371809311,40.3821857057018
138,1436371810035,37.4467393108388
139,1436371810754,36.3244844755561
140,1436371811430,40.9219839935476
141,1436371812173,41.1323073801415
142,1436371812778,43.3715367136171
143,1436371813489,59.3468344511714
144,1436371814216,41.5268024829391
145,1436371814970,42.9448302749256
146,1436371815686,39.6214514874468
147,1436371816397,43.3793075710949
148,1436371817202,45.6125289151169
149,1436371817950,36.7637202426191
150,1436371818691,40.9773834737619
151,1436371819431,43.8851893576519
152,1436371820196,39.7559742750504
153,1436371820858,37.2309371285677
154,1436371821539,38.5082728992699
155,1436371822365,37.7397040770702
156,1436371823157,41.5698454145766
157,1436371823908,39.8221327108547
158,1436371824631,38.9537763057147
159,1436371825329,47.0049829114106
160,1436371827068,44.0889493766315
161,1436371827811,36.3916101914598
162,1436371828540,30.3845372493478
163,1436371829275,45.9121572985781
164,1436371829982,35.7465557198786
165,1436371830731,49.8465743816307
166,1436371831458,46.2389535605019
167,1436371832153,42.0130949445185
168,1436371832893,44.8228263829647
169,1436371833622,46.7800383785797
170,1436371834538,37.3797299034202
171,1436371835124,38.5612020564502
172,1436371835780,40.3516270164929
173,1436371836499,39.1988335731935
174,1436371837275,45.1351817575467
175,1436371838005,40.096512664076
176,1436371838751,37.1029264723525
177,1436371839471,51.6861528070485
178,1436371840166,39.4111688337362
179,1436371840860,40.3438555627101
180,1436371841485,41.9687422991179
181,1436371842193,37.0249801501836
182,1436371842980,35.919237365865
183,1436371843702,34.0492664536721
184,1436371844429,54.3905883333973
185,1436371845137,37.94827033821
186,1436371845797,38.269564406018
187,1436371846619,40.9942269823318
188,1436371847350,40.290379574299
189,1436371848087,39.7039043582115
190,1436371848825,40.7920932219319
191,1436371849560,39.2804667389289
192,1436371850302,36.3310848726834
193,1436371851117,42.9957454449748
194,1436371851850,36.393727676317
195,1436371852492,37.2530804610212
196,1436371853233,42.4373293417861
197,1436371853987,37.3263749843261
198,1436371854710,30.7628467839545
199,1436371855434,40.0055452087917
200,1436371856931,37.0311315490829
201,1436371857646,45.8367523993431
202,1436371858380,35.9040925352608
203,1436371859103,35.4213529159852
204,1436371859824,36.0315244898973
205,1436371860524,43.9222471579747
206,1436371861104,38.4428080186466
207,1436371861754,43.2981477918859
208,1436371862522,37.4972705372317
209,1436371863200,38.945434672638
210,1436371863867,34.9747177562642
211,1436371864602,39.8794000892434
212,1436371865325,38.6308023920398
213,1436371866049,39.6796968498627
214,1436371866837,42.2873909501331
215,1436371867601,38.147953602941
216,1436371868329,36.4158393570733
217,1436371869064,34.8780004369171
218,1436371869794,37.1256396596394
219,1436371870524,39.7354908118681
220,1436371871271,38.4714843175486
221,1436371871983,44.6023202285442
222,1436371872676,42.8547209341001
223,1436371873403,47.8507990888126
224,1436371874796,42.0085656475688
225,1436371875529,38.2902015749085
226,1436371876253,38.2481193033642
227,1436371877007,40.8988094433968
228,1436371877716,38.2009411246391
229,1436371878415,34.643136917582
230,1436371879153,36.568312406652
231,1436371879876,37.6055776646665
232,1436371880640,42.7166209705321
233,1436371881341,41.9119933373636
234,1436371882056,37.8847633963995
235,1436371882696,35.5861306983084
236,1436371883396,36.3863025131126
237,1436371884116,36.7285321789484
238,1436371884819,35.9565539710704
239,1436371885531,34.1222179348499
240,1436371886247,37.53726884306
241,1436371886914,33.0598885359265
242,1436371887634,36.0705991706526
243,1436371888365,36.8767903472738
244,1436371889102,34.7794813227766
245,1436371889828,32.0464073840147
246,1436371890565,41.1629523925655
247,1436371891298,34.6365470486862
248,1436371892047,31.7844189851519
249,1436371892753,55.0738035907987
250,1436371893373,36.7449078168623
251,1436371894057,42.0340024696493
252,1436371894772,44.8717524366139
253,1436371895516,39.4411429537467
254,1436371896269,39.5456189312406
255,1436371897030,41.3372810950479
256,1436371897757,42.0618896270545
257,1436371898487,37.7492296204355
258,1436371899241,41.7832441730508
259,1436371899967,54.3761681697953
260,1436371900702,37.8494233933798
261,1436371901427,41.0074736303241
262,1436371902147,34.741633304528
263,1436371902881,38.9681411829522
264,1436371903615,41.5775585774135
265,1436371904365,46.6226807646263
266,1436371905122,41.67611700371
267,1436371905847,56.6502215676699
268,1436371906603,37.3662384346578
269,1436371907335,36.3714201177457
270,1436371908059,38.1631315342526
271,1436371908776,55.2905381521941
272,1436371909526,46.7543483783938
273,1436371910265,47.2856715621946
274,1436371911033,39.3098459952508
275,1436371911840,42.9924394191948
276,1436371912568,56.4587721896012
277,1436371913289,40.0914747822786
278,1436371913919,44.3637607706077
279,1436371914599,44.8029304693807
280,1436371915343,38.93616838696
281,1436371916150,36.6206681033997
282,1436371916903,38.4297373804556
283,1436371917619,42.2608100407794
284,1436371918371,41.6385817822878
285,1436371919147,40.1565725447953
286,1436371919870,62.8688818011112
287,1436371920594,43.4851394916214
288,1436371921299,35.8211890621556
289,1436371921931,72.1130049206009
290,1436371922615,41.3998001388459
291,1436371923297,34.5251019135236
292,1436371923969,41.030277991037
293,1436371924672,45.0659959211199
294,1436371925395,45.7544203582873
295,1436371926193,39.3107258014285
296,1436371926962,38.7948077061119
297,1436371927667,51.8077227158233
298,1436371928354,58.4841490478862
299,1436371929079,43.4523806400487
300,1436371929814,45.9549683016233
301,1436371930556,45.1981723554261
302,1436371931351,41.7700932727175
303,1436371932082,43.7154172633999
304,1436371932816,44.849535604656
305,1436371933508,40.9319833276609
306,1436371934155,44.4971949898788
307,1436371934860,46.8545148447385
308,1436371935581,35.5952913805279
309,1436371936312,36.7745971066536
310,1436371937051,38.1817809293347
311,1436371937787,43.7899243733152
312,1436371938487,36.3545082049411
313,1436371939172,41.6362575589893
314,1436371939883,41.8265260948063
315,1436371940621,40.1922174599266
316,1436371941334,42.5570213218422
317,1436371941985,37.1321872762186
318,1436371942701,37.391185328536
319,1436371943431,40.7750834222934
320,1436371944138,43.8502385600332
321,1436371944716,37.0792023720099
322,1436371945336,47.3256408082879
323,1436371946083,38.5489150039661
324,1436371946890,44.8475738459684
325,1436371947606,42.6650178510505
326,1436371948305,41.007992267449
327,1436371949056,45.4767873041316
328,1436371949787,41.4192047080654
329,1436371950511,37.4682636611276
330,1436371951257,35.5228974839779
331,1436371952052,43.5013776109857
332,1436371952810,43.2767320606119
333,1436371953541,40.7493848170886
334,1436371954264,37.7561423841097
335,1436371954940,37.737799485005
336,1436371955673,38.4763567652753
337,1436371956429,38.8847322189622
338,1436371957153,41.6920707710254
339,1436371957872,41.1787412316235
340,1436371958563,42.3514090460983
341,1436371959281,39.3178582997027
342,1436371960018,41.7655513993846
343,1436371960762,47.4696239159696
344,1436371961528,37.1924848258919
345,1436371962254,38.2012227720471
346,1436371962919,38.3238169267509
347,1436371963596,39.5679378426071
348,1436371964347,44.484303545483
349,1436371965037,37.427006060625
350,1436371965758,38.1443887782606
351,1436371966497,36.731127040363
352,1436371967238,41.5735635596314
353,1436371967958,49.9630534470539
354,1436371968622,39.888446282686
355,1436371969351,40.8871760307688
356,1436371970097,36.6187142363714
357,1436371970828,39.2840513321892
358,1436371971627,40.3745029231415
359,1436371972357,58.5021555606736
360,1436371973080,58.2300493467282
361,1436371973823,40.720667950085
362,1436371974520,39.2799877062379
363,1436371975212,44.410220784637
364,1436371975919,38.6494795605026
365,1436371976590,36.6550885854452
366,1436371977285,36.2557305042236
367,1436371978055,35.9484599836275
368,1436371978761,46.5453704444266
369,1436371979500,41.424090611727
370,1436371980173,37.265655516913
371,1436371980905,38.2636933959339
372,1436371981643,37.2497949243287
373,1436371982397,37.325996921707
374,1436371983071,41.0857239662157
375,1436371983732,36.4408035462081
376,1436371984459,34.9567456445549
377,1436371985204,35.1978287906668
378,1436371985868,37.6225483782289
379,1436371986621,40.3264893879413
380,1436371987359,45.110310578431
381,1436371988105,35.5538477188952
382,1436371988815,45.3776778229267
383,1436371989531,34.0052869978133
384,1436371990260,31.9061356786299
385,1436371990986,41.3417875890326
386,1436371991604,43.0994495390139
387,1436371992272,46.9375751928874
388,1436371992999,40.2327892253262
389,1436371993729,35.6003500028472
390,1436371994448,36.8324134382182
391,1436371995206,33.165720506323
392,1436371995878,32.4728318261816
393,1436371996606,42.5107092243773
394,1436371997354,35.5974703878049
395,1436371998128,35.3504191617264
396,1436371998862,37.3881336740954
397,1436371999596,35.9941908811201
398,1436372000337,37.0418064113181
399,1436372001061,35.8295291067807
400,1436372001715,36.36885710641
401,1436372002437,36.6240496811033
402,1436372003161,37.7596351294694
403,1436372003829,40.8727353905269
404,1436372004569,40.6206654134795
405,1436372005295,37.7305985709134
406,1436372005970,36.9588637402439
407,1436372006751,39.922183157665
408,1436372007411,38.5318797477297
409,1436372008137,65.0889430778874
410,1436372008890,50.9501623257488
411,1436372009609,38.5934244582742
412,1436372011312,38.3080682452989
413,1436372012075,37.4629231592438
414,1436372012737,38.58738903504
415,1436372013434,40.9018034443061
416,1436372014164,47.7966088441672
417,1436372014897,40.5787638240375
418,1436372015625,43.7943971146636
419,1436372016382,35.9685853997694
420,1436372017122,35.9995555159806
421,1436372017843,40.5771155254553
422,1436372018637,36.3266648313756
423,1436372019307,43.0467145047607
424,1436372019992,37.621110985432
425,1436372020732,35.9471447390821
426,1436372021449,41.6112003686754
427,1436372022186,33.351826236476
428,1436372022915,36.9472123025582
429,1436372023610,39.079692500019
430,1436372024257,34.932422076831
431,1436372024954,35.783326387413
432,1436372025692,37.5991979465311
433,1436372026431,40.4001455778552
434,1436372027192,62.5928618793788
435,1436372027908,46.7752829863721
436,1436372028623,42.6485555971793
437,1436372029358,43.1597396372661
438,1436372030091,36.726140888893
439,1436372030811,68.2391394936229
440,1436372031552,45.3740355959251
441,1436372032370,36.408227319256
442,1436372033022,37.7523805295902
443,1436372035197,35.0077672621587
444,1436372035871,43.6078419129702
445,1436372036598,36.7872797039334
446,1436372037406,43.0546739360758
447,1436372038138,33.4752455252224
448,1436372038858,36.3109020487641
449,1436372039594,33.5895042358986
450,1436372040347,40.5774093677359
451,1436372041023,36.2416583804409
452,1436372041820,39.2370869748744
453,1436372042552,43.2861267390296
454,1436372043301,37.0771928615103
455,1436372043940,42.3145414483915
456,1436372044637,44.2750363505233
457,1436372045369,41.9489485826392
458,1436372046113,48.9036428731573
459,1436372046855,49.9227615875006
460,1436372047588,43.0599620056406
461,1436372048281,43.8266852648692
462,1436372048922,66.6555196469374
463,1436372049620,41.4884061011331
464,1436372050340,47.8889216560529
465,1436372051077,43.530135118939
466,1436372051668,34.2840153567933
467,1436372052366,37.3217728266413
468,1436372053115,38.1107734832719
469,1436372053840,51.8791466812329
470,1436372054552,39.0842137146753
471,1436372055288,36.6599278004846
472,1436372055987,40.7887257701891
473,1436372056693,35.4784965065402
474,1436372057507,35.2380485717073
475,1436372058243,35.4290375594991
476,1436372058967,33.1455519439367
477,1436372059702,30.9689639954865
478,1436372060425,35.5847063389924
479,1436372061157,32.8613412827902
480,1436372061792,36.7574486628444
481,1436372062508,37.0137743659681
482,1436372063248,57.4151757946471
483,1436372063935,35.8462051683502
484,1436372064667,37.4100064573038
485,1436372065373,40.887791597185
486,1436372066097,36.2661739569142
487,1436372066923,41.7729271985853
488,1436372067670,46.2721295149271
489,1436372068415,37.3635637111375
490,1436372069144,35.6531286800024
491,1436372069879,35.3598092958792
492,1436372070618,41.7895829634035
493,1436372071334,34.8382779643517
494,1436372071904,41.952981919232
495,1436372073668,39.6323608847924
496,1436372074414,42.8965581303574
497,1436372075146,41.4696789853749
498,1436372075881,57.198778533795
499,1436372076664,48.0721715075866
500,1436372077379,37.2595016843621
501,1436372078122,42.8517846451133
502,1436372078843,36.3951539782484
503,1436372079519,37.7790977117331
504,1436372080259,35.4709398320824
505,1436372081036,33.8110350046871
506,1436372081736,42.1572827329015
507,1436372082412,35.3839971177738
508,1436372083154,41.4431636921417
509,1436372083887,34.3664160831329
510,1436372084568,42.953299183841
511,1436372085241,34.4926600950047
512,1436372085927,39.5759076176122
513,1436372086741,34.9190811549446
514,1436372087473,43.3126758517943
515,1436372088196,34.4648194423369
516,1436372088939,55.2320055592404
517,1436372089668,35.0667793981421
518,1436372090384,37.4121079506976
519,1436372091187,34.8568853742826
520,1436372091925,44.8004646078523
521,1436372092597,35.8102035081977
522,1436372093334,39.9763358168292
523,1436372095155,34.853282786953
524,1436372095901,33.0787309547018
525,1436372096708,44.8041484144792
526,1436372097419,45.9640659521198
527,1436372098118,35.2104549927844
528,1436372098794,33.2064599636149
529,1436372099518,30.4147319130018
530,1436372100260,37.172806028733
531,1436372100968,32.3446517070161
532,1436372101746,38.210254493739
533,1436372102401,33.3095903557603
534,1436372103121,34.0648922785509
535,1436372103860,41.6977441612923
536,1436372104507,40.7336412516898
537,1436372105279,33.6968799261062
538,1436372105961,33.5974466123206
539,1436372106772,45.627835710369
540,1436372107502,38.3979258264096
541,1436372108235,48.6326864557459
542,1436372108977,46.3113221577482
543,1436372109720,36.0584291708077
544,1436372110452,35.7861530427008
545,1436372111256,36.4587608397218
546,1436372111979,36.2737554211102
547,1436372112686,36.4808475643387
548,1436372113373,35.2989636439608
549,1436372114108,33.6086433008314
550,1436372114844,33.5697512603576
551,1436372115614,36.3262974891054
552,1436372116312,36.6028119318839
553,1436372116994,38.0327613125113
554,1436372117739,54.7367693115911
555,1436372118450,31.9600070852111
556,1436372119181,33.8300227670876
557,1436372119913,32.3271073141076
558,1436372120654,38.4293580600623
559,1436372121385,36.0271143458369
560,1436372122110,30.9046345595208
561,1436372122819,34.2892491161887
562,1436372123527,39.8847078857602
563,1436372124287,43.1000705518778
564,1436372124916,35.0715327285092
565,1436372125599,35.7759427785982
566,1436372126323,36.9680884436171
567,1436372127060,40.5634202866633
568,1436372127784,33.8851352441687
569,1436372128520,33.5302427617799
570,1436372129268,32.3272504743472
571,1436372129990,36.4617903390928
572,1436372130704,35.8804883534047
573,1436372131425,38.7721771839878
574,1436372132185,39.8081678909146
575,1436372132897,53.9949124976702
