id,attr_time,attr_x,attr_y,attr_z
1,1436986568504,-10.287,-44.883,14.645
2,1436986568523,-10.287,-44.883,14.645
3,1436986568544,-10.287,-44.883,14.645
4,1436986568564,-10.287,-44.883,14.645
5,1436986568585,-10.287,-44.883,14.645
6,1436986568605,-10.287,-44.883,14.645
7,1436986568624,-10.287,-44.883,14.645
8,1436986568646,-10.287,-44.883,14.645
9,1436986568716,-10.287,-44.883,14.645
10,1436986568717,-10.287,-44.883,14.645
11,1436986568718,-10.287,-44.883,14.964
12,1436986568724,-10.287,-44.883,14.964
13,1436986568743,-10.287,-44.883,14.964
14,1436986568789,-10.287,-44.883,14.964
15,1436986568790,-10.287,-44.883,14.964
16,1436986568803,-10.287,-44.883,15.299
17,1436986568825,-10.287,-44.883,15.299
18,1436986568842,-10.287,-44.883,15.299
19,1436986568864,-10.287,-44.883,15.299
20,1436986568883,-10.614,-44.883,15.631
21,1436986568904,-10.614,-44.883,15.631
22,1436986568922,-10.614,-44.883,15.631
23,1436986568945,-10.614,-44.883,15.631
24,1436986568965,-10.614,-44.883,15.631
25,1436986568985,-10.614,-44.883,15.631
26,1436986569005,-10.614,-44.883,15.631
27,1436986569025,-10.614,-44.883,15.631
28,1436986569045,-10.614,-44.883,15.631
29,1436986569063,-10.614,-44.883,15.945
30,1436986569082,-10.614,-44.883,15.945
31,1436986569105,-10.614,-44.883,15.945
32,1436986569125,-10.241,-44.883,15.945
33,1436986569145,-10.241,-44.883,15.945
34,1436986569165,-10.241,-44.883,15.945
35,1436986569185,-10.241,-44.883,15.945
36,1436986569204,-9.887,-44.883,15.945
37,1436986569223,-9.887,-44.883,16.27
38,1436986569244,-9.887,-44.883,16.27
39,1436986569265,-9.887,-44.883,16.27
40,1436986569285,-9.526,-44.883,16.27
41,1436986569305,-9.526,-44.883,16.619
42,1436986569323,-9.526,-44.883,16.619
43,1436986569350,-9.526,-44.883,16.619
44,1436986569473,-9.121,-44.883,16.619
45,1436986569474,-9.121,-44.883,16.972
46,1436986569475,-9.121,-44.883,16.972
47,1436986569476,-9.121,-44.883,16.972
48,1436986569477,-8.766,-44.883,16.972
49,1436986569478,-8.766,-44.883,16.972
50,1436986569544,-8.766,-44.883,17.323
51,1436986569569,-8.766,-44.883,17.323
52,1436986569570,-8.766,-44.883,17.323
53,1436986569571,-8.766,-44.883,17.323
54,1436986569572,-8.766,-44.883,17.323
55,1436986569582,-8.766,-44.883,17.634
56,1436986569620,-8.766,-44.883,17.634
57,1436986569646,-8.766,-44.883,17.634
58,1436986569647,-8.766,-44.883,17.634
59,1436986569662,-8.441,-44.883,17.634
60,1436986569682,-8.441,-44.883,17.634
61,1436986569704,-8.441,-44.883,17.634
62,1436986569725,-8.441,-44.883,17.634
63,1436986569745,-8.441,-44.883,17.634
64,1436986569766,-8.441,-44.883,17.634
65,1436986569785,-8.441,-44.883,17.634
66,1436986569806,-8.441,-44.883,17.634
67,1436986569825,-8.441,-44.883,17.634
68,1436986569842,-8.441,-44.883,17.634
69,1436986569863,-8.781,-44.883,17.634
70,1436986569883,-8.781,-44.883,17.634
71,1436986569902,-8.781,-44.883,17.294
72,1436986569923,-8.781,-44.883,17.294
73,1436986569943,-9.161,-44.883,17.294
74,1436986569968,-9.161,-44.883,17.294
75,1436986569987,-9.161,-44.883,17.294
76,1436986570006,-9.161,-44.883,17.294
77,1436986570022,-9.529,-44.883,16.984
78,1436986570043,-9.529,-44.883,16.984
79,1436986570062,-9.529,-44.883,16.984
80,1436986570087,-9.849,-44.883,16.984
81,1436986570108,-9.849,-44.883,16.984
82,1436986570128,-9.849,-44.883,16.984
83,1436986570144,-9.849,-44.883,16.984
84,1436986570165,-10.174,-44.883,16.984
85,1436986570194,-10.174,-44.883,16.645
86,1436986570208,-10.174,-44.883,16.645
87,1436986570223,-10.174,-44.883,16.645
88,1436986570243,-10.174,-44.883,16.645
89,1436986570262,-10.174,-44.883,16.645
90,1436986570284,-10.174,-44.883,16.645
91,1436986570305,-10.174,-44.883,16.645
92,1436986570322,-10.174,-44.883,16.645
93,1436986570344,-10.174,-44.883,16.645
94,1436986570365,-10.174,-44.883,16.645
95,1436986570386,-10.174,-44.581,16.645
96,1436986570406,-9.814,-44.581,16.645
97,1436986570425,-9.814,-44.581,16.645
98,1436986570446,-9.814,-44.581,16.645
99,1436986570466,-9.814,-44.581,16.645
100,1436986570486,-9.814,-44.581,16.645
101,1436986570506,-9.814,-44.581,16.645
102,1436986570526,-9.814,-44.581,16.645
103,1436986570547,-9.458,-44.581,16.645
104,1436986570563,-9.458,-44.581,16.645
105,1436986570586,-9.458,-44.581,16.645
106,1436986570606,-9.458,-44.581,16.645
107,1436986570626,-9.458,-44.581,17.001
108,1436986570647,-9.458,-44.581,17.001
109,1436986570667,-9.458,-44.581,17.001
110,1436986570686,-9.458,-44.581,17.001
111,1436986570706,-9.458,-44.581,17.001
112,1436986570726,-9.458,-44.581,17.001
113,1436986570746,-9.458,-44.581,17.001
114,1436986570768,-9.458,-44.581,17.001
115,1436986570787,-9.458,-44.581,17.001
116,1436986570809,-9.458,-44.581,17.001
117,1436986570926,-9.458,-44.581,17.001
118,1436986570927,-9.458,-44.581,17.001
119,1436986570928,-9.458,-44.581,17.001
120,1436986570929,-9.458,-44.581,17.001
121,1436986570930,-9.458,-44.581,17.001
122,1436986570931,-9.458,-44.581,17.001
123,1436986570947,-9.458,-44.581,17.001
124,1436986570963,-9.458,-44.581,17.001
125,1436986570983,-9.458,-44.581,17.001
126,1436986571003,-9.458,-44.581,17.001
127,1436986571025,-9.458,-44.581,17.001
128,1436986571043,-9.458,-44.581,17.001
129,1436986571065,-9.767,-44.581,17.001
130,1436986571084,-9.767,-44.581,16.691
131,1436986571105,-9.767,-44.581,16.691
132,1436986571126,-9.767,-44.581,16.691
133,1436986571146,-9.767,-44.581,16.691
134,1436986571167,-9.767,-44.581,16.691
135,1436986571187,-9.767,-44.581,16.691
136,1436986571207,-9.767,-44.581,16.691
137,1436986571226,-9.767,-44.581,16.691
138,1436986571246,-9.767,-44.581,16.691
139,1436986571267,-9.767,-44.581,16.691
140,1436986571287,-9.767,-44.581,16.691
141,1436986571307,-9.767,-44.581,16.691
142,1436986571324,-9.767,-44.581,16.691
143,1436986571347,-9.767,-44.581,16.691
144,1436986571367,-9.767,-44.581,16.691
145,1436986571387,-9.767,-44.581,16.691
146,1436986571407,-9.767,-44.581,16.691
147,1436986571426,-9.767,-44.581,16.691
148,1436986571447,-9.439,-44.581,16.691
149,1436986571467,-9.439,-44.581,16.691
150,1436986571487,-9.439,-44.581,16.691
151,1436986571507,-9.439,-44.581,16.691
152,1436986571526,-9.439,-44.581,17.016
153,1436986571546,-9.439,-44.581,17.016
154,1436986571565,-9.439,-44.581,17.016
155,1436986571584,-9.118,-44.581,17.016
156,1436986571606,-9.118,-44.581,17.016
157,1436986571668,-9.118,-44.581,17.016
158,1436986571669,-9.118,-44.581,17.016
159,1436986571670,-9.118,-44.581,17.016
160,1436986571684,-9.118,-44.581,17.016
161,1436986571707,-9.118,-44.581,17.016
162,1436986571725,-9.118,-44.581,17.016
163,1436986571744,-9.118,-44.581,17.016
164,1436986571773,-9.118,-44.581,17.016
165,1436986571785,-9.118,-44.581,17.016
166,1436986571809,-9.118,-44.581,17.016
167,1436986571827,-9.118,-44.581,17.016
168,1436986571847,-9.118,-44.581,17.016
169,1436986571865,-9.422,-44.581,17.016
170,1436986571886,-9.422,-44.581,17.016
171,1436986571905,-9.422,-44.581,17.016
172,1436986571926,-9.422,-44.581,17.016
173,1436986571946,-9.422,-44.581,17.016
174,1436986571968,-9.422,-44.581,17.016
175,1436986571988,-9.422,-44.581,17.016
176,1436986572008,-9.422,-44.581,17.016
177,1436986572026,-9.422,-44.581,17.016
178,1436986572045,-9.422,-44.581,17.016
179,1436986572066,-9.422,-44.581,17.016
180,1436986572086,-9.422,-44.581,17.016
181,1436986572106,-9.422,-44.581,17.016
182,1436986572126,-9.422,-44.581,17.016
183,1436986572146,-9.422,-44.581,17.016
184,1436986572167,-9.422,-44.581,17.016
185,1436986572188,-9.422,-44.581,17.016
186,1436986572208,-9.422,-44.581,17.016
187,1436986572226,-9.422,-44.581,17.016
188,1436986572246,-9.422,-44.581,17.016
189,1436986572266,-9.422,-44.581,17.016
190,1436986572285,-9.422,-44.581,16.703
191,1436986572306,-9.422,-44.581,16.703
192,1436986572376,-9.422,-44.581,16.703
193,1436986572377,-9.422,-44.581,16.703
194,1436986572388,-9.422,-44.581,16.703
195,1436986572389,-9.422,-44.892,16.703
196,1436986572405,-9.422,-44.892,16.703
197,1436986572428,-9.422,-44.892,16.703
198,1436986572445,-9.422,-44.892,16.703
199,1436986572465,-9.422,-44.892,16.703
200,1436986572485,-9.422,-44.892,16.703
201,1436986572505,-9.422,-44.892,16.703
202,1436986572528,-9.422,-44.892,16.703
203,1436986572546,-9.422,-44.892,16.703
204,1436986572568,-9.422,-44.892,16.703
205,1436986572586,-9.422,-44.892,16.703
206,1436986572608,-9.422,-44.892,16.703
207,1436986572626,-9.422,-44.892,16.398
208,1436986572646,-9.422,-44.892,16.398
209,1436986572668,-9.422,-44.892,16.398
210,1436986572688,-9.422,-44.892,16.398
211,1436986572708,-9.422,-44.892,16.398
212,1436986572726,-9.422,-44.892,16.398
213,1436986572746,-9.422,-44.892,16.398
214,1436986572767,-9.422,-44.892,16.398
215,1436986572786,-9.422,-44.892,16.398
216,1436986572806,-9.422,-44.892,16.398
217,1436986572827,-9.422,-44.892,16.398
218,1436986572847,-9.422,-44.892,16.398
219,1436986572869,-9.422,-44.892,16.398
220,1436986572888,-9.422,-44.892,16.398
221,1436986572905,-9.422,-44.892,16.398
222,1436986572928,-9.422,-44.892,16.398
223,1436986572946,-9.422,-44.892,16.398
224,1436986572967,-9.422,-44.892,16.398
225,1436986572987,-9.422,-44.892,16.398
226,1436986573007,-9.422,-44.892,16.398
227,1436986573027,-9.422,-44.892,16.398
228,1436986573052,-9.422,-44.892,16.734
229,1436986573126,-9.422,-44.892,16.734
230,1436986573127,-9.422,-44.892,16.734
231,1436986573128,-9.422,-44.892,16.734
232,1436986573129,-9.422,-44.892,16.734
233,1436986573147,-9.422,-44.892,16.734
234,1436986573168,-9.422,-44.892,16.734
235,1436986573186,-9.422,-44.892,17.073
236,1436986573212,-9.422,-44.892,17.073
237,1436986573226,-9.422,-44.892,17.073
238,1436986573249,-9.422,-44.892,17.073
239,1436986573269,-9.422,-44.892,17.073
240,1436986573287,-9.422,-44.892,17.073
241,1436986573309,-9.103,-44.892,17.073
242,1436986573328,-9.103,-44.892,17.073
243,1436986573349,-9.103,-44.892,17.373
244,1436986573369,-9.103,-44.892,17.373
245,1436986573389,-8.758,-44.892,17.373
246,1436986573409,-8.758,-44.892,17.373
247,1436986573429,-8.758,-44.892,17.373
248,1436986573449,-8.448,-44.892,17.373
249,1436986573466,-8.448,-44.892,17.373
250,1436986573489,-8.448,-44.892,17.373
251,1436986573507,-8.035,-44.892,17.373
252,1436986573527,-8.035,-44.892,17.373
253,1436986573549,-8.035,-44.892,17.373
254,1436986573569,-7.707,-45.21,17.373
255,1436986573589,-7.707,-45.21,17.373
256,1436986573608,-7.707,-45.21,17.373
257,1436986573629,-7.374,-45.21,17.373
258,1436986573649,-7.374,-45.21,16.94
259,1436986573668,-7.374,-45.559,16.94
260,1436986573689,-7.374,-45.559,16.612
261,1436986573709,-7.07,-45.559,16.612
262,1436986573728,-7.07,-45.559,16.241
263,1436986573748,-7.07,-45.889,15.789
264,1436986573776,-7.07,-45.889,15.789
265,1436986573875,-7.07,-45.889,15.789
266,1436986573876,-7.07,-45.889,15.789
267,1436986573882,-7.07,-46.252,15.789
268,1436986573889,-7.07,-46.252,15.789
269,1436986573890,-7.07,-46.252,15.412
270,1436986573891,-7.07,-46.252,15.412
271,1436986573915,-7.07,-46.589,15.412
272,1436986573934,-7.07,-46.589,15.104
273,1436986573946,-7.07,-46.589,15.104
274,1436986573977,-7.07,-46.589,15.104
275,1436986573987,-7.07,-46.905,14.704
276,1436986574007,-7.07,-46.905,14.704
277,1436986574027,-7.441,-46.905,14.704
278,1436986574048,-7.441,-46.905,14.704
279,1436986574069,-8.444,-47.25,14.323
280,1436986574090,-9.23,-47.25,14.323
281,1436986574109,-9.634,-47.25,14.002
282,1436986574130,-9.634,-47.25,12.399
283,1436986574150,-10.002,-47.572,11.694
284,1436986574167,-10.453,-47.572,10.942
285,1436986574190,-10.453,-47.572,10.231
286,1436986574210,-10.821,-47.572,10.231
287,1436986574229,-10.821,-47.891,8.799
288,1436986574250,-10.476,-47.891,7.968
289,1436986574271,-10.476,-47.891,7.632
290,1436986574289,-10.476,-47.891,7.171
291,1436986574312,-10.476,-48.194,7.171
292,1436986574334,-10.476,-48.194,6.129
293,1436986574349,-10.882,-48.194,6.129
294,1436986574370,-10.882,-48.194,6.129
295,1436986574387,-11.203,-48.583,5.809
296,1436986574407,-11.203,-48.583,5.809
297,1436986574427,-11.203,-48.583,5.809
298,1436986574453,-11.561,-48.583,7.048
299,1436986574474,-11.561,-48.989,7.048
300,1436986574495,-11.561,-48.989,7.048
301,1436986574508,-11.947,-48.989,8.059
302,1436986574531,-11.947,-49.433,8.059
303,1436986574563,-11.947,-49.433,8.911
304,1436986574570,-12.345,-49.777,9.782
305,1436986574633,-12.345,-50.379,10.852
306,1436986574634,-12.345,-51.29,12.498
307,1436986574635,-12.345,-51.806,13.23
308,1436986574656,-12.345,-52.265,14.912
309,1436986574667,-11.952,-52.79,15.84
310,1436986574692,-10.961,-53.118,16.799
311,1436986574707,-10.31,-53.118,17.391
312,1436986574727,-9.515,-53.717,17.391
313,1436986574749,-8.558,-54.104,17.909
314,1436986574769,-7.751,-54.104,18.687
315,1436986574789,-7.153,-54.104,18.988
316,1436986574808,-6.559,-54.85,18.988
317,1436986574832,-6.559,-54.85,19.834
318,1436986574850,-5.847,-54.85,20.306
319,1436986574871,-5.847,-54.85,20.306
320,1436986574890,-5.271,-55.241,19.979
321,1436986574910,-5.271,-55.241,19.979
322,1436986574931,-5.271,-55.241,20.405
323,1436986574950,-5.825,-55.241,20.405
324,1436986574970,-6.546,-55.241,20.405
325,1436986574991,-6.962,-55.241,20.085
326,1436986575010,-7.431,-55.697,20.085
327,1436986575030,-8.297,-55.697,19.657
328,1436986575051,-9.391,-56.021,19.657
329,1436986575071,-10.887,-56.021,19.657
330,1436986575091,-12.313,-56.021,19.657
331,1436986575111,-13.044,-56.401,20.002
332,1436986575131,-13.491,-56.401,20.002
333,1436986575150,-14.674,-56.401,20.002
334,1436986575169,-15.759,-56.401,20.002
335,1436986575201,-16.641,-56.782,20.002
336,1436986575207,-17.315,-56.782,20.002
337,1436986575227,-16.831,-56.782,19.151
338,1436986575247,-16.831,-56.782,18.589
339,1436986575268,-16.831,-56.782,18.048
340,1436986575288,-16.831,-56.782,18.048
341,1436986575308,-17.417,-56.782,17.616
342,1436986575329,-17.797,-57.083,17.616
343,1436986575352,-18.42,-57.083,17.616
344,1436986575368,-18.856,-57.083,17.616
345,1436986575389,-19.186,-57.083,17.309
346,1436986575408,-19.186,-57.083,17.309
347,1436986575428,-19.766,-57.083,17.309
348,1436986575489,-19.766,-57.083,17.309
349,1436986575490,-19.766,-57.083,17.309
350,1436986575491,-19.442,-57.424,18.688
351,1436986575514,-19.442,-57.424,20.098
352,1436986575529,-18.711,-57.424,22.232
353,1436986575553,-18.711,-57.737,24.717
354,1436986575570,-18.711,-57.737,26.2
355,1436986575591,-18.046,-58.065,28.263
356,1436986575612,-17.109,-58.065,30.165
357,1436986575631,-16.04,-59.155,32.33
358,1436986575651,-14.784,-59.611,33.778
359,1436986575670,-13.424,-60.025,34.687
360,1436986575691,-12.466,-60.025,35.603
361,1436986575712,-12.466,-60.513,35.603
362,1436986575733,-12.954,-60.513,37.065
363,1436986575748,-13.491,-60.513,37.846
364,1436986575770,-14.237,-60.513,38.238
365,1436986575791,-14.923,-60.513,37.715
366,1436986575815,-15.934,-60.513,37.715
367,1436986575832,-16.744,-60.513,37.715
368,1436986575851,-17.597,-60.513,38.166
369,1436986575872,-17.597,-60.905,38.751
370,1436986575891,-17.597,-60.905,39.555
371,1436986575913,-17.225,-60.905,40.847
372,1436986575938,-16.503,-60.905,42.208
373,1436986575951,-15.948,-60.905,43.882
374,1436986575970,-15.519,-60.905,44.712
375,1436986576081,-15.519,-58.25,45.82
376,1436986576082,-15.519,-55.351,45.82
377,1436986576083,-16.824,-53.096,46.121
378,1436986576084,-17.713,-49.981,46.121
379,1436986576085,-18.548,-46.919,45.419
380,1436986576120,-19.361,-44.02,44.906
381,1436986576121,-19.361,-41.793,43.843
382,1436986576129,-18.663,-39.309,43.843
383,1436986576149,-17.817,-37.4,43.087
384,1436986576169,-17.204,-35.111,42.17
385,1436986576201,-16.796,-33.551,42.675
386,1436986576220,-15.724,-31.974,42.675
387,1436986576229,-13.973,-30.508,42.675
388,1436986576249,-11.83,-28.75,42.675
389,1436986576269,-9.498,-27.778,43.577
390,1436986576289,-7.049,-26.979,43.577
391,1436986576309,-6.011,-26.632,43.577
392,1436986576346,-5.349,-26.002,42.93
393,1436986576347,-5.349,-25.607,42.604
394,1436986576367,-6.108,-25.137,41.754
395,1436986576387,-6.542,-25.137,41.754
396,1436986576408,-6.542,-25.137,41.368
397,1436986576428,-6.542,-25.137,40.934
398,1436986576448,-6.542,-24.588,40.467
399,1436986576469,-6.542,-23.934,40.025
400,1436986576488,-6.542,-23.934,39.503
401,1436986576508,-6.925,-23.934,38.536
402,1436986576529,-6.369,-23.609,37.802
403,1436986576549,-5.924,-23.287,36.999
404,1436986576568,-5.435,-22.898,36.012
405,1436986576587,-4.734,-22.898,35.292
406,1436986576607,-4.734,-22.898,34.437
407,1436986576628,-4.153,-22.898,34.13
408,1436986576648,-3.668,-22.303,33.422
409,1436986576669,-2.069,-21.783,32.991
410,1436986576689,-0.643,-21.232,32.508
411,1436986576708,0.703,-20.652,32.119
412,1436986576728,1.763,-20.19,32.119
413,1436986576748,2.36,-20.19,31.588
414,1436986576768,2.975,-19.746,30.969
415,1436986576788,3.468,-19.406,30.555
416,1436986576811,4.093,-19.406,29.859
417,1436986576829,3.617,-19.406,29.33
418,1436986576849,2.719,-19.406,28.996
419,1436986576872,2.252,-19.406,28.282
420,1436986576892,1.385,-19.406,28.282
421,1436986576912,0.52,-18.917,27.844
422,1436986576932,-0.132,-18.917,27.844
423,1436986576952,-0.132,-18.917,27.091
424,1436986576973,-0.132,-18.917,26.498
425,1436986576993,0.553,-18.917,26.498
426,1436986577013,1.145,-18.917,25.765
427,1436986577032,1.641,-18.542,25.14
428,1436986577052,2.056,-18.542,25.14
429,1436986577069,2.056,-18.199,24.765
430,1436986577093,2.397,-18.199,23.915
431,1436986577112,2.397,-18.199,23.377
432,1436986577131,2.397,-17.826,23.377
433,1436986577149,2.397,-17.826,22.428
434,1436986577173,2.397,-17.826,21.406
435,1436986577193,2.397,-17.826,20.935
436,1436986577213,2.076,-17.826,20.376
437,1436986577232,2.076,-17.826,19.812
438,1436986577252,2.076,-17.524,19.351
439,1436986577272,2.076,-17.524,19.351
440,1436986577292,2.076,-17.524,19.351
441,1436986577312,2.076,-17.524,19.351
442,1436986577395,2.076,-17.524,19.351
443,1436986577396,2.473,-17.524,19.027
444,1436986577397,2.473,-17.524,19.363
445,1436986577398,2.964,-17.524,19.363
446,1436986577414,2.964,-17.524,19.363
447,1436986577436,3.273,-17.524,19.763
448,1436986577452,3.273,-17.913,19.36
449,1436986577483,3.273,-17.913,19.36
450,1436986577501,3.273,-17.913,19.36
451,1436986577510,3.273,-18.273,19.36
452,1436986577537,3.273,-18.273,19.36
453,1436986577551,3.273,-18.609,18.946
454,1436986577574,3.273,-18.609,18.946
455,1436986577590,3.66,-18.943,18.946
456,1436986577613,3.66,-18.943,18.569
457,1436986577633,4.026,-19.255,18.569
458,1436986577653,4.57,-19.255,18.569
459,1436986577673,5.81,-19.638,18.569
460,1436986577693,6.718,-20.233,18.162
461,1436986577713,7.572,-21.13,18.162
462,1436986577733,8.648,-21.861,17.268
463,1436986577753,9.193,-22.921,16.409
464,1436986577772,9.193,-23.353,16.409
465,1436986577794,9.193,-23.974,15.716
466,1436986577812,9.193,-24.591,15.716
467,1436986577833,8.473,-24.591,16.03
468,1436986577851,8.091,-25.108,16.03
469,1436986577875,7.727,-25.108,16.03
470,1436986577895,7.727,-25.541,16.03
471,1436986577914,7.727,-25.907,16.03
472,1436986577934,7.727,-26.211,16.03
473,1436986577953,8.467,-26.788,15.673
474,1436986577974,8.467,-27.146,15.673
475,1436986577993,8.831,-27.146,15.673
476,1436986578013,8.831,-27.458,15.228
477,1436986578039,9.155,-27.458,15.228
478,1436986578112,9.155,-27.828,15.228
479,1436986578113,9.757,-27.828,15.228
480,1436986578114,9.757,-27.828,14.906
481,1436986578115,9.757,-27.828,14.906
482,1436986578132,9.757,-27.828,14.906
483,1436986578151,9.757,-27.828,15.266
484,1436986578171,10.102,-28.182,15.266
485,1436986578192,10.61,-28.182,15.266
486,1436986578225,11.193,-28.182,15.66
487,1436986578232,12.086,-28.182,15.66
488,1436986578251,12.779,-28.543,15.66
489,1436986578272,13.334,-28.543,15.66
490,1436986578294,13.766,-28.932,15.66
491,1436986578311,14.584,-28.932,14.686
492,1436986578334,14.967,-29.235,13.633
493,1436986578354,15.425,-29.235,11.991
494,1436986578374,15.425,-29.235,10.566
495,1436986578394,14.595,-29.235,10.162
496,1436986578414,14.595,-29.573,8.947
497,1436986578434,13.888,-29.573,8.947
498,1436986578454,13.888,-29.573,7.829
499,1436986578474,13.482,-29.573,6.773
500,1436986578492,13.087,-29.939,6.134
501,1436986578512,12.739,-29.939,5.722
502,1436986578534,12.428,-29.939,4.649
503,1436986578552,12.086,-29.939,4.339
