id,attr_time,attr_x,attr_y,attr_z
1,1436464501038,-7.513,-43.667,-14.265
2,1436464501049,-7.513,-43.667,-14.265
3,1436464501067,-7.513,-43.667,-14.265
4,1436464501089,-7.513,-43.667,-14.265
5,1436464501107,-7.513,-43.667,-14.265
6,1436464501129,-7.82,-43.667,-14.265
7,1436464501148,-7.82,-43.667,-14.265
8,1436464501169,-7.82,-43.667,-14.265
9,1436464501191,-7.82,-43.667,-14.265
10,1436464501210,-7.82,-43.667,-14.265
11,1436464501230,-7.82,-43.667,-14.265
12,1436464501248,-7.82,-43.667,-14.265
13,1436464501270,-7.82,-43.667,-13.94
14,1436464501291,-8.172,-43.667,-13.94
15,1436464501310,-8.172,-43.667,-13.94
16,1436464501330,-8.172,-43.667,-13.94
17,1436464501350,-8.172,-43.667,-13.94
18,1436464501369,-8.172,-43.667,-13.94
19,1436464501389,-8.48,-43.667,-13.94
20,1436464501410,-8.48,-43.667,-13.94
21,1436464501429,-8.48,-43.667,-13.94
22,1436464501450,-8.48,-43.667,-13.566
23,1436464501469,-8.813,-43.667,-13.566
24,1436464501491,-8.813,-43.667,-13.566
25,1436464501511,-8.813,-43.667,-13.566
26,1436464501531,-8.813,-43.667,-13.246
27,1436464501551,-9.167,-43.667,-13.246
28,1436464501568,-9.167,-43.667,-13.246
29,1436464501590,-9.167,-43.667,-13.246
30,1436464501609,-9.167,-43.667,-12.87
31,1436464501720,-9.506,-43.667,-12.87
32,1436464501721,-9.506,-43.667,-12.87
33,1436464501722,-9.506,-43.667,-12.87
34,1436464501723,-9.506,-43.667,-12.544
35,1436464501724,-9.506,-43.667,-12.544
36,1436464501739,-9.854,-43.667,-12.544
37,1436464501750,-9.854,-43.667,-12.544
38,1436464501770,-9.854,-43.667,-12.229
39,1436464501788,-9.854,-43.667,-12.229
40,1436464501811,-9.854,-43.667,-12.229
41,1436464501828,-10.168,-43.667,-12.229
42,1436464501851,-10.168,-43.667,-12.229
43,1436464501869,-10.168,-43.667,-11.927
44,1436464501892,-10.168,-43.667,-11.927
45,1436464501911,-10.168,-43.667,-11.927
46,1436464501931,-10.168,-43.667,-11.927
47,1436464501951,-10.168,-43.667,-11.927
48,1436464501968,-10.168,-43.667,-11.927
49,1436464501992,-10.168,-43.667,-11.927
50,1436464502011,-10.168,-43.667,-11.927
51,1436464502031,-10.168,-43.667,-11.927
52,1436464502051,-10.168,-43.667,-11.927
53,1436464502068,-10.168,-43.667,-11.927
54,1436464502093,-10.168,-43.667,-11.927
55,1436464502108,-10.168,-43.667,-11.927
56,1436464502131,-10.168,-43.667,-11.927
57,1436464502151,-10.168,-43.667,-11.927
58,1436464502172,-10.168,-43.667,-11.927
59,1436464502192,-10.168,-43.667,-11.927
60,1436464502211,-10.168,-43.667,-11.927
61,1436464502231,-9.84,-43.667,-11.927
62,1436464502251,-9.84,-43.969,-11.927
63,1436464502271,-9.84,-43.969,-11.927
64,1436464502292,-9.84,-43.969,-11.927
65,1436464502311,-9.84,-43.969,-11.927
66,1436464502356,-9.526,-43.969,-11.927
67,1436464502357,-9.526,-43.969,-11.927
68,1436464502372,-9.526,-43.969,-11.927
69,1436464502423,-9.526,-43.969,-11.927
70,1436464502424,-9.526,-43.969,-11.927
71,1436464502438,-9.526,-43.969,-11.927
72,1436464502450,-9.526,-43.969,-11.927
73,1436464502471,-9.526,-43.969,-11.927
74,1436464502490,-9.526,-43.969,-11.927
75,1436464502509,-9.526,-43.969,-11.927
76,1436464502539,-9.526,-43.969,-11.927
77,1436464502566,-9.526,-43.969,-11.927
78,1436464502572,-9.526,-43.969,-11.927
79,1436464502599,-9.526,-43.969,-11.927
80,1436464502608,-9.526,-43.969,-11.927
81,1436464502630,-9.526,-43.969,-11.927
82,1436464502649,-9.526,-43.969,-11.927
83,1436464502670,-9.526,-43.969,-11.927
84,1436464502696,-9.526,-43.969,-11.927
85,1436464502711,-9.526,-43.969,-11.927
86,1436464502742,-9.526,-43.969,-11.927
87,1436464502756,-9.526,-43.969,-11.927
88,1436464502853,-9.526,-43.969,-11.57
89,1436464502854,-9.526,-43.969,-11.57
90,1436464502855,-9.526,-43.969,-11.57
91,1436464502856,-9.526,-43.969,-11.57
92,1436464502857,-9.526,-43.969,-11.218
93,1436464502868,-9.526,-43.969,-11.218
94,1436464502888,-9.526,-43.969,-11.218
95,1436464502908,-9.526,-43.969,-10.899
96,1436464502930,-9.526,-43.969,-10.899
97,1436464502950,-9.526,-43.969,-10.899
98,1436464502970,-9.863,-43.969,-10.899
99,1436464502989,-9.863,-43.969,-10.592
100,1436464503015,-9.863,-43.969,-10.592
101,1436464503036,-9.863,-43.969,-10.592
102,1436464503056,-9.863,-43.969,-10.292
103,1436464503069,-10.223,-43.969,-10.292
104,1436464503093,-10.223,-43.969,-10.292
105,1436464503179,-10.223,-43.969,-9.936
106,1436464503180,-10.223,-43.969,-9.936
107,1436464503181,-10.223,-43.969,-9.936
108,1436464503182,-10.585,-43.969,-9.619
109,1436464503200,-10.585,-43.969,-9.619
110,1436464503213,-10.585,-43.969,-9.619
111,1436464503228,-10.585,-43.969,-9.301
112,1436464503248,-10.585,-43.969,-9.301
113,1436464503268,-10.951,-43.969,-9.301
114,1436464503289,-10.951,-43.969,-9.301
115,1436464503309,-10.951,-43.969,-8.987
116,1436464503332,-10.951,-43.969,-8.987
117,1436464503352,-10.951,-43.969,-8.987
118,1436464503369,-11.265,-43.969,-8.633
119,1436464503392,-11.265,-43.969,-8.633
120,1436464503409,-11.265,-43.969,-8.633
121,1436464503432,-11.265,-43.969,-8.633
122,1436464503453,-11.584,-43.969,-8.633
123,1436464503471,-11.584,-43.969,-8.296
124,1436464503492,-11.584,-43.969,-8.296
125,1436464503509,-11.584,-43.969,-8.296
126,1436464503528,-11.903,-43.969,-8.296
127,1436464503552,-11.903,-43.969,-8.296
128,1436464503571,-11.903,-43.969,-7.949
129,1436464503592,-11.903,-43.969,-7.949
130,1436464503610,-12.217,-43.969,-7.949
131,1436464503630,-12.217,-43.969,-7.949
132,1436464503649,-12.217,-43.969,-7.949
133,1436464503670,-12.217,-43.969,-7.601
134,1436464503692,-12.539,-43.969,-7.601
135,1436464503711,-12.539,-43.969,-7.601
136,1436464503732,-12.539,-43.969,-7.601
137,1436464503751,-12.539,-43.644,-7.286
138,1436464503776,-12.881,-43.644,-7.286
139,1436464503841,-12.881,-43.644,-7.286
140,1436464503842,-12.881,-43.644,-7.286
141,1436464503843,-12.881,-43.644,-7.286
142,1436464503852,-13.211,-43.644,-6.935
143,1436464503869,-13.211,-43.644,-6.935
144,1436464503893,-13.211,-43.644,-6.935
145,1436464503910,-13.211,-43.644,-6.935
146,1436464503929,-13.211,-43.644,-6.935
147,1436464503950,-13.572,-43.644,-6.935
148,1436464503969,-13.572,-43.644,-6.935
149,1436464503991,-13.572,-43.644,-6.597
150,1436464504018,-13.572,-43.644,-6.597
151,1436464504031,-13.572,-43.644,-6.597
152,1436464504052,-13.885,-43.644,-6.597
153,1436464504073,-13.885,-43.644,-6.597
154,1436464504093,-13.885,-43.644,-6.597
155,1436464504113,-13.885,-43.644,-6.597
156,1436464504132,-13.885,-43.644,-6.597
157,1436464504153,-13.885,-43.644,-6.597
158,1436464504173,-14.195,-43.644,-6.597
159,1436464504193,-14.195,-43.644,-6.953
160,1436464504213,-14.195,-43.644,-6.953
161,1436464504232,-14.195,-43.644,-6.953
162,1436464504250,-14.195,-43.644,-7.394
163,1436464504273,-14.195,-43.644,-8.068
164,1436464504293,-14.195,-43.644,-8.447
165,1436464504313,-14.195,-43.644,-9.265
166,1436464504331,-14.195,-43.644,-9.265
167,1436464504352,-14.195,-43.644,-10.14
168,1436464504373,-13.874,-43.644,-10.441
169,1436464504393,-13.874,-43.644,-11.268
170,1436464504413,-13.874,-43.293,-11.59
171,1436464504430,-13.874,-43.293,-12.335
172,1436464504452,-13.459,-43.293,-13.15
173,1436464504471,-13.459,-43.293,-13.15
174,1436464504492,-13.459,-43.293,-13.861
175,1436464504510,-13.02,-43.293,-14.694
176,1436464504531,-13.02,-42.91,-15.425
177,1436464504582,-13.02,-42.91,-15.928
178,1436464504583,-12.554,-42.91,-16.516
179,1436464504601,-12.554,-42.91,-17.622
180,1436464504610,-12.213,-42.518,-18.333
181,1436464504631,-12.213,-42.518,-18.887
182,1436464504652,-11.853,-42.518,-19.294
183,1436464504670,-11.853,-42.141,-20.082
184,1436464504690,-11.419,-42.141,-20.738
185,1436464504712,-10.858,-42.141,-20.738
186,1436464504734,-10.331,-41.708,-21.748
187,1436464504752,-10.331,-41.708,-21.748
188,1436464504771,-9.693,-41.404,-21.408
189,1436464504792,-9.693,-41.404,-21.408
190,1436464504812,-9.693,-41.404,-21.408
191,1436464504834,-9.693,-41.072,-21.073
192,1436464504852,-9.693,-41.072,-20.35
193,1436464504874,-9.693,-41.072,-20.812
194,1436464504894,-9.693,-41.072,-20.399
195,1436464504914,-9.693,-41.072,-19.898
196,1436464504934,-9.303,-41.072,-19.898
197,1436464504952,-9.303,-41.072,-20.32
198,1436464504974,-9.303,-41.072,-20.635
199,1436464504992,-9.303,-41.072,-20.635
200,1436464505011,-9.303,-41.072,-20.635
201,1436464505034,-9.303,-41.072,-20.635
202,1436464505051,-9.303,-41.072,-20.635
203,1436464505072,-9.303,-41.072,-20.635
204,1436464505092,-9.303,-41.072,-20.635
205,1436464505114,-9.303,-41.072,-20.635
206,1436464505134,-9.303,-41.072,-20.324
207,1436464505154,-9.303,-41.072,-20.324
208,1436464505172,-9.675,-41.072,-20.324
209,1436464505193,-9.675,-41.072,-20.324
210,1436464505211,-9.675,-41.072,-20.324
211,1436464505232,-9.991,-41.072,-20.324
212,1436464505252,-9.991,-41.072,-20.324
213,1436464505271,-9.991,-41.072,-20.324
214,1436464505315,-9.991,-41.072,-20.324
215,1436464505316,-9.991,-41.072,-20.324
216,1436464505340,-10.307,-41.072,-20.324
217,1436464505351,-10.307,-41.072,-20.324
218,1436464505374,-10.307,-41.072,-20.324
219,1436464505392,-10.307,-41.072,-20.324
220,1436464505411,-10.307,-41.072,-20.324
221,1436464505432,-10.307,-41.072,-20.324
222,1436464505451,-10.307,-41.072,-20.324
223,1436464505473,-10.307,-41.072,-20.324
224,1436464505492,-10.307,-41.072,-20.324
225,1436464505514,-10.307,-41.072,-20.324
226,1436464505532,-10.307,-41.072,-20.324
227,1436464505552,-10.307,-41.072,-20.324
228,1436464505573,-10.307,-41.072,-20.019
229,1436464505594,-10.307,-41.072,-20.019
230,1436464505614,-9.913,-41.072,-20.019
231,1436464505634,-9.913,-41.072,-20.019
232,1436464505652,-9.913,-41.072,-20.019
233,1436464505672,-9.533,-41.072,-20.019
234,1436464505694,-9.533,-41.374,-20.019
235,1436464505712,-9.533,-41.374,-20.019
236,1436464505732,-9.048,-41.374,-20.019
237,1436464505754,-9.048,-41.374,-20.019
238,1436464505772,-8.483,-41.374,-20.019
239,1436464505795,-8.143,-41.374,-20.019
240,1436464505811,-7.71,-41.374,-20.433
241,1436464505832,-7.71,-41.374,-20.433
242,1436464505856,-7.139,-41.374,-20.433
243,1436464505873,-6.729,-41.374,-20.779
244,1436464505895,-6.376,-41.374,-20.779
245,1436464505915,-6.022,-41.374,-20.779
246,1436464505932,-6.022,-41.374,-21.141
247,1436464505953,-5.577,-41.374,-21.141
248,1436464505971,-5.577,-41.374,-21.141
249,1436464505992,-5.577,-41.374,-21.501
250,1436464506039,-5.577,-41.374,-21.501
251,1436464506040,-5.245,-41.374,-21.501
252,1436464506062,-5.245,-41.374,-21.813
253,1436464506071,-5.245,-41.374,-21.813
254,1436464506095,-5.245,-41.374,-21.813
255,1436464506112,-4.824,-41.374,-21.813
256,1436464506132,-4.824,-41.374,-22.137
257,1436464506154,-4.51,-41.374,-22.137
258,1436464506172,-4.51,-41.374,-22.137
259,1436464506194,-4.51,-41.374,-22.137
260,1436464506220,-4.089,-41.374,-22.137
261,1436464506233,-4.089,-41.374,-22.137
262,1436464506252,-4.089,-41.374,-22.137
263,1436464506273,-3.747,-41.374,-22.474
264,1436464506293,-3.747,-41.374,-22.474
265,1436464506315,-3.747,-41.374,-22.474
266,1436464506335,-3.747,-41.374,-22.474
267,1436464506355,-3.747,-41.374,-22.474
268,1436464506374,-3.747,-41.374,-22.474
269,1436464506393,-3.747,-41.374,-22.474
270,1436464506415,-3.747,-41.374,-22.474
271,1436464506433,-3.747,-41.374,-22.474
272,1436464506453,-3.747,-41.374,-22.474
273,1436464506472,-3.747,-41.374,-22.474
274,1436464506493,-3.443,-41.374,-22.474
275,1436464506515,-3.443,-41.374,-22.474
276,1436464506533,-3.443,-41.374,-22.474
277,1436464506555,-3.443,-41.374,-22.474
278,1436464506573,-3.443,-41.374,-22.474
279,1436464506592,-3.443,-41.374,-22.474
280,1436464506613,-3.443,-41.374,-22.474
281,1436464506635,-3.443,-41.374,-22.474
282,1436464506653,-3.443,-41.374,-22.474
283,1436464506674,-3.443,-41.374,-22.474
284,1436464506694,-3.443,-41.374,-22.474
285,1436464506718,-3.443,-41.374,-22.474
286,1436464506767,-3.767,-41.374,-22.474
287,1436464506768,-3.767,-41.374,-22.474
288,1436464506772,-3.767,-41.374,-22.474
289,1436464506792,-3.767,-41.374,-22.474
290,1436464506815,-3.767,-41.374,-22.474
291,1436464506835,-3.767,-41.374,-22.474
292,1436464506852,-4.092,-41.374,-22.152
293,1436464506872,-4.092,-41.374,-22.152
294,1436464506893,-4.092,-41.374,-22.152
295,1436464506916,-4.092,-41.374,-22.152
296,1436464506933,-4.092,-41.374,-22.152
297,1436464506953,-4.092,-41.374,-22.152
298,1436464506974,-4.396,-41.374,-22.152
299,1436464506995,-4.396,-41.374,-22.152
300,1436464507016,-4.396,-41.374,-22.152
301,1436464507033,-4.396,-41.374,-22.152
302,1436464507056,-4.396,-41.374,-22.152
303,1436464507076,-4.396,-41.374,-22.152
304,1436464507095,-4.396,-41.374,-22.152
305,1436464507116,-4.396,-41.374,-22.152
306,1436464507136,-4.396,-41.374,-22.152
307,1436464507154,-4.396,-41.374,-22.152
308,1436464507176,-4.396,-41.374,-22.152
309,1436464507196,-4.396,-41.374,-22.152
310,1436464507215,-4.396,-41.374,-22.152
311,1436464507238,-4.396,-41.374,-22.152
312,1436464507257,-4.396,-41.374,-22.152
313,1436464507277,-4.396,-41.374,-22.152
314,1436464507294,-4.396,-41.374,-22.152
315,1436464507313,-4.396,-41.374,-22.152
316,1436464507334,-4.396,-41.374,-22.462
317,1436464507353,-4.396,-41.374,-22.462
318,1436464507377,-4.396,-41.374,-22.462
319,1436464507399,-4.396,-41.374,-22.462
320,1436464507418,-4.396,-41.374,-22.462
321,1436464507436,-4.396,-41.374,-22.462
322,1436464507459,-4.396,-41.374,-22.795
323,1436464507531,-4.396,-41.374,-22.795
324,1436464507534,-4.396,-41.374,-22.795
325,1436464507535,-4.396,-41.065,-22.795
326,1436464507536,-4.396,-41.065,-22.795
327,1436464507554,-4.396,-41.065,-23.11
328,1436464507576,-4.396,-41.065,-23.11
329,1436464507593,-4.396,-41.065,-23.11
330,1436464507613,-4.396,-40.733,-23.11
331,1436464507635,-4.396,-40.733,-23.11
332,1436464507654,-4.396,-40.733,-23.11
333,1436464507675,-4.396,-40.733,-23.455
334,1436464507694,-4.396,-40.733,-23.455
335,1436464507715,-4.396,-40.733,-23.455
336,1436464507737,-4.396,-40.733,-23.455
337,1436464507757,-4.396,-40.733,-23.455
338,1436464507776,-4.396,-40.733,-23.455
339,1436464507797,-4.396,-40.733,-23.455
340,1436464507817,-4.396,-40.733,-23.455
341,1436464507836,-4.396,-40.733,-23.455
342,1436464507857,-4.396,-40.733,-23.455
343,1436464507874,-4.396,-40.733,-23.455
344,1436464507897,-4.396,-40.733,-23.455
345,1436464507914,-4.713,-40.733,-23.455
346,1436464507938,-4.713,-40.733,-23.455
347,1436464507957,-4.713,-40.733,-23.455
348,1436464507978,-4.713,-40.733,-23.455
349,1436464507998,-4.713,-40.733,-23.455
350,1436464508017,-4.713,-40.733,-23.455
351,1436464508036,-4.713,-40.733,-23.455
352,1436464508054,-4.713,-40.733,-23.455
353,1436464508074,-4.713,-40.733,-23.455
354,1436464508097,-4.713,-40.733,-23.455
355,1436464508119,-5.02,-40.733,-23.455
356,1436464508139,-5.02,-40.733,-23.455
357,1436464508159,-5.02,-40.733,-23.455
358,1436464508178,-5.02,-40.733,-23.455
359,1436464508197,-5.02,-40.733,-23.455
360,1436464508259,-5.02,-40.733,-23.455
361,1436464508260,-5.02,-40.733,-23.455
362,1436464508261,-5.34,-40.733,-23.455
363,1436464508282,-5.34,-40.733,-23.455
364,1436464508295,-5.34,-40.733,-23.455
365,1436464508318,-5.34,-40.733,-23.455
366,1436464508334,-5.34,-40.365,-23.455
367,1436464508354,-5.34,-40.365,-23.455
368,1436464508376,-5.34,-40.365,-23.455
369,1436464508395,-5.34,-40.365,-23.455
370,1436464508415,-5.34,-40.365,-23.455
371,1436464508435,-5.34,-40.365,-23.455
372,1436464508460,-5.34,-40.365,-23.455
373,1436464508478,-5.34,-40.365,-23.455
374,1436464508497,-5.34,-40.365,-23.455
375,1436464508517,-5.34,-40.365,-23.455
376,1436464508543,-5.659,-40.365,-23.455
377,1436464508554,-5.659,-40.365,-23.455
378,1436464508574,-5.659,-40.365,-23.455
379,1436464508594,-5.659,-40.365,-23.455
380,1436464508614,-5.659,-40.365,-23.455
381,1436464508635,-5.659,-40.365,-23.455
382,1436464508655,-5.659,-40.365,-23.455
383,1436464508677,-5.659,-40.365,-23.455
384,1436464508697,-5.659,-40.365,-23.455
385,1436464508714,-5.659,-40.365,-23.455
386,1436464508734,-5.659,-40.365,-23.101
387,1436464508755,-5.659,-40.365,-23.101
388,1436464508779,-5.659,-40.365,-23.101
389,1436464508800,-5.659,-40.365,-23.101
390,1436464508819,-5.659,-40.365,-23.101
391,1436464508834,-5.979,-40.687,-22.799
392,1436464508854,-5.979,-40.687,-22.799
393,1436464508874,-5.979,-40.687,-22.799
394,1436464508895,-5.979,-40.687,-22.799
395,1436464508914,-5.979,-40.687,-22.799
396,1436464508955,-5.979,-40.687,-22.799
397,1436464508956,-5.979,-40.687,-22.477
398,1436464508980,-5.979,-40.687,-22.477
399,1436464508995,-5.979,-40.687,-22.477
400,1436464509014,-5.979,-40.687,-22.477
401,1436464509035,-5.979,-40.687,-22.477
402,1436464509055,-5.979,-40.995,-22.477
403,1436464509076,-5.979,-40.995,-22.477
404,1436464509099,-5.979,-40.995,-22.477
405,1436464509114,-5.979,-40.995,-22.477
406,1436464509137,-5.979,-40.995,-22.477
407,1436464509155,-5.979,-40.995,-22.477
408,1436464509178,-5.979,-40.995,-22.477
409,1436464509195,-5.979,-40.995,-22.477
410,1436464509218,-5.979,-40.995,-22.172
411,1436464509238,-5.979,-40.995,-22.172
412,1436464509258,-5.979,-40.995,-22.172
413,1436464509278,-5.979,-40.995,-22.172
414,1436464509298,-5.979,-40.995,-22.172
415,1436464509318,-5.979,-40.995,-22.172
416,1436464509338,-5.979,-40.995,-22.172
417,1436464509355,-5.979,-40.995,-22.172
418,1436464509378,-5.979,-40.995,-22.172
419,1436464509396,-5.979,-40.995,-22.172
420,1436464509418,-5.979,-40.995,-22.172
421,1436464509438,-5.979,-40.995,-22.172
422,1436464509458,-5.979,-40.995,-22.172
423,1436464509477,-6.311,-40.995,-22.172
424,1436464509495,-6.311,-40.995,-22.172
425,1436464509515,-6.311,-40.995,-22.172
426,1436464509535,-6.311,-40.995,-22.172
427,1436464509557,-6.311,-40.995,-22.172
428,1436464509578,-6.311,-40.995,-22.172
429,1436464509599,-6.62,-40.995,-22.172
430,1436464509619,-6.62,-40.995,-22.172
431,1436464509638,-6.62,-40.995,-22.172
432,1436464509659,-6.62,-40.995,-22.172
433,1436464509712,-6.62,-40.995,-22.172
434,1436464509713,-6.95,-40.995,-21.873
435,1436464509717,-6.95,-40.995,-21.873
436,1436464509735,-6.95,-40.995,-21.873
437,1436464509756,-6.95,-40.995,-21.873
438,1436464509777,-6.95,-40.995,-21.873
439,1436464509795,-6.95,-40.995,-21.873
440,1436464509815,-7.266,-40.995,-21.873
441,1436464509835,-7.266,-40.995,-21.873
442,1436464509856,-7.266,-40.644,-21.873
443,1436464509880,-7.266,-40.644,-21.873
444,1436464509896,-7.266,-40.644,-21.873
445,1436464509920,-7.266,-40.644,-21.873
446,1436464509938,-7.266,-40.644,-22.206
447,1436464509959,-7.266,-40.644,-22.206
448,1436464509978,-7.266,-40.644,-22.206
449,1436464509999,-7.266,-40.644,-22.206
450,1436464510023,-7.266,-40.644,-22.206
451,1436464510036,-7.266,-40.644,-22.206
452,1436464510058,-7.266,-40.644,-22.206
453,1436464510078,-7.266,-40.325,-22.506
454,1436464510098,-6.877,-40.325,-22.506
455,1436464510115,-6.877,-40.325,-22.506
456,1436464510135,-6.877,-40.325,-22.506
457,1436464510158,-6.529,-40.325,-22.865
458,1436464510178,-6.529,-40.325,-22.865
459,1436464510244,-6.529,-40.325,-22.865
460,1436464510245,-6.112,-40.325,-22.865
461,1436464510246,-6.112,-40.325,-23.184
462,1436464510255,-5.809,-40.325,-23.184
463,1436464510275,-5.809,-40.325,-23.184
464,1436464510295,-5.809,-40.325,-23.545
465,1436464510315,-5.406,-40.325,-23.545
466,1436464510336,-5.406,-40.325,-23.545
467,1436464510356,-5.406,-40.325,-23.907
468,1436464510376,-5.073,-40.325,-23.907
469,1436464510416,-5.073,-40.325,-23.907
470,1436464510423,-5.073,-40.325,-24.217
471,1436464510436,-5.073,-40.325,-24.217
472,1436464510456,-5.073,-40.325,-24.217
473,1436464510477,-5.073,-40.325,-24.217
474,1436464510497,-5.073,-40.325,-24.217
475,1436464510516,-5.073,-40.325,-24.217
476,1436464510548,-5.073,-40.325,-24.217
477,1436464510556,-5.073,-40.325,-24.217
478,1436464510576,-5.073,-40.325,-24.217
479,1436464510596,-5.073,-40.325,-24.217
480,1436464510616,-5.073,-40.325,-24.217
481,1436464510636,-5.073,-40.325,-24.217
482,1436464510656,-5.073,-40.325,-24.217
483,1436464510676,-5.073,-40.325,-24.217
484,1436464510696,-5.073,-40.325,-24.217
485,1436464510716,-5.073,-40.325,-24.217
486,1436464510736,-5.073,-40.325,-23.86
487,1436464510756,-5.073,-40.325,-23.86
488,1436464510777,-5.397,-40.325,-23.86
489,1436464510799,-5.397,-40.325,-23.86
490,1436464510817,-5.397,-40.325,-23.86
