id,attr_time,attr_x,attr_y,attr_z
1,1436464501017,-14.352,18.786,-1.649
2,1436464501039,-14.352,18.786,-1.992
3,1436464501059,-14.352,18.786,-1.992
4,1436464501079,-14.352,18.786,-1.992
5,1436464501096,-14.352,18.786,-1.992
6,1436464501118,-14.352,18.786,-1.992
7,1436464501136,-14.352,18.786,-2.362
8,1436464501159,-14.352,18.786,-2.362
9,1436464501176,-14.352,18.786,-2.362
10,1436464501196,-14.352,18.786,-2.362
11,1436464501216,-14.352,18.786,-2.69
12,1436464501241,-14.352,18.786,-2.69
13,1436464501260,-14.352,18.786,-2.69
14,1436464501281,-14.016,18.786,-2.69
15,1436464501299,-14.016,19.111,-2.69
16,1436464501316,-14.016,19.111,-3.034
17,1436464501336,-14.016,19.111,-3.034
18,1436464501356,-14.016,19.111,-3.034
19,1436464501377,-14.016,19.111,-3.034
20,1436464501402,-14.016,19.111,-3.034
21,1436464501454,-14.016,19.111,-3.392
22,1436464501458,-14.016,19.415,-3.392
23,1436464501459,-14.016,19.415,-3.392
24,1436464501477,-13.716,19.415,-3.392
25,1436464501497,-13.716,19.415,-3.392
26,1436464501521,-13.716,19.415,-3.392
27,1436464501536,-13.716,19.415,-3.392
28,1436464501556,-13.716,19.725,-3.392
29,1436464501577,-13.716,19.725,-3.392
30,1436464501598,-13.716,19.725,-3.392
31,1436464501617,-13.716,19.725,-3.392
32,1436464501637,-13.716,19.725,-3.392
33,1436464501657,-13.716,19.725,-3.392
34,1436464501680,-13.716,19.725,-3.392
35,1436464501700,-13.716,19.725,-3.392
36,1436464501716,-13.716,19.725,-3.392
37,1436464501737,-13.716,19.725,-3.392
38,1436464501760,-13.716,19.725,-3.392
39,1436464501780,-13.716,19.725,-3.392
40,1436464501800,-13.716,19.725,-3.392
41,1436464501816,-13.716,19.725,-3.392
42,1436464501837,-13.716,19.725,-3.392
43,1436464501858,-13.716,19.725,-3.392
44,1436464501880,-13.716,19.725,-3.392
45,1436464501897,-13.716,19.725,-3.392
46,1436464501919,-13.716,19.725,-3.392
47,1436464501939,-13.716,19.725,-3.392
48,1436464501957,-13.716,19.725,-3.392
49,1436464501979,-13.412,19.725,-3.753
50,1436464502000,-13.412,19.725,-3.753
51,1436464502020,-13.412,19.725,-3.753
52,1436464502037,-13.412,19.725,-4.127
53,1436464502057,-13.412,19.725,-4.127
54,1436464502090,-13.412,19.725,-4.127
55,1436464502097,-13.412,19.725,-4.522
56,1436464502117,-13.412,19.725,-4.522
57,1436464502137,-13.412,19.725,-4.522
58,1436464502171,-13.412,19.725,-4.989
59,1436464502182,-13.412,19.725,-4.989
60,1436464502198,-13.064,19.725,-5.871
61,1436464502217,-13.064,19.725,-5.871
62,1436464502237,-13.064,19.725,-6.347
63,1436464502257,-13.064,19.725,-6.805
64,1436464502290,-13.064,19.725,-6.805
65,1436464502310,-13.064,19.725,-6.805
66,1436464502329,-13.064,19.725,-7.191
67,1436464502337,-13.064,19.725,-7.191
68,1436464502357,-13.064,19.725,-7.548
69,1436464502379,-12.715,19.725,-7.548
70,1436464502397,-12.715,19.725,-7.548
71,1436464502420,-12.715,19.725,-7.548
72,1436464502439,-12.715,19.725,-8.227
73,1436464502458,-12.715,19.725,-8.227
74,1436464502480,-12.347,19.725,-8.227
75,1436464502498,-12.347,19.725,-8.641
76,1436464502520,-12.347,19.725,-8.641
77,1436464502538,-12.347,19.725,-9.089
78,1436464502558,-12.347,19.725,-9.089
79,1436464502580,-11.996,19.725,-9.436
80,1436464502603,-11.996,19.725,-9.436
81,1436464502618,-11.996,19.725,-9.765
82,1436464502637,-11.996,19.725,-9.765
83,1436464502658,-11.996,19.725,-9.765
84,1436464502680,-11.648,19.725,-10.176
85,1436464502698,-11.648,19.725,-10.176
86,1436464502718,-11.648,19.725,-10.176
87,1436464502739,-11.648,19.725,-10.499
88,1436464502757,-11.648,19.725,-10.499
89,1436464502781,-11.648,19.725,-10.499
90,1436464502801,-11.648,19.403,-10.499
91,1436464502819,-11.648,19.403,-10.499
92,1436464502923,-11.648,19.403,-10.499
93,1436464502924,-11.648,19.403,-10.499
94,1436464502925,-11.648,19.403,-10.499
95,1436464502926,-11.648,19.403,-10.499
96,1436464502927,-11.648,19.403,-10.499
97,1436464502949,-11.648,19.403,-10.499
98,1436464502957,-11.648,19.078,-10.499
99,1436464502980,-11.648,19.078,-10.499
100,1436464502999,-11.648,19.078,-10.499
101,1436464503017,-11.964,19.078,-10.499
102,1436464503040,-11.964,19.078,-10.499
103,1436464503058,-11.964,19.078,-10.116
104,1436464503081,-11.964,18.774,-10.116
105,1436464503102,-11.964,18.774,-10.116
106,1436464503118,-11.964,18.774,-10.116
107,1436464503138,-12.297,18.774,-9.77
108,1436464503158,-12.297,18.774,-9.77
109,1436464503180,-12.297,18.774,-9.77
110,1436464503202,-12.297,18.774,-9.77
111,1436464503220,-12.297,18.774,-9.41
112,1436464503241,-12.297,18.774,-9.41
113,1436464503260,-12.597,18.774,-9.41
114,1436464503280,-12.597,18.464,-9.41
115,1436464503302,-12.597,18.464,-9.41
116,1436464503320,-12.597,18.464,-9.062
117,1436464503344,-12.597,18.464,-9.062
118,1436464503360,-12.597,18.464,-9.062
119,1436464503379,-12.597,18.464,-9.062
120,1436464503400,-12.597,18.464,-9.062
121,1436464503420,-12.597,18.464,-9.062
122,1436464503441,-12.597,18.464,-9.062
123,1436464503459,-12.597,18.464,-9.062
124,1436464503478,-12.597,18.464,-9.062
125,1436464503499,-12.597,18.464,-9.062
126,1436464503525,-12.597,18.464,-9.062
127,1436464503540,-12.597,18.464,-9.062
128,1436464503561,-12.597,18.464,-9.062
129,1436464503578,-12.597,18.464,-9.062
130,1436464503626,-12.597,18.464,-9.062
131,1436464503627,-12.597,18.464,-9.062
132,1436464503806,-12.597,18.464,-9.062
133,1436464503807,-12.597,18.464,-9.062
134,1436464503808,-12.597,18.464,-9.062
135,1436464503809,-12.597,18.464,-9.408
136,1436464503810,-12.597,18.464,-9.408
137,1436464503811,-12.597,18.464,-9.408
138,1436464503812,-12.597,18.464,-9.408
139,1436464503813,-12.597,18.464,-9.408
140,1436464503814,-12.597,18.464,-9.408
141,1436464503842,-12.597,18.464,-9.408
142,1436464503843,-12.597,18.464,-9.408
143,1436464503858,-12.597,18.464,-9.408
144,1436464503891,-12.597,18.464,-9.408
145,1436464503910,-12.597,18.464,-9.712
146,1436464503918,-12.597,18.464,-9.712
147,1436464503938,-12.597,18.464,-9.712
148,1436464503958,-12.597,18.464,-9.712
149,1436464503978,-12.597,18.464,-9.712
150,1436464503998,-12.597,18.464,-9.712
151,1436464504018,-12.597,18.464,-9.712
152,1436464504038,-12.597,18.464,-9.712
153,1436464504058,-12.597,18.789,-9.712
154,1436464504079,-12.597,18.789,-9.712
155,1436464504098,-12.597,18.789,-9.712
156,1436464504117,-12.597,18.789,-9.712
157,1436464504138,-12.597,18.789,-9.712
158,1436464504158,-12.597,18.789,-9.394
159,1436464504180,-12.597,18.789,-9.394
160,1436464504200,-12.597,18.789,-9.394
161,1436464504218,-12.597,18.789,-9.394
162,1436464504239,-12.597,18.789,-9.394
163,1436464504259,-12.597,18.789,-9.394
164,1436464504278,-12.597,19.099,-9.394
165,1436464504300,-12.597,19.099,-9.394
166,1436464504322,-12.597,19.099,-9.394
167,1436464504340,-12.597,19.099,-9.394
168,1436464504359,-12.597,19.099,-9.394
169,1436464504378,-12.597,19.099,-9.394
170,1436464504400,-12.597,19.099,-9.394
171,1436464504423,-12.597,19.099,-9.394
172,1436464504450,-12.597,19.099,-9.088
173,1436464504460,-12.597,19.099,-9.088
174,1436464504479,-12.597,19.099,-9.088
175,1436464504501,-12.597,19.099,-9.088
176,1436464504520,-12.597,19.099,-9.088
177,1436464504539,-12.597,19.099,-9.088
178,1436464504559,-12.597,19.099,-9.088
179,1436464504583,-12.597,19.099,-9.088
180,1436464504604,-12.597,19.099,-9.088
181,1436464504619,-12.597,19.099,-9.088
182,1436464504642,-12.597,19.099,-9.088
183,1436464504659,-12.597,19.099,-9.088
184,1436464504683,-12.597,19.099,-9.088
185,1436464504702,-12.597,19.099,-9.088
186,1436464504723,-12.597,19.099,-9.088
187,1436464504743,-12.597,19.099,-9.088
188,1436464504763,-12.597,19.099,-9.088
189,1436464504780,-12.597,19.099,-9.088
190,1436464504801,-12.597,19.099,-9.088
191,1436464504823,-12.597,19.099,-9.088
192,1436464504843,-12.597,19.099,-9.088
193,1436464504863,-12.597,19.099,-9.088
194,1436464504883,-12.597,19.099,-9.088
195,1436464504900,-12.597,19.099,-9.088
196,1436464504923,-12.898,19.099,-9.088
197,1436464504942,-12.898,19.099,-9.088
198,1436464504963,-12.898,19.099,-9.088
199,1436464504983,-12.898,19.099,-9.088
200,1436464505001,-12.898,19.099,-9.088
201,1436464505022,-12.898,19.099,-9.088
202,1436464505040,-12.898,19.099,-9.088
203,1436464505083,-12.898,19.099,-9.088
204,1436464505084,-12.898,19.099,-9.088
205,1436464505103,-12.898,19.099,-9.088
206,1436464505120,-12.898,19.099,-9.088
207,1436464505142,-12.898,19.099,-9.088
208,1436464505160,-12.898,19.099,-9.088
209,1436464505180,-12.898,19.099,-9.088
210,1436464505202,-12.898,19.099,-9.088
211,1436464505220,-12.898,19.099,-9.088
212,1436464505252,-12.898,19.099,-9.088
213,1436464505266,-12.898,19.099,-8.77
214,1436464505280,-12.898,19.099,-8.77
215,1436464505300,-12.898,19.099,-8.77
216,1436464505320,-12.898,19.099,-8.77
217,1436464505340,-12.898,19.099,-8.77
218,1436464505360,-12.898,19.099,-8.77
219,1436464505380,-12.588,19.099,-8.77
220,1436464505400,-12.588,19.421,-8.457
221,1436464505420,-12.588,19.421,-8.457
222,1436464505440,-12.588,19.421,-8.457
223,1436464505464,-12.588,19.421,-8.457
224,1436464505489,-12.588,19.421,-8.457
225,1436464505500,-12.588,19.421,-8.457
226,1436464505520,-12.588,19.421,-8.457
227,1436464505540,-12.588,19.421,-8.457
228,1436464505560,-12.588,19.421,-8.457
229,1436464505580,-12.588,19.421,-8.457
230,1436464505600,-12.588,19.421,-8.457
231,1436464505619,-12.588,19.421,-8.457
232,1436464505643,-12.588,19.421,-8.457
233,1436464505664,-12.588,19.421,-8.457
234,1436464505684,-12.588,19.421,-8.457
235,1436464505704,-12.588,19.421,-8.457
236,1436464505724,-12.588,19.421,-8.457
237,1436464505740,-12.588,19.421,-8.457
238,1436464505765,-12.588,19.421,-8.457
239,1436464505785,-12.588,19.421,-8.457
240,1436464505799,-12.588,19.421,-8.457
241,1436464505821,-12.588,19.421,-8.457
242,1436464505842,-12.588,19.421,-8.457
243,1436464505860,-12.588,19.421,-8.457
244,1436464505881,-12.588,19.421,-8.114
245,1436464505900,-12.588,19.421,-8.114
246,1436464505921,-12.588,19.421,-8.114
247,1436464505941,-12.588,19.421,-8.114
248,1436464505963,-12.588,19.421,-7.621
249,1436464505983,-12.588,19.421,-7.621
250,1436464505999,-12.588,19.421,-7.185
251,1436464506021,-12.588,19.421,-7.185
252,1436464506045,-12.588,19.421,-7.185
253,1436464506064,-12.588,19.421,-6.842
254,1436464506084,-12.898,19.421,-6.842
255,1436464506104,-12.898,19.421,-6.445
256,1436464506121,-12.898,19.421,-6.445
257,1436464506143,-12.898,19.421,-6.445
258,1436464506163,-12.898,19.421,-6.044
259,1436464506182,-12.898,19.421,-6.044
260,1436464506202,-12.898,19.421,-6.044
261,1436464506220,-13.211,19.102,-6.044
262,1436464506244,-13.211,19.102,-5.711
263,1436464506264,-13.211,19.102,-5.711
264,1436464506284,-13.211,19.102,-5.711
265,1436464506304,-13.211,19.102,-5.711
266,1436464506324,-13.211,19.102,-5.711
267,1436464506343,-13.211,19.102,-5.711
268,1436464506363,-13.211,19.102,-5.711
269,1436464506383,-13.211,19.102,-5.711
270,1436464506409,-13.211,19.102,-5.711
271,1436464506483,-13.211,19.102,-5.711
272,1436464506484,-13.211,19.102,-5.711
273,1436464506485,-13.211,19.102,-5.711
274,1436464506486,-13.211,19.102,-5.711
275,1436464506501,-13.211,19.102,-5.711
276,1436464506526,-13.536,18.798,-5.711
277,1436464506541,-13.536,18.798,-5.711
278,1436464506566,-13.536,18.798,-5.711
279,1436464506583,-13.536,18.798,-5.36
280,1436464506602,-13.536,18.798,-5.36
281,1436464506622,-13.536,18.798,-5.36
282,1436464506643,-13.536,18.489,-5.36
283,1436464506666,-13.902,18.489,-5.03
284,1436464506684,-13.902,18.489,-5.03
285,1436464506704,-13.902,18.489,-5.03
286,1436464506724,-13.902,18.15,-5.03
287,1436464506743,-13.902,18.15,-4.649
288,1436464506764,-14.27,18.15,-4.649
289,1436464506784,-14.27,18.15,-4.649
290,1436464506804,-14.27,17.808,-4.238
291,1436464506824,-14.27,17.808,-4.238
292,1436464506842,-14.27,17.808,-4.238
293,1436464506863,-14.639,17.808,-3.799
294,1436464506882,-14.639,17.446,-3.799
295,1436464506904,-14.639,17.446,-3.799
296,1436464506924,-14.639,17.446,-3.401
297,1436464506943,-14.639,17.446,-3.401
298,1436464506968,-14.976,17.146,-3.401
299,1436464506983,-14.976,17.146,-3.013
300,1436464507007,-14.976,17.146,-3.013
301,1436464507027,-14.976,17.146,-3.013
302,1436464507044,-14.976,17.146,-3.013
303,1436464507062,-14.976,16.844,-3.013
304,1436464507081,-14.976,16.844,-2.677
305,1436464507102,-14.976,16.844,-2.677
306,1436464507124,-15.295,16.844,-2.677
307,1436464507142,-15.295,16.844,-2.677
308,1436464507194,-15.295,16.844,-2.677
309,1436464507206,-15.295,16.844,-2.368
310,1436464507207,-15.295,16.844,-2.368
311,1436464507222,-15.295,16.844,-2.368
312,1436464507275,-15.295,16.534,-2.368
313,1436464507276,-15.295,16.534,-2.368
314,1436464507282,-15.295,16.534,-2.368
315,1436464507303,-15.295,16.534,-2.368
316,1436464507323,-15.295,16.534,-2.368
317,1436464507342,-15.295,16.534,-2.368
318,1436464507362,-15.295,16.534,-2.368
319,1436464507385,-15.295,16.534,-2.368
320,1436464507403,-15.295,16.534,-2.368
321,1436464507425,-15.295,16.534,-2.368
322,1436464507445,-15.295,16.534,-2.368
323,1436464507465,-15.295,16.534,-2.368
324,1436464507485,-15.295,16.534,-2.368
325,1436464507505,-15.295,16.534,-2.368
326,1436464507525,-15.295,16.534,-2.368
327,1436464507545,-15.295,16.534,-2.7
328,1436464507563,-15.295,16.534,-2.7
329,1436464507585,-15.295,16.534,-2.7
330,1436464507605,-15.295,16.534,-2.7
331,1436464507624,-15.295,16.534,-2.7
332,1436464507645,-15.295,16.534,-2.7
333,1436464507662,-15.295,16.534,-3.034
334,1436464507685,-15.295,16.534,-3.034
335,1436464507705,-15.295,16.534,-3.034
336,1436464507726,-15.295,16.534,-3.034
337,1436464507745,-15.295,16.534,-3.034
338,1436464507763,-15.295,16.534,-3.395
339,1436464507785,-15.295,16.534,-3.395
340,1436464507803,-15.295,16.534,-3.395
341,1436464507832,-15.295,16.534,-3.395
342,1436464507843,-15.295,16.534,-3.395
343,1436464507891,-14.985,16.534,-3.395
344,1436464507935,-14.985,16.857,-3.739
345,1436464507936,-14.985,16.857,-3.739
346,1436464507937,-14.985,16.857,-3.739
347,1436464507975,-14.985,16.857,-3.739
348,1436464507976,-14.985,16.857,-3.739
349,1436464507990,-14.985,16.857,-3.739
350,1436464508007,-14.985,16.857,-3.739
351,1436464508037,-14.985,16.857,-4.072
352,1436464508082,-14.985,16.857,-4.072
353,1436464508083,-14.985,16.857,-4.072
354,1436464508084,-14.985,16.857,-4.072
355,1436464508108,-14.985,16.857,-4.072
356,1436464508128,-14.985,17.173,-4.072
357,1436464508142,-14.985,17.173,-4.373
358,1436464508163,-14.985,17.173,-4.373
359,1436464508183,-14.985,17.173,-4.373
360,1436464508207,-14.669,17.173,-4.373
361,1436464508225,-14.669,17.173,-4.373
362,1436464508243,-14.669,17.173,-4.745
363,1436464508308,-14.669,17.173,-4.745
364,1436464508309,-14.669,17.173,-4.745
365,1436464508310,-14.669,17.173,-4.745
366,1436464508323,-14.669,17.173,-4.745
367,1436464508343,-14.669,17.481,-5.078
368,1436464508364,-14.669,17.481,-5.078
369,1436464508385,-14.669,17.481,-5.078
370,1436464508408,-14.669,17.481,-5.078
371,1436464508428,-14.366,17.481,-5.078
372,1436464508449,-14.366,17.481,-5.381
373,1436464508467,-14.366,17.481,-5.381
374,1436464508485,-14.366,17.481,-5.381
375,1436464508504,-14.366,17.481,-5.381
376,1436464508523,-14.366,17.481,-5.381
377,1436464508542,-14.366,17.481,-5.711
378,1436464508611,-14.366,17.481,-5.711
379,1436464508612,-14.366,17.481,-5.711
380,1436464508620,-14.366,17.481,-5.711
381,1436464508625,-14.366,17.481,-5.711
382,1436464508665,-14.366,17.481,-5.711
383,1436464508666,-14.366,17.481,-5.711
384,1436464508751,-14.366,17.481,-5.711
385,1436464508752,-14.366,17.481,-5.711
386,1436464508753,-14.366,17.481,-5.711
387,1436464508754,-14.366,17.481,-6.018
388,1436464508763,-14.366,17.481,-6.018
389,1436464508790,-14.366,17.481,-6.018
390,1436464508803,-14.366,17.481,-6.018
391,1436464508825,-14.366,17.481,-6.018
392,1436464508845,-14.366,17.481,-6.018
393,1436464508864,-14.366,17.481,-6.018
394,1436464508885,-14.366,17.481,-6.018
395,1436464508905,-14.366,17.481,-6.018
396,1436464508925,-14.366,17.481,-6.018
397,1436464508944,-14.366,17.481,-6.018
398,1436464508967,-14.366,17.481,-6.018
399,1436464508987,-14.366,17.481,-6.018
400,1436464509007,-14.366,17.481,-6.018
401,1436464509027,-14.366,17.481,-6.018
402,1436464509046,-14.366,17.481,-6.018
403,1436464509067,-14.366,17.481,-6.018
404,1436464509087,-14.366,17.481,-6.018
405,1436464509106,-14.366,17.481,-6.018
406,1436464509128,-14.366,17.481,-6.018
407,1436464509143,-14.366,17.481,-6.018
408,1436464509167,-14.366,17.481,-6.018
409,1436464509186,-14.366,17.481,-6.018
410,1436464509207,-14.366,17.481,-6.018
411,1436464509227,-14.366,17.481,-6.018
412,1436464509247,-14.366,17.481,-6.018
413,1436464509266,-14.366,17.481,-6.018
414,1436464509286,-14.366,17.481,-6.332
415,1436464509307,-14.366,17.481,-6.332
416,1436464509327,-14.045,17.481,-6.332
417,1436464509347,-14.045,17.481,-6.332
418,1436464509368,-14.045,17.481,-6.332
419,1436464509385,-14.045,17.481,-6.332
420,1436464509409,-14.045,17.481,-6.654
421,1436464509478,-14.045,17.481,-6.654
422,1436464509479,-14.045,17.481,-6.654
423,1436464509480,-14.045,17.481,-6.654
424,1436464509486,-14.045,17.481,-6.97
425,1436464509506,-14.045,17.481,-6.97
426,1436464509529,-13.726,17.481,-6.97
427,1436464509546,-13.726,17.481,-6.97
428,1436464509565,-13.726,17.481,-7.333
429,1436464509586,-13.726,17.481,-7.333
430,1436464509605,-13.726,17.481,-7.333
431,1436464509625,-13.726,17.481,-7.333
432,1436464509645,-13.726,17.481,-7.333
433,1436464509667,-13.726,17.481,-7.333
434,1436464509687,-13.726,17.481,-7.675
435,1436464509707,-13.726,17.481,-7.675
436,1436464509724,-13.726,17.481,-7.675
437,1436464509747,-13.726,17.481,-7.675
438,1436464509766,-13.406,17.481,-7.675
439,1436464509787,-13.406,17.481,-8.02
440,1436464509807,-13.406,17.481,-8.02
441,1436464509827,-13.406,17.481,-8.02
442,1436464509847,-13.406,17.481,-8.02
443,1436464509864,-13.406,17.481,-8.331
444,1436464509887,-13.406,17.481,-8.331
445,1436464509907,-13.406,17.481,-8.331
446,1436464509928,-13.406,17.481,-8.331
447,1436464509947,-13.406,17.481,-8.331
448,1436464509967,-13.406,17.481,-8.331
449,1436464509987,-13.095,17.481,-8.331
450,1436464510007,-13.095,17.481,-8.331
451,1436464510027,-13.095,17.481,-8.331
452,1436464510047,-13.095,17.481,-8.642
453,1436464510067,-13.095,17.481,-8.642
454,1436464510085,-13.095,17.481,-8.642
455,1436464510105,-13.095,17.81,-8.642
456,1436464510124,-13.095,17.81,-8.642
457,1436464510147,-13.095,17.81,-8.642
458,1436464510211,-13.095,17.81,-8.642
459,1436464510212,-13.095,17.81,-8.642
460,1436464510213,-13.095,18.139,-8.642
461,1436464510225,-12.791,18.139,-8.642
462,1436464510249,-12.791,18.139,-8.642
463,1436464510265,-12.791,18.139,-8.642
464,1436464510286,-12.791,18.139,-8.642
465,1436464510307,-12.791,18.495,-8.642
466,1436464510325,-12.791,18.495,-8.642
467,1436464510344,-12.791,18.495,-8.642
468,1436464510366,-12.791,18.495,-8.642
469,1436464510388,-12.791,18.495,-8.642
470,1436464510406,-12.791,18.495,-8.642
471,1436464510428,-12.791,18.814,-8.642
472,1436464510444,-12.791,18.814,-8.642
473,1436464510467,-12.791,18.814,-8.642
474,1436464510488,-12.791,18.814,-8.642
475,1436464510508,-12.791,18.814,-8.642
476,1436464510528,-12.791,18.814,-8.642
477,1436464510546,-12.791,18.814,-8.642
478,1436464510567,-12.791,18.814,-8.642
479,1436464510588,-12.791,18.814,-8.642
480,1436464510606,-12.791,18.814,-8.642
481,1436464510638,-12.791,18.814,-8.3
482,1436464510644,-12.791,18.814,-8.3
483,1436464510666,-12.791,18.814,-8.3
484,1436464510686,-12.791,18.814,-8.3
485,1436464510709,-12.791,18.814,-8.3
486,1436464510729,-12.791,18.814,-8.3
487,1436464510751,-12.791,18.814,-8.3
488,1436464510767,-12.791,18.814,-8.3
489,1436464510786,-12.791,18.814,-8.3
490,1436464510805,-12.791,18.814,-8.3
491,1436464510826,-12.791,18.814,-8.3
492,1436464510846,-12.791,18.814,-8.3
493,1436464510867,-12.791,18.814,-8.3
494,1436464510947,-12.791,18.814,-8.3
495,1436464510948,-12.791,18.814,-8.3
496,1436464510949,-12.791,18.814,-8.3
497,1436464510950,-12.791,18.814,-7.995
498,1436464510965,-12.791,18.814,-7.995
499,1436464510987,-12.791,18.814,-7.995
500,1436464511005,-12.791,18.814,-7.995
501,1436464511025,-12.791,18.814,-7.995
502,1436464511047,-12.791,18.814,-7.995
503,1436464511065,-12.791,18.814,-7.995
