id,attr_time,attr_light
1,1435994343833,315.0
2,1435994343853,315.0
3,1435994343877,315.0
4,1435994343897,315.0
5,1435994343915,315.0
6,1435994343937,315.0
7,1435994343957,315.0
8,1435994343973,315.0
9,1435994343993,316.0
10,1435994344017,316.0
11,1435994344033,316.0
12,1435994344057,316.0
13,1435994344081,316.0
14,1435994344096,316.0
15,1435994344115,315.0
16,1435994344135,315.0
17,1435994344180,315.0
18,1435994344181,316.0
19,1435994344193,316.0
20,1435994344212,316.0
21,1435994344231,316.0
22,1435994344254,315.0
23,1435994344271,315.0
24,1435994344291,315.0
25,1435994344313,315.0
26,1435994344332,315.0
27,1435994344354,315.0
28,1435994344382,315.0
29,1435994344393,315.0
30,1435994344414,315.0
31,1435994344436,315.0
32,1435994344454,315.0
33,1435994344472,315.0
34,1435994344497,315.0
35,1435994344515,315.0
36,1435994344535,315.0
37,1435994344556,315.0
38,1435994344573,315.0
39,1435994344593,315.0
40,1435994344619,315.0
41,1435994344635,315.0
42,1435994344653,315.0
43,1435994344678,316.0
44,1435994344693,316.0
45,1435994344713,316.0
46,1435994344742,316.0
47,1435994344765,317.0
48,1435994344772,317.0
49,1435994344798,317.0
50,1435994344811,317.0
51,1435994344831,317.0
52,1435994344855,317.0
53,1435994344872,317.0
54,1435994344895,318.0
55,1435994344915,318.0
56,1435994344936,318.0
57,1435994344955,318.0
58,1435994344978,317.0
59,1435994344995,317.0
60,1435994345015,317.0
61,1435994345038,317.0
62,1435994345055,317.0
63,1435994345074,317.0
64,1435994345098,317.0
65,1435994345116,317.0
66,1435994345133,317.0
67,1435994345155,317.0
68,1435994345172,317.0
69,1435994345194,317.0
70,1435994345215,317.0
71,1435994345288,317.0
72,1435994345289,318.0
73,1435994345290,318.0
74,1435994345298,318.0
75,1435994345312,318.0
76,1435994345334,318.0
77,1435994345352,319.0
78,1435994345372,319.0
79,1435994345411,318.0
80,1435994345412,318.0
81,1435994345432,318.0
82,1435994345454,318.0
83,1435994345472,318.0
84,1435994345495,318.0
85,1435994345520,318.0
86,1435994345533,318.0
87,1435994345552,317.0
88,1435994345574,317.0
89,1435994345592,317.0
90,1435994345612,317.0
91,1435994345636,316.0
92,1435994345656,316.0
93,1435994345677,316.0
94,1435994345698,316.0
95,1435994345716,316.0
96,1435994345736,316.0
97,1435994345758,316.0
98,1435994345774,315.0
99,1435994345797,315.0
100,1435994345818,314.0
101,1435994345838,314.0
102,1435994345858,314.0
103,1435994345878,314.0
104,1435994345896,314.0
105,1435994345914,314.0
106,1435994345939,314.0
107,1435994345958,314.0
108,1435994345979,314.0
109,1435994345999,314.0
110,1435994346016,314.0
111,1435994346036,314.0
112,1435994346090,314.0
113,1435994346091,315.0
114,1435994346095,315.0
115,1435994346116,315.0
116,1435994346136,315.0
117,1435994346158,315.0
118,1435994346179,315.0
119,1435994346195,315.0
120,1435994346215,315.0
121,1435994346239,315.0
122,1435994346257,315.0
123,1435994346277,315.0
124,1435994346301,315.0
125,1435994346314,315.0
126,1435994346334,315.0
127,1435994346359,314.0
128,1435994346377,314.0
129,1435994346397,315.0
130,1435994346419,314.0
131,1435994346435,314.0
132,1435994346482,314.0
133,1435994346483,314.0
134,1435994346494,313.0
135,1435994346514,313.0
136,1435994346539,313.0
137,1435994346560,313.0
138,1435994346579,313.0
139,1435994346601,313.0
140,1435994346618,313.0
141,1435994346634,313.0
142,1435994346656,313.0
143,1435994346673,313.0
144,1435994346697,313.0
145,1435994346723,313.0
146,1435994346733,313.0
147,1435994346755,313.0
148,1435994346777,313.0
149,1435994346799,313.0
150,1435994346815,313.0
151,1435994346837,314.0
152,1435994346855,314.0
153,1435994346879,314.0
154,1435994346901,314.0
155,1435994346919,314.0
156,1435994346941,314.0
157,1435994346958,314.0
158,1435994346977,314.0
159,1435994346998,314.0
160,1435994347020,314.0
161,1435994347034,314.0
162,1435994347057,314.0
163,1435994347078,314.0
164,1435994347096,314.0
165,1435994347117,314.0
166,1435994347162,314.0
167,1435994347163,313.0
168,1435994347175,313.0
169,1435994347201,313.0
170,1435994347215,312.0
171,1435994347235,312.0
172,1435994347258,313.0
173,1435994347276,313.0
174,1435994347295,313.0
175,1435994347320,313.0
176,1435994347338,313.0
177,1435994347360,313.0
178,1435994347417,313.0
179,1435994347418,313.0
180,1435994347419,313.0
181,1435994347437,313.0
182,1435994347459,313.0
183,1435994347477,313.0
184,1435994347499,313.0
185,1435994347514,313.0
186,1435994347539,313.0
187,1435994347560,313.0
188,1435994347578,312.0
189,1435994347598,312.0
190,1435994347618,312.0
191,1435994347638,312.0
192,1435994347658,312.0
193,1435994347680,312.0
194,1435994347698,312.0
195,1435994347718,311.0
196,1435994347738,311.0
197,1435994347762,311.0
198,1435994347777,311.0
199,1435994347805,310.0
200,1435994347815,310.0
201,1435994347834,310.0
202,1435994347856,310.0
203,1435994347874,309.0
204,1435994347895,309.0
205,1435994347918,309.0
206,1435994347938,309.0
207,1435994347958,309.0
208,1435994347984,309.0
209,1435994347998,309.0
210,1435994348023,309.0
211,1435994348083,309.0
212,1435994348084,308.0
213,1435994348085,308.0
214,1435994348098,309.0
215,1435994348116,309.0
216,1435994348138,309.0
217,1435994348159,309.0
218,1435994348179,310.0
219,1435994348198,310.0
220,1435994348219,310.0
221,1435994348237,310.0
222,1435994348259,310.0
223,1435994348281,310.0
224,1435994348302,310.0
225,1435994348320,310.0
226,1435994348341,310.0
227,1435994348359,310.0
228,1435994348379,310.0
229,1435994348400,309.0
230,1435994348419,309.0
231,1435994348438,309.0
232,1435994348460,309.0
233,1435994348479,309.0
234,1435994348498,309.0
235,1435994348520,309.0
236,1435994348539,309.0
237,1435994348561,308.0
238,1435994348582,308.0
239,1435994348602,308.0
240,1435994348619,308.0
241,1435994348642,309.0
242,1435994348657,309.0
243,1435994348679,310.0
244,1435994348699,310.0
245,1435994348719,310.0
246,1435994348763,310.0
247,1435994348764,310.0
248,1435994348775,311.0
249,1435994348795,311.0
250,1435994348818,311.0
251,1435994348837,311.0
252,1435994348859,312.0
253,1435994348880,312.0
254,1435994348897,311.0
255,1435994348919,311.0
256,1435994348942,311.0
257,1435994348960,311.0
258,1435994348977,311.0
259,1435994349002,311.0
260,1435994349019,311.0
261,1435994349039,311.0
262,1435994349062,311.0
263,1435994349079,311.0
264,1435994349099,311.0
265,1435994349120,311.0
266,1435994349137,311.0
267,1435994349160,311.0
268,1435994349181,311.0
269,1435994349198,311.0
270,1435994349217,311.0
271,1435994349244,311.0
272,1435994349260,311.0
273,1435994349280,311.0
274,1435994349302,311.0
275,1435994349318,311.0
276,1435994349338,311.0
277,1435994349359,312.0
278,1435994349379,312.0
279,1435994349401,313.0
280,1435994349438,313.0
281,1435994349439,313.0
282,1435994349456,313.0
283,1435994349479,313.0
284,1435994349496,313.0
285,1435994349517,313.0
286,1435994349540,314.0
287,1435994349557,314.0
288,1435994349578,314.0
289,1435994349602,314.0
290,1435994349618,314.0
291,1435994349640,314.0
292,1435994349662,314.0
293,1435994349680,314.0
294,1435994349700,314.0
295,1435994349723,314.0
296,1435994349740,313.0
297,1435994349760,313.0
298,1435994349782,313.0
299,1435994349800,313.0
300,1435994349820,313.0
301,1435994349845,313.0
302,1435994349858,313.0
303,1435994349880,313.0
304,1435994349900,313.0
305,1435994349917,313.0
306,1435994349938,313.0
307,1435994349962,312.0
308,1435994349983,312.0
309,1435994350004,313.0
310,1435994350024,313.0
311,1435994350039,313.0
312,1435994350064,313.0
313,1435994350158,313.0
314,1435994350159,313.0
315,1435994350160,313.0
316,1435994350161,313.0
317,1435994350162,313.0
318,1435994350177,313.0
319,1435994350200,313.0
320,1435994350219,313.0
321,1435994350239,313.0
322,1435994350261,313.0
323,1435994350281,314.0
324,1435994350301,315.0
325,1435994350323,315.0
326,1435994350340,315.0
327,1435994350361,315.0
328,1435994350383,315.0
329,1435994350401,315.0
330,1435994350421,315.0
331,1435994350442,315.0
332,1435994350461,315.0
333,1435994350479,315.0
334,1435994350503,315.0
335,1435994350521,315.0
336,1435994350539,316.0
337,1435994350563,316.0
338,1435994350579,315.0
339,1435994350603,315.0
340,1435994350624,315.0
341,1435994350644,315.0
342,1435994350661,314.0
343,1435994350683,314.0
344,1435994350699,314.0
345,1435994350718,315.0
346,1435994350741,315.0
347,1435994350761,315.0
348,1435994350803,315.0
349,1435994350804,314.0
350,1435994350819,314.0
351,1435994350838,315.0
352,1435994350862,315.0
353,1435994350881,315.0
354,1435994350899,315.0
355,1435994350921,316.0
356,1435994350942,316.0
357,1435994350962,316.0
358,1435994350985,316.0
359,1435994351002,316.0
360,1435994351019,316.0
361,1435994351044,316.0
362,1435994351061,316.0
363,1435994351081,316.0
364,1435994351104,317.0
365,1435994351121,317.0
366,1435994351142,317.0
367,1435994351161,317.0
368,1435994351179,317.0
369,1435994351200,317.0
370,1435994351221,317.0
371,1435994351239,317.0
372,1435994351264,317.0
373,1435994351286,317.0
374,1435994351299,317.0
375,1435994351321,317.0
376,1435994351341,316.0
377,1435994351395,316.0
378,1435994351396,316.0
379,1435994351407,316.0
380,1435994351439,316.0
381,1435994351440,315.0
382,1435994351460,315.0
383,1435994351478,315.0
384,1435994351498,315.0
385,1435994351520,315.0
386,1435994351538,315.0
387,1435994351558,315.0
388,1435994351580,315.0
389,1435994351598,316.0
390,1435994351618,316.0
391,1435994351640,316.0
392,1435994351658,316.0
393,1435994351678,316.0
394,1435994351700,316.0
395,1435994351718,316.0
396,1435994351742,316.0
397,1435994351760,316.0
398,1435994351780,316.0
399,1435994351799,316.0
400,1435994351822,316.0
401,1435994351843,316.0
402,1435994351861,316.0
403,1435994351883,316.0
404,1435994351902,316.0
405,1435994351922,316.0
406,1435994351942,316.0
407,1435994351962,316.0
408,1435994351983,315.0
409,1435994352003,315.0
410,1435994352025,315.0
411,1435994352082,315.0
412,1435994352083,315.0
413,1435994352084,315.0
414,1435994352099,315.0
415,1435994352120,315.0
416,1435994352138,315.0
417,1435994352158,315.0
418,1435994352181,314.0
419,1435994352203,314.0
420,1435994352221,314.0
421,1435994352243,314.0
422,1435994352262,314.0
423,1435994352282,314.0
424,1435994352305,314.0
425,1435994352322,314.0
426,1435994352343,314.0
427,1435994352365,314.0
428,1435994352383,314.0
429,1435994352403,314.0
430,1435994352423,314.0
431,1435994352443,313.0
432,1435994352461,313.0
433,1435994352483,313.0
434,1435994352504,313.0
435,1435994352526,313.0
436,1435994352544,313.0
437,1435994352560,313.0
438,1435994352580,313.0
439,1435994352602,312.0
440,1435994352621,312.0
441,1435994352646,312.0
442,1435994352689,312.0
443,1435994352690,312.0
444,1435994352706,312.0
445,1435994352725,312.0
446,1435994352742,313.0
447,1435994352760,313.0
448,1435994352783,314.0
449,1435994352800,314.0
450,1435994352821,314.0
451,1435994352846,314.0
452,1435994352863,314.0
453,1435994352883,314.0
454,1435994352905,315.0
455,1435994352922,315.0
456,1435994352943,316.0
457,1435994352966,316.0
458,1435994352983,316.0
459,1435994353003,316.0
460,1435994353025,316.0
461,1435994353042,316.0
462,1435994353061,316.0
463,1435994353083,316.0
464,1435994353100,316.0
465,1435994353120,316.0
466,1435994353145,316.0
467,1435994353166,317.0
468,1435994353182,317.0
469,1435994353208,316.0
470,1435994353223,316.0
471,1435994353241,315.0
472,1435994353264,315.0
473,1435994353281,314.0
474,1435994353302,314.0
475,1435994353364,313.0
476,1435994353365,313.0
477,1435994353366,313.0
478,1435994353382,313.0
479,1435994353400,313.0
480,1435994353419,313.0
481,1435994353442,313.0
482,1435994353461,313.0
483,1435994353481,313.0
484,1435994353504,313.0
485,1435994353523,313.0
486,1435994353541,313.0
487,1435994353563,313.0
488,1435994353581,314.0
489,1435994353601,314.0
490,1435994353623,315.0
491,1435994353642,315.0
492,1435994353664,315.0
493,1435994353687,315.0
494,1435994353702,316.0
495,1435994353724,316.0
496,1435994353747,316.0
497,1435994353762,317.0
498,1435994353784,317.0
499,1435994353806,318.0
500,1435994353822,318.0
501,1435994353843,317.0
502,1435994353875,317.0
503,1435994353886,318.0
504,1435994353904,318.0
505,1435994353927,317.0
506,1435994353942,317.0
507,1435994353964,317.0
508,1435994353992,317.0
509,1435994354054,316.0
510,1435994354055,316.0
511,1435994354056,316.0
512,1435994354062,316.0
513,1435994354080,316.0
514,1435994354102,316.0
515,1435994354120,316.0
516,1435994354142,316.0
517,1435994354167,316.0
518,1435994354185,316.0
519,1435994354205,316.0
520,1435994354227,316.0
521,1435994354243,316.0
522,1435994354264,316.0
523,1435994354287,316.0
524,1435994354304,316.0
525,1435994354322,316.0
526,1435994354349,316.0
527,1435994354367,316.0
528,1435994354383,315.0
529,1435994354406,315.0
530,1435994354424,314.0
531,1435994354446,314.0
532,1435994354465,312.0
533,1435994354483,312.0
534,1435994354505,309.0
535,1435994354528,309.0
536,1435994354548,307.0
537,1435994354567,304.0
538,1435994354585,304.0
539,1435994354604,300.0
540,1435994354622,300.0
541,1435994354683,296.0
542,1435994354684,296.0
543,1435994354685,290.0
544,1435994354704,290.0
545,1435994354721,285.0
546,1435994354742,285.0
547,1435994354769,278.0
548,1435994354787,278.0
549,1435994354804,270.0
550,1435994354827,270.0
551,1435994354845,262.0
552,1435994354863,262.0
553,1435994354889,254.0
554,1435994354905,254.0
555,1435994354923,244.0
556,1435994354948,234.0
557,1435994354965,234.0
558,1435994354983,223.0
559,1435994355007,223.0
560,1435994355023,213.0
561,1435994355048,213.0
562,1435994355065,205.0
563,1435994355085,205.0
564,1435994355105,199.0
565,1435994355125,199.0
566,1435994355142,193.0
567,1435994355165,193.0
568,1435994355187,185.0
569,1435994355203,185.0
570,1435994355225,176.0
571,1435994355246,176.0
572,1435994355268,168.0
573,1435994355284,168.0
574,1435994355306,165.0
575,1435994355331,164.0
576,1435994355344,164.0
577,1435994355370,166.0
578,1435994355381,166.0
579,1435994355402,169.0
580,1435994355426,169.0
581,1435994355443,174.0
582,1435994355463,174.0
583,1435994355487,181.0
584,1435994355502,181.0
585,1435994355523,186.0
586,1435994355584,186.0
587,1435994355585,191.0
588,1435994355586,191.0
589,1435994355604,194.0
590,1435994355621,194.0
591,1435994355642,196.0
592,1435994355664,196.0
593,1435994355685,197.0
594,1435994355706,199.0
595,1435994355726,199.0
596,1435994355743,203.0
597,1435994355763,203.0
598,1435994355790,210.0
599,1435994355808,210.0
600,1435994355824,218.0
601,1435994355848,218.0
602,1435994355863,230.0
603,1435994355884,230.0
604,1435994355904,247.0
605,1435994355925,247.0
606,1435994355943,272.0
607,1435994355992,272.0
608,1435994355993,296.0
609,1435994356006,296.0
610,1435994356024,292.0
611,1435994356042,292.0
612,1435994356066,275.0
613,1435994356087,266.0
614,1435994356107,266.0
615,1435994356125,264.0
616,1435994356148,264.0
617,1435994356166,255.0
618,1435994356187,255.0
619,1435994356205,240.0
620,1435994356226,240.0
621,1435994356247,220.0
622,1435994356266,220.0
623,1435994356284,200.0
624,1435994356306,200.0
625,1435994356329,189.0
626,1435994356347,189.0
627,1435994356366,182.0
628,1435994356413,182.0
629,1435994356414,174.0
630,1435994356425,174.0
631,1435994356449,169.0
632,1435994356492,168.0
633,1435994356493,168.0
634,1435994356506,167.0
635,1435994356529,167.0
636,1435994356551,160.0
637,1435994356570,160.0
638,1435994356586,152.0
639,1435994356608,152.0
640,1435994356653,150.0
641,1435994356654,150.0
642,1435994356666,150.0
643,1435994356686,150.0
644,1435994356707,153.0
645,1435994356726,153.0
646,1435994356747,157.0
647,1435994356764,157.0
648,1435994356789,161.0
649,1435994356811,161.0
650,1435994356829,163.0
651,1435994356849,163.0
652,1435994356867,164.0
653,1435994356887,165.0
654,1435994356908,165.0
655,1435994356929,166.0
656,1435994356947,166.0
657,1435994356968,167.0
658,1435994356988,167.0
659,1435994357007,168.0
660,1435994357028,168.0
661,1435994357050,167.0
662,1435994357077,167.0
663,1435994357084,164.0
664,1435994357107,164.0
665,1435994357128,161.0
666,1435994357148,161.0
667,1435994357172,157.0
668,1435994357188,157.0
669,1435994357205,154.0
670,1435994357229,154.0
671,1435994357255,154.0
672,1435994357307,154.0
673,1435994357308,154.0
674,1435994357309,150.0
675,1435994357326,150.0
676,1435994357348,143.0
677,1435994357365,143.0
678,1435994357384,137.0
679,1435994357407,137.0
680,1435994357424,136.0
681,1435994357449,136.0
682,1435994357469,137.0
683,1435994357488,137.0
684,1435994357559,140.0
685,1435994357560,140.0
686,1435994357561,141.0
687,1435994357567,141.0
688,1435994357586,140.0
689,1435994357603,140.0
690,1435994357623,137.0
691,1435994357647,134.0
692,1435994357664,134.0
693,1435994357688,132.0
694,1435994357712,132.0
695,1435994357728,130.0
696,1435994357748,130.0
697,1435994357770,130.0
698,1435994357788,130.0
699,1435994357809,127.0
700,1435994357831,127.0
701,1435994357849,123.0
702,1435994357869,123.0
703,1435994357888,121.0
704,1435994357909,121.0
705,1435994357969,119.0
706,1435994357970,119.0
707,1435994357971,117.0
708,1435994357984,117.0
709,1435994358008,115.0
710,1435994358025,115.0
711,1435994358048,115.0
712,1435994358071,117.0
713,1435994358085,117.0
714,1435994358109,118.0
715,1435994358129,118.0
716,1435994358147,121.0
717,1435994358168,121.0
718,1435994358190,124.0
719,1435994358209,124.0
720,1435994358228,127.0
721,1435994358251,127.0
722,1435994358268,130.0
723,1435994358288,130.0
724,1435994358309,132.0
725,1435994358326,132.0
726,1435994358348,133.0
727,1435994358369,133.0
728,1435994358387,132.0
729,1435994358406,135.0
730,1435994358433,135.0
731,1435994358449,140.0
732,1435994358469,140.0
733,1435994358491,142.0
734,1435994358508,142.0
735,1435994358527,141.0
736,1435994358549,141.0
737,1435994358569,142.0
738,1435994358590,142.0
739,1435994358629,149.0
740,1435994358630,149.0
741,1435994358645,160.0
742,1435994358669,160.0
743,1435994358685,173.0
744,1435994358705,173.0
745,1435994358732,189.0
746,1435994358747,189.0
747,1435994358768,204.0
748,1435994358788,204.0
749,1435994358807,219.0
750,1435994358828,233.0
751,1435994358852,233.0
752,1435994358865,250.0
753,1435994358885,250.0
754,1435994358909,272.0
755,1435994358925,272.0
756,1435994358945,296.0
757,1435994358967,296.0
758,1435994358985,321.0
759,1435994359005,321.0
760,1435994359027,338.0
761,1435994359045,338.0
762,1435994359065,341.0
763,1435994359088,341.0
764,1435994359105,347.0
765,1435994359129,347.0
766,1435994359151,359.0
767,1435994359170,359.0
768,1435994359192,369.0
769,1435994359214,367.0
770,1435994359228,367.0
771,1435994359254,357.0
772,1435994359321,357.0
773,1435994359322,343.0
774,1435994359323,343.0
775,1435994359329,335.0
776,1435994359347,335.0
777,1435994359371,337.0
778,1435994359390,337.0
779,1435994359409,346.0
780,1435994359427,346.0
781,1435994359457,357.0
782,1435994359469,357.0
783,1435994359488,369.0
784,1435994359513,369.0
785,1435994359530,383.0
786,1435994359550,383.0
787,1435994359573,396.0
788,1435994359590,409.0
789,1435994359610,409.0
790,1435994359633,418.0
791,1435994359649,418.0
792,1435994359670,422.0
793,1435994359692,422.0
794,1435994359710,422.0
795,1435994359730,422.0
796,1435994359751,419.0
797,1435994359772,419.0
798,1435994359793,412.0
799,1435994359813,412.0
800,1435994359830,401.0
801,1435994359849,401.0
802,1435994359872,391.0
803,1435994359888,391.0
804,1435994359908,378.0
805,1435994359931,378.0
806,1435994359970,366.0
807,1435994359971,355.0
808,1435994359991,355.0
809,1435994360011,347.0
810,1435994360031,347.0
811,1435994360050,343.0
812,1435994360068,343.0
813,1435994360088,344.0
814,1435994360113,344.0
815,1435994360130,348.0
816,1435994360150,348.0
817,1435994360173,348.0
818,1435994360191,348.0
819,1435994360210,350.0
820,1435994360233,350.0
821,1435994360251,354.0
822,1435994360271,354.0
823,1435994360293,356.0
824,1435994360309,356.0
825,1435994360329,358.0
826,1435994360353,363.0
827,1435994360370,363.0
828,1435994360390,369.0
829,1435994360412,369.0
830,1435994360432,371.0
831,1435994360453,371.0
832,1435994360474,372.0
833,1435994360491,372.0
834,1435994360509,373.0
835,1435994360531,373.0
836,1435994360550,371.0
