id,attr_time,attr_light
1,1435994343824,75.0
2,1435994343853,75.0
3,1435994343864,75.0
4,1435994343883,75.0
5,1435994343904,75.0
6,1435994343923,75.0
7,1435994343944,75.0
8,1435994343965,75.0
9,1435994343982,75.0
10,1435994344004,75.0
11,1435994344025,75.0
12,1435994344045,75.0
13,1435994344065,75.0
14,1435994344086,75.0
15,1435994344106,75.0
16,1435994344126,75.0
17,1435994344146,75.0
18,1435994344166,75.0
19,1435994344187,75.0
20,1435994344204,75.0
21,1435994344226,75.0
22,1435994344248,75.0
23,1435994344267,75.0
24,1435994344287,75.0
25,1435994344306,75.0
26,1435994344323,75.0
27,1435994344343,75.0
28,1435994344363,75.0
29,1435994344388,75.0
30,1435994344409,75.0
31,1435994344424,75.0
32,1435994344445,75.0
33,1435994344474,75.0
34,1435994344536,75.0
35,1435994344537,75.0
36,1435994344538,75.0
37,1435994344543,75.0
38,1435994344574,75.0
39,1435994344585,75.0
40,1435994344603,75.0
41,1435994344625,75.0
42,1435994344644,75.0
43,1435994344665,75.0
44,1435994344684,75.0
45,1435994344707,75.0
46,1435994344726,75.0
47,1435994344746,75.0
48,1435994344766,75.0
49,1435994344786,75.0
50,1435994344806,75.0
51,1435994344826,75.0
52,1435994344846,75.0
53,1435994344866,75.0
54,1435994344886,75.0
55,1435994344907,75.0
56,1435994344924,75.0
57,1435994344946,75.0
58,1435994344963,75.0
59,1435994344983,75.0
60,1435994345004,75.0
61,1435994345034,75.0
62,1435994345050,75.0
63,1435994345063,75.0
64,1435994345133,75.0
65,1435994345134,75.0
66,1435994345135,75.0
67,1435994345143,75.0
68,1435994345164,75.0
69,1435994345187,75.0
70,1435994345246,75.0
71,1435994345247,75.0
72,1435994345248,75.0
73,1435994345265,75.0
74,1435994345285,74.0
75,1435994345305,74.0
76,1435994345325,75.0
77,1435994345346,75.0
78,1435994345364,75.0
79,1435994345386,75.0
80,1435994345405,75.0
81,1435994345426,75.0
82,1435994345447,75.0
83,1435994345467,75.0
84,1435994345487,75.0
85,1435994345507,75.0
86,1435994345527,75.0
87,1435994345547,75.0
88,1435994345567,75.0
89,1435994345587,75.0
90,1435994345607,75.0
91,1435994345628,75.0
92,1435994345645,75.0
93,1435994345667,75.0
94,1435994345686,75.0
95,1435994345706,75.0
96,1435994345727,75.0
97,1435994345748,75.0
98,1435994345767,75.0
99,1435994345787,75.0
100,1435994345808,75.0
101,1435994345826,75.0
102,1435994345847,75.0
103,1435994345867,74.0
104,1435994345887,74.0
105,1435994345913,75.0
106,1435994345975,75.0
107,1435994345976,74.0
108,1435994345977,74.0
109,1435994345984,74.0
110,1435994346014,74.0
111,1435994346025,74.0
112,1435994346044,74.0
113,1435994346066,74.0
114,1435994346084,74.0
115,1435994346105,74.0
116,1435994346129,74.0
117,1435994346145,74.0
118,1435994346168,74.0
119,1435994346188,74.0
120,1435994346208,74.0
121,1435994346228,74.0
122,1435994346248,74.0
123,1435994346268,74.0
124,1435994346288,74.0
125,1435994346308,74.0
126,1435994346328,74.0
127,1435994346348,74.0
128,1435994346366,74.0
129,1435994346388,74.0
130,1435994346408,74.0
131,1435994346428,74.0
132,1435994346448,74.0
133,1435994346468,74.0
134,1435994346487,74.0
135,1435994346507,74.0
136,1435994346528,74.0
137,1435994346545,74.0
138,1435994346568,74.0
139,1435994346587,74.0
140,1435994346606,74.0
141,1435994346626,74.0
142,1435994346689,74.0
143,1435994346690,74.0
144,1435994346691,74.0
145,1435994346714,74.0
146,1435994346725,74.0
147,1435994346745,74.0
148,1435994346766,74.0
149,1435994346785,74.0
150,1435994346806,74.0
151,1435994346825,74.0
152,1435994346846,74.0
153,1435994346868,74.0
154,1435994346886,74.0
155,1435994346906,74.0
156,1435994346928,74.0
157,1435994346948,74.0
158,1435994346968,74.0
159,1435994346988,74.0
160,1435994347008,74.0
161,1435994347028,74.0
162,1435994347048,74.0
163,1435994347069,74.0
164,1435994347088,74.0
165,1435994347106,74.0
166,1435994347129,74.0
167,1435994347149,74.0
168,1435994347169,74.0
169,1435994347188,74.0
170,1435994347207,74.0
171,1435994347228,74.0
172,1435994347248,74.0
173,1435994347269,74.0
174,1435994347289,74.0
175,1435994347309,74.0
176,1435994347326,74.0
177,1435994347347,74.0
178,1435994347387,74.0
179,1435994347438,74.0
180,1435994347439,74.0
181,1435994347440,74.0
182,1435994347476,74.0
183,1435994347477,74.0
184,1435994347486,74.0
185,1435994347506,74.0
186,1435994347526,74.0
187,1435994347546,74.0
188,1435994347571,74.0
189,1435994347614,74.0
190,1435994347615,74.0
191,1435994347626,74.0
192,1435994347647,74.0
193,1435994347668,74.0
194,1435994347688,74.0
195,1435994347707,74.0
196,1435994347727,74.0
197,1435994347748,74.0
198,1435994347768,74.0
199,1435994347788,74.0
200,1435994347808,74.0
201,1435994347828,74.0
202,1435994347847,74.0
203,1435994347867,74.0
204,1435994347889,74.0
205,1435994347908,74.0
206,1435994347927,74.0
207,1435994347948,74.0
208,1435994347969,74.0
209,1435994347989,74.0
210,1435994348009,74.0
211,1435994348029,74.0
212,1435994348049,74.0
213,1435994348069,73.0
214,1435994348087,73.0
215,1435994348107,73.0
216,1435994348128,73.0
217,1435994348147,73.0
218,1435994348193,73.0
219,1435994348194,73.0
220,1435994348216,73.0
221,1435994348226,73.0
222,1435994348247,73.0
223,1435994348266,73.0
224,1435994348286,73.0
225,1435994348308,74.0
226,1435994348329,74.0
227,1435994348348,74.0
228,1435994348366,74.0
229,1435994348388,74.0
230,1435994348408,74.0
231,1435994348430,74.0
232,1435994348450,74.0
233,1435994348470,74.0
234,1435994348490,74.0
235,1435994348510,74.0
236,1435994348530,74.0
237,1435994348550,74.0
238,1435994348570,74.0
239,1435994348588,74.0
240,1435994348608,73.0
241,1435994348630,73.0
242,1435994348650,74.0
243,1435994348670,74.0
244,1435994348687,73.0
245,1435994348709,73.0
246,1435994348730,73.0
247,1435994348750,73.0
248,1435994348770,73.0
249,1435994348790,73.0
250,1435994348808,73.0
251,1435994348828,73.0
252,1435994348848,73.0
253,1435994348869,74.0
254,1435994348915,74.0
255,1435994348916,74.0
256,1435994348936,74.0
257,1435994348947,74.0
258,1435994348968,74.0
259,1435994348989,74.0
260,1435994349009,74.0
261,1435994349029,74.0
262,1435994349049,74.0
263,1435994349069,74.0
264,1435994349090,74.0
265,1435994349108,74.0
266,1435994349128,74.0
267,1435994349148,74.0
268,1435994349170,74.0
269,1435994349190,74.0
270,1435994349208,74.0
271,1435994349231,74.0
272,1435994349251,74.0
273,1435994349271,74.0
274,1435994349291,74.0
275,1435994349311,74.0
276,1435994349333,74.0
277,1435994349351,74.0
278,1435994349368,74.0
279,1435994349389,74.0
280,1435994349414,74.0
281,1435994349428,74.0
282,1435994349447,75.0
283,1435994349468,75.0
284,1435994349487,75.0
285,1435994349514,75.0
286,1435994349528,75.0
287,1435994349548,75.0
288,1435994349569,75.0
289,1435994349593,75.0
290,1435994349652,75.0
291,1435994349653,76.0
292,1435994349663,76.0
293,1435994349669,76.0
294,1435994349689,76.0
295,1435994349711,76.0
296,1435994349728,76.0
297,1435994349753,76.0
298,1435994349768,76.0
299,1435994349789,76.0
300,1435994349810,76.0
301,1435994349830,76.0
302,1435994349849,76.0
303,1435994349870,76.0
304,1435994349891,76.0
305,1435994349911,76.0
306,1435994349928,75.0
307,1435994349948,75.0
308,1435994349968,75.0
309,1435994349989,75.0
310,1435994350009,75.0
311,1435994350154,75.0
312,1435994350155,75.0
313,1435994350156,75.0
314,1435994350157,75.0
315,1435994350158,74.0
316,1435994350159,74.0
317,1435994350160,74.0
318,1435994350168,74.0
319,1435994350188,74.0
320,1435994350208,74.0
321,1435994350228,74.0
322,1435994350248,74.0
323,1435994350268,74.0
324,1435994350288,74.0
325,1435994350337,74.0
326,1435994350338,74.0
327,1435994350384,74.0
328,1435994350385,74.0
329,1435994350391,74.0
330,1435994350408,74.0
331,1435994350429,74.0
332,1435994350448,74.0
333,1435994350469,74.0
334,1435994350492,74.0
335,1435994350509,74.0
336,1435994350528,74.0
337,1435994350549,74.0
338,1435994350568,74.0
339,1435994350589,74.0
340,1435994350609,74.0
341,1435994350628,74.0
342,1435994350650,74.0
343,1435994350669,74.0
344,1435994350688,74.0
345,1435994350709,74.0
346,1435994350732,74.0
347,1435994350750,74.0
348,1435994350769,74.0
349,1435994350789,74.0
350,1435994350810,74.0
351,1435994350832,74.0
352,1435994350852,74.0
353,1435994350870,74.0
354,1435994350889,74.0
355,1435994350909,74.0
356,1435994350930,74.0
357,1435994350952,74.0
358,1435994350972,74.0
359,1435994350991,74.0
360,1435994351010,74.0
361,1435994351029,74.0
362,1435994351059,74.0
363,1435994351069,74.0
364,1435994351088,75.0
365,1435994351108,75.0
366,1435994351129,75.0
367,1435994351149,75.0
368,1435994351168,75.0
369,1435994351188,75.0
370,1435994351208,75.0
371,1435994351228,75.0
372,1435994351252,75.0
373,1435994351269,75.0
374,1435994351293,75.0
375,1435994351313,75.0
376,1435994351329,75.0
377,1435994351352,75.0
378,1435994351374,75.0
379,1435994351390,75.0
380,1435994351413,75.0
381,1435994351431,75.0
382,1435994351449,75.0
383,1435994351471,75.0
384,1435994351493,75.0
385,1435994351513,75.0
386,1435994351537,75.0
387,1435994351551,75.0
388,1435994351573,75.0
389,1435994351594,75.0
390,1435994351609,75.0
391,1435994351633,75.0
392,1435994351650,76.0
393,1435994351702,76.0
394,1435994351703,76.0
395,1435994351714,76.0
396,1435994351730,76.0
397,1435994351751,76.0
398,1435994351770,76.0
399,1435994351790,76.0
400,1435994351812,76.0
401,1435994351834,76.0
402,1435994351852,76.0
403,1435994351871,76.0
404,1435994351893,76.0
405,1435994351910,76.0
406,1435994351933,76.0
407,1435994351953,76.0
408,1435994351972,76.0
409,1435994351993,76.0
410,1435994352013,76.0
411,1435994352033,76.0
412,1435994352053,76.0
413,1435994352074,76.0
414,1435994352093,76.0
415,1435994352113,76.0
416,1435994352130,76.0
417,1435994352150,76.0
418,1435994352170,76.0
419,1435994352195,76.0
420,1435994352216,76.0
421,1435994352236,76.0
422,1435994352253,76.0
423,1435994352270,77.0
424,1435994352291,77.0
425,1435994352312,77.0
426,1435994352333,77.0
427,1435994352351,77.0
428,1435994352403,76.0
429,1435994352404,76.0
430,1435994352417,76.0
431,1435994352430,76.0
432,1435994352452,76.0
433,1435994352470,76.0
434,1435994352490,76.0
435,1435994352513,76.0
436,1435994352535,76.0
437,1435994352552,76.0
438,1435994352574,76.0
439,1435994352591,75.0
440,1435994352613,75.0
441,1435994352633,75.0
442,1435994352653,75.0
443,1435994352674,75.0
444,1435994352690,75.0
445,1435994352713,75.0
446,1435994352734,75.0
447,1435994352754,75.0
448,1435994352774,75.0
449,1435994352794,75.0
450,1435994352813,75.0
451,1435994352834,75.0
452,1435994352854,74.0
453,1435994352872,74.0
454,1435994352891,74.0
455,1435994352912,74.0
456,1435994352937,74.0
457,1435994352957,75.0
458,1435994352977,75.0
459,1435994352994,75.0
460,1435994353011,75.0
461,1435994353031,74.0
462,1435994353053,74.0
463,1435994353073,75.0
464,1435994353091,75.0
465,1435994353145,74.0
466,1435994353146,75.0
467,1435994353154,75.0
468,1435994353186,75.0
469,1435994353192,75.0
470,1435994353211,75.0
471,1435994353231,75.0
472,1435994353254,75.0
473,1435994353271,75.0
474,1435994353291,75.0
475,1435994353314,75.0
476,1435994353331,75.0
477,1435994353351,74.0
478,1435994353375,74.0
479,1435994353395,74.0
480,1435994353415,74.0
481,1435994353435,74.0
482,1435994353454,74.0
483,1435994353475,74.0
484,1435994353495,74.0
485,1435994353515,74.0
486,1435994353545,74.0
487,1435994353552,74.0
488,1435994353574,74.0
489,1435994353600,74.0
490,1435994353612,74.0
491,1435994353634,74.0
492,1435994353654,74.0
493,1435994353672,74.0
494,1435994353692,74.0
495,1435994353718,74.0
496,1435994353734,74.0
497,1435994353752,74.0
498,1435994353772,74.0
499,1435994353800,74.0
500,1435994353811,74.0
501,1435994353833,75.0
502,1435994353856,75.0
503,1435994353876,75.0
504,1435994353893,75.0
505,1435994353912,75.0
506,1435994353933,75.0
507,1435994353952,75.0
508,1435994353972,75.0
509,1435994354008,75.0
510,1435994354014,75.0
511,1435994354037,75.0
512,1435994354052,75.0
513,1435994354072,75.0
514,1435994354094,76.0
515,1435994354113,76.0
516,1435994354133,75.0
517,1435994354153,75.0
518,1435994354174,75.0
519,1435994354194,76.0
520,1435994354212,76.0
521,1435994354235,75.0
522,1435994354255,75.0
523,1435994354273,76.0
524,1435994354293,76.0
525,1435994354314,76.0
526,1435994354334,76.0
527,1435994354357,76.0
528,1435994354376,76.0
529,1435994354394,76.0
530,1435994354415,76.0
531,1435994354436,76.0
532,1435994354456,76.0
533,1435994354474,76.0
534,1435994354494,76.0
535,1435994354517,76.0
536,1435994354552,76.0
537,1435994354553,76.0
538,1435994354573,76.0
539,1435994354593,76.0
540,1435994354613,76.0
541,1435994354635,75.0
542,1435994354654,75.0
543,1435994354673,75.0
544,1435994354693,75.0
545,1435994354716,74.0
546,1435994354736,74.0
547,1435994354756,73.0
548,1435994354775,73.0
549,1435994354795,72.0
550,1435994354816,71.0
551,1435994354836,71.0
552,1435994354856,70.0
553,1435994354876,70.0
554,1435994354897,68.0
555,1435994354913,68.0
556,1435994354936,67.0
557,1435994354953,67.0
558,1435994354973,65.0
559,1435994354994,65.0
560,1435994355018,64.0
561,1435994355034,62.0
562,1435994355059,62.0
563,1435994355076,61.0
564,1435994355094,61.0
565,1435994355113,60.0
566,1435994355133,60.0
567,1435994355308,58.0
568,1435994355309,58.0
569,1435994355310,57.0
570,1435994355311,56.0
571,1435994355317,56.0
572,1435994355318,54.0
573,1435994355319,54.0
574,1435994355320,53.0
575,1435994355321,53.0
576,1435994355347,52.0
577,1435994355384,52.0
578,1435994355385,51.0
579,1435994355408,51.0
580,1435994355415,49.0
581,1435994355435,48.0
582,1435994355454,48.0
583,1435994355476,47.0
584,1435994355495,47.0
585,1435994355517,46.0
586,1435994355537,46.0
587,1435994355557,47.0
588,1435994355577,47.0
589,1435994355597,47.0
590,1435994355617,47.0
591,1435994355637,48.0
592,1435994355657,49.0
593,1435994355674,49.0
594,1435994355697,49.0
595,1435994355717,49.0
596,1435994355736,50.0
597,1435994355756,50.0
598,1435994355775,50.0
599,1435994355797,50.0
600,1435994355817,50.0
601,1435994355838,51.0
602,1435994355857,51.0
603,1435994355876,51.0
604,1435994355895,51.0
605,1435994355916,52.0
606,1435994355935,52.0
607,1435994355958,53.0
608,1435994356008,53.0
609,1435994356009,54.0
610,1435994356022,54.0
611,1435994356035,55.0
612,1435994356055,57.0
613,1435994356075,57.0
614,1435994356095,59.0
615,1435994356115,59.0
616,1435994356134,58.0
617,1435994356155,58.0
618,1435994356181,56.0
619,1435994356195,56.0
620,1435994356214,55.0
621,1435994356237,55.0
622,1435994356257,52.0
623,1435994356277,50.0
624,1435994356297,50.0
625,1435994356317,48.0
626,1435994356337,48.0
627,1435994356357,46.0
628,1435994356376,46.0
629,1435994356398,44.0
630,1435994356416,44.0
631,1435994356438,41.0
632,1435994356458,41.0
633,1435994356478,37.0
634,1435994356497,35.0
635,1435994356516,35.0
636,1435994356537,34.0
637,1435994356557,34.0
638,1435994356578,34.0
639,1435994356598,34.0
640,1435994356618,34.0
641,1435994356636,34.0
642,1435994356656,34.0
643,1435994356675,33.0
644,1435994356697,33.0
645,1435994356749,32.0
646,1435994356750,32.0
647,1435994356755,30.0
648,1435994356775,30.0
649,1435994356795,30.0
650,1435994356815,30.0
651,1435994356835,29.0
652,1435994356856,29.0
653,1435994356875,28.0
654,1435994356900,27.0
655,1435994356922,27.0
656,1435994356935,27.0
657,1435994356958,27.0
658,1435994356975,27.0
659,1435994356995,27.0
660,1435994357015,27.0
661,1435994357035,27.0
662,1435994357055,28.0
663,1435994357075,28.0
664,1435994357095,29.0
665,1435994357115,30.0
666,1435994357135,30.0
667,1435994357155,30.0
668,1435994357175,30.0
669,1435994357195,30.0
670,1435994357220,30.0
671,1435994357236,31.0
672,1435994357255,31.0
673,1435994357275,30.0
674,1435994357295,30.0
675,1435994357315,29.0
676,1435994357335,28.0
677,1435994357355,28.0
678,1435994357376,28.0
679,1435994357395,28.0
680,1435994357414,27.0
681,1435994357436,27.0
682,1435994357454,26.0
683,1435994357475,26.0
684,1435994357494,26.0
685,1435994357515,27.0
686,1435994357538,27.0
687,1435994357557,26.0
688,1435994357575,26.0
689,1435994357599,25.0
690,1435994357617,25.0
691,1435994357637,26.0
692,1435994357659,26.0
693,1435994357679,26.0
694,1435994357699,26.0
695,1435994357718,26.0
696,1435994357737,26.0
697,1435994357759,26.0
698,1435994357777,25.0
699,1435994357797,25.0
700,1435994357817,25.0
701,1435994357837,25.0
702,1435994357857,25.0
703,1435994357876,25.0
704,1435994357899,24.0
705,1435994357919,24.0
706,1435994357940,23.0
707,1435994357959,23.0
708,1435994357978,23.0
709,1435994357996,23.0
710,1435994358018,23.0
711,1435994358037,22.0
712,1435994358059,22.0
713,1435994358104,22.0
714,1435994358105,22.0
715,1435994358124,22.0
716,1435994358137,22.0
717,1435994358156,22.0
718,1435994358176,22.0
719,1435994358196,22.0
720,1435994358218,22.0
721,1435994358238,22.0
722,1435994358257,23.0
723,1435994358277,23.0
724,1435994358297,23.0
725,1435994358319,23.0
726,1435994358339,23.0
727,1435994358359,22.0
728,1435994358376,22.0
729,1435994358398,22.0
730,1435994358417,22.0
731,1435994358439,23.0
732,1435994358459,23.0
733,1435994358478,25.0
734,1435994358498,25.0
735,1435994358517,26.0
736,1435994358538,26.0
737,1435994358558,26.0
738,1435994358578,26.0
739,1435994358598,26.0
740,1435994358618,25.0
741,1435994358640,25.0
742,1435994358658,26.0
743,1435994358680,26.0
744,1435994358701,27.0
745,1435994358718,27.0
746,1435994358738,29.0
747,1435994358759,29.0
748,1435994358782,29.0
749,1435994358865,30.0
750,1435994358866,30.0
751,1435994358867,32.0
752,1435994358868,32.0
753,1435994358884,33.0
754,1435994358897,33.0
755,1435994358917,35.0
756,1435994358937,35.0
757,1435994358969,37.0
758,1435994358987,40.0
759,1435994358997,40.0
760,1435994359017,44.0
761,1435994359037,44.0
762,1435994359059,48.0
763,1435994359080,48.0
764,1435994359100,53.0
765,1435994359120,53.0
766,1435994359140,56.0
767,1435994359160,56.0
768,1435994359180,57.0
769,1435994359197,59.0
770,1435994359218,59.0
771,1435994359238,63.0
772,1435994359261,63.0
773,1435994359280,66.0
774,1435994359297,66.0
775,1435994359317,68.0
776,1435994359338,68.0
777,1435994359358,71.0
778,1435994359378,71.0
779,1435994359398,75.0
780,1435994359420,79.0
781,1435994359437,79.0
782,1435994359458,81.0
783,1435994359478,81.0
784,1435994359499,83.0
785,1435994359524,83.0
786,1435994359570,84.0
787,1435994359571,84.0
788,1435994359580,86.0
789,1435994359597,86.0
790,1435994359617,88.0
791,1435994359637,91.0
792,1435994359657,91.0
793,1435994359679,94.0
794,1435994359697,94.0
795,1435994359718,97.0
796,1435994359738,97.0
797,1435994359759,100.0
798,1435994359778,100.0
799,1435994359799,102.0
800,1435994359821,103.0
801,1435994359838,103.0
802,1435994359858,104.0
803,1435994359878,104.0
804,1435994359898,103.0
805,1435994359918,103.0
806,1435994359938,103.0
807,1435994359961,103.0
808,1435994359978,104.0
809,1435994359998,104.0
810,1435994360020,105.0
811,1435994360040,105.0
812,1435994360060,105.0
813,1435994360078,108.0
814,1435994360098,108.0
815,1435994360122,110.0
816,1435994360140,110.0
817,1435994360161,108.0
818,1435994360224,108.0
819,1435994360225,107.0
820,1435994360226,107.0
821,1435994360240,105.0
822,1435994360360,106.0
823,1435994360361,106.0
824,1435994360362,108.0
825,1435994360363,108.0
826,1435994360364,108.0
827,1435994360365,108.0
828,1435994360393,109.0
829,1435994360404,109.0
830,1435994360417,111.0
831,1435994360437,110.0
832,1435994360457,110.0
833,1435994360477,111.0
834,1435994360497,111.0
835,1435994360517,112.0
836,1435994360537,112.0
837,1435994360557,112.0
838,1435994360579,112.0
839,1435994360598,113.0
840,1435994360620,113.0
841,1435994360640,114.0
842,1435994360661,116.0
843,1435994360680,116.0
844,1435994360704,119.0
845,1435994360720,119.0
846,1435994360739,122.0
847,1435994360758,122.0
848,1435994360779,124.0
849,1435994360802,124.0
850,1435994360819,125.0
851,1435994360839,125.0
852,1435994360859,125.0
853,1435994360879,122.0
854,1435994360899,122.0
855,1435994360920,119.0
856,1435994360939,119.0
857,1435994360960,117.0
858,1435994361001,117.0
859,1435994361002,115.0
860,1435994361018,115.0
861,1435994361039,111.0
862,1435994361060,111.0
863,1435994361078,110.0
864,1435994361098,110.0
865,1435994361123,110.0
866,1435994361139,107.0
867,1435994361159,107.0
868,1435994361183,105.0
869,1435994361201,105.0
870,1435994361223,102.0
