id,attr_time,attr_light
1,1435994343825,0.0
2,1435994343853,0.0
3,1435994343860,0.0
4,1435994343879,0.0
5,1435994343901,0.0
6,1435994343921,0.0
7,1435994343985,0.0
8,1435994343986,0.0
9,1435994343987,0.0
10,1435994343999,0.0
11,1435994344024,0.0
12,1435994344039,0.0
13,1435994344059,0.0
14,1435994344085,0.0
15,1435994344099,0.0
16,1435994344119,0.0
17,1435994344139,0.0
18,1435994344159,0.0
19,1435994344179,0.0
20,1435994344199,0.0
21,1435994344219,0.0
22,1435994344239,0.0
23,1435994344263,0.0
24,1435994344284,0.0
25,1435994344300,0.0
26,1435994344320,0.0
27,1435994344340,0.0
28,1435994344359,0.0
29,1435994344385,0.0
30,1435994344405,0.0
31,1435994344425,0.0
32,1435994344443,0.0
33,1435994344464,0.0
34,1435994344481,0.0
35,1435994344502,0.0
36,1435994344523,0.0
37,1435994344543,0.0
38,1435994344563,0.0
39,1435994344583,0.0
40,1435994344600,0.0
41,1435994344623,0.0
42,1435994344643,0.0
43,1435994344663,0.0
44,1435994344683,0.0
45,1435994344703,0.0
46,1435994344723,0.0
47,1435994344744,0.0
48,1435994344763,0.0
49,1435994344783,0.0
50,1435994344804,0.0
51,1435994344824,0.0
52,1435994344844,0.0
53,1435994344863,0.0
54,1435994344883,0.0
55,1435994344904,0.0
56,1435994344924,0.0
57,1435994344944,0.0
58,1435994344964,0.0
59,1435994344981,0.0
60,1435994345001,0.0
61,1435994345020,0.0
62,1435994345043,0.0
63,1435994345062,0.0
64,1435994345081,0.0
65,1435994345104,0.0
66,1435994345122,0.0
67,1435994345144,0.0
68,1435994345164,0.0
69,1435994345184,0.0
70,1435994345204,0.0
71,1435994345224,0.0
72,1435994345242,0.0
73,1435994345264,0.0
74,1435994345284,0.0
75,1435994345303,0.0
76,1435994345324,0.0
77,1435994345344,0.0
78,1435994345362,0.0
79,1435994345381,0.0
80,1435994345401,0.0
81,1435994345422,0.0
82,1435994345441,0.0
83,1435994345462,0.0
84,1435994345484,0.0
85,1435994345504,0.0
86,1435994345522,0.0
87,1435994345544,0.0
88,1435994345564,0.0
89,1435994345584,0.0
90,1435994345604,0.0
91,1435994345623,0.0
92,1435994345645,0.0
93,1435994345664,0.0
94,1435994345684,0.0
95,1435994345704,0.0
96,1435994345727,0.0
97,1435994345745,0.0
98,1435994345765,0.0
99,1435994345784,0.0
100,1435994345805,0.0
101,1435994345824,0.0
102,1435994345844,0.0
103,1435994345865,0.0
104,1435994345885,0.0
105,1435994345905,0.0
106,1435994345927,0.0
107,1435994345945,0.0
108,1435994345965,0.0
109,1435994345985,0.0
110,1435994346005,0.0
111,1435994346025,0.0
112,1435994346045,0.0
113,1435994346065,0.0
114,1435994346085,0.0
115,1435994346102,0.0
116,1435994346125,0.0
117,1435994346145,0.0
118,1435994346165,0.0
119,1435994346185,0.0
120,1435994346205,0.0
121,1435994346225,0.0
122,1435994346245,0.0
123,1435994346265,0.0
124,1435994346285,0.0
125,1435994346305,0.0
126,1435994346325,0.0
127,1435994346344,0.0
128,1435994346365,0.0
129,1435994346385,0.0
130,1435994346405,0.0
131,1435994346425,0.0
132,1435994346444,0.0
133,1435994346465,0.0
134,1435994346485,0.0
135,1435994346505,0.0
136,1435994346525,0.0
137,1435994346543,0.0
138,1435994346565,0.0
139,1435994346585,0.0
140,1435994346605,0.0
141,1435994346625,0.0
142,1435994346645,0.0
143,1435994346665,0.0
144,1435994346685,0.0
145,1435994346705,0.0
146,1435994346726,0.0
147,1435994346748,0.0
148,1435994346765,0.0
149,1435994346785,0.0
150,1435994346806,0.0
151,1435994346825,0.0
152,1435994346845,0.0
153,1435994346867,0.0
154,1435994346886,0.0
155,1435994346906,0.0
156,1435994346926,0.0
157,1435994346946,0.0
158,1435994346967,0.0
159,1435994346986,0.0
160,1435994347006,0.0
161,1435994347026,0.0
162,1435994347046,0.0
163,1435994347066,0.0
164,1435994347086,0.0
165,1435994347106,0.0
166,1435994347126,0.0
167,1435994347146,0.0
168,1435994347165,0.0
169,1435994347187,0.0
170,1435994347206,0.0
171,1435994347226,0.0
172,1435994347246,0.0
173,1435994347266,0.0
174,1435994347286,0.0
175,1435994347332,0.0
176,1435994347333,0.0
177,1435994347345,0.0
178,1435994347364,0.0
179,1435994347386,0.0
180,1435994347406,0.0
181,1435994347426,0.0
182,1435994347447,0.0
183,1435994347465,0.0
184,1435994347487,0.0
185,1435994347506,0.0
186,1435994347526,0.0
187,1435994347546,0.0
188,1435994347566,0.0
189,1435994347587,0.0
190,1435994347606,0.0
191,1435994347627,0.0
192,1435994347646,0.0
193,1435994347669,0.0
194,1435994347687,0.0
195,1435994347706,0.0
196,1435994347726,0.0
197,1435994347746,0.0
198,1435994347766,0.0
199,1435994347787,0.0
200,1435994347807,0.0
201,1435994347826,0.0
202,1435994347846,0.0
203,1435994347866,0.0
204,1435994347887,0.0
205,1435994347907,0.0
206,1435994347927,0.0
207,1435994347947,0.0
208,1435994347967,0.0
209,1435994347986,0.0
210,1435994348007,0.0
211,1435994348027,0.0
212,1435994348047,0.0
213,1435994348067,0.0
214,1435994348085,0.0
215,1435994348107,0.0
216,1435994348127,0.0
217,1435994348147,0.0
218,1435994348167,0.0
219,1435994348185,0.0
220,1435994348207,0.0
221,1435994348227,0.0
222,1435994348247,0.0
223,1435994348267,0.0
224,1435994348284,0.0
225,1435994348306,0.0
226,1435994348327,0.0
227,1435994348347,0.0
228,1435994348367,0.0
229,1435994348387,0.0
230,1435994348407,0.0
231,1435994348427,0.0
232,1435994348447,0.0
233,1435994348467,0.0
234,1435994348488,0.0
235,1435994348507,0.0
236,1435994348528,0.0
237,1435994348547,0.0
238,1435994348567,0.0
239,1435994348587,0.0
240,1435994348607,0.0
241,1435994348627,0.0
242,1435994348647,0.0
243,1435994348667,0.0
244,1435994348687,0.0
245,1435994348707,0.0
246,1435994348727,0.0
247,1435994348747,0.0
248,1435994348767,0.0
249,1435994348787,0.0
250,1435994348806,0.0
251,1435994348827,0.0
252,1435994348847,0.0
253,1435994348867,0.0
254,1435994348888,0.0
255,1435994348906,0.0
256,1435994348927,0.0
257,1435994348947,0.0
258,1435994348967,0.0
259,1435994348988,0.0
260,1435994349005,0.0
261,1435994349024,0.0
262,1435994349045,0.0
263,1435994349066,0.0
264,1435994349087,0.0
265,1435994349142,0.0
266,1435994349145,0.0
267,1435994349146,0.0
268,1435994349164,0.0
269,1435994349184,0.0
270,1435994349204,0.0
271,1435994349225,0.0
272,1435994349244,0.0
273,1435994349264,0.0
274,1435994349284,0.0
275,1435994349305,0.0
276,1435994349326,0.0
277,1435994349345,0.0
278,1435994349368,0.0
279,1435994349387,0.0
280,1435994349406,0.0
281,1435994349426,0.0
282,1435994349447,0.0
283,1435994349468,0.0
284,1435994349487,0.0
285,1435994349507,0.0
286,1435994349526,0.0
287,1435994349547,0.0
288,1435994349568,0.0
289,1435994349587,0.0
290,1435994349608,0.0
291,1435994349626,0.0
292,1435994349647,0.0
293,1435994349668,0.0
294,1435994349687,0.0
295,1435994349718,0.0
296,1435994349735,0.0
297,1435994349745,0.0
298,1435994349765,0.0
299,1435994349785,0.0
300,1435994349805,0.0
301,1435994349826,0.0
302,1435994349847,0.0
303,1435994349868,0.0
304,1435994349887,0.0
305,1435994349908,0.0
306,1435994349926,0.0
307,1435994349947,0.0
308,1435994349969,0.0
309,1435994349987,0.0
310,1435994350008,0.0
311,1435994350026,0.0
312,1435994350047,0.0
313,1435994350066,0.0
314,1435994350086,0.0
315,1435994350106,0.0
316,1435994350125,0.0
317,1435994350148,0.0
318,1435994350166,0.0
319,1435994350187,0.0
320,1435994350207,0.0
321,1435994350231,0.0
322,1435994350246,0.0
323,1435994350266,0.0
324,1435994350286,0.0
325,1435994350306,0.0
326,1435994350327,0.0
327,1435994350347,0.0
328,1435994350369,0.0
329,1435994350387,0.0
330,1435994350409,0.0
331,1435994350426,0.0
332,1435994350447,0.0
333,1435994350469,0.0
334,1435994350487,0.0
335,1435994350508,0.0
336,1435994350528,0.0
337,1435994350547,0.0
338,1435994350569,0.0
339,1435994350589,0.0
340,1435994350607,0.0
341,1435994350629,0.0
342,1435994350647,0.0
343,1435994350668,0.0
344,1435994350689,0.0
345,1435994350706,0.0
346,1435994350732,0.0
347,1435994350746,0.0
348,1435994350766,0.0
349,1435994350786,0.0
350,1435994350807,0.0
351,1435994350827,0.0
352,1435994350856,0.0
353,1435994350870,0.0
354,1435994350889,0.0
355,1435994350907,0.0
356,1435994350928,0.0
357,1435994350948,0.0
358,1435994350967,0.0
359,1435994350989,0.0
360,1435994351009,0.0
361,1435994351027,0.0
362,1435994351049,0.0
363,1435994351069,0.0
364,1435994351087,0.0
365,1435994351109,0.0
366,1435994351126,0.0
367,1435994351149,0.0
368,1435994351169,0.0
369,1435994351187,0.0
370,1435994351214,0.0
371,1435994351229,0.0
372,1435994351247,0.0
373,1435994351267,0.0
374,1435994351287,0.0
375,1435994351307,0.0
376,1435994351327,0.0
377,1435994351349,0.0
378,1435994351369,0.0
379,1435994351389,0.0
380,1435994351410,0.0
381,1435994351427,0.0
382,1435994351447,0.0
383,1435994351469,0.0
384,1435994351489,0.0
385,1435994351510,0.0
386,1435994351527,0.0
387,1435994351547,0.0
388,1435994351569,0.0
389,1435994351590,0.0
390,1435994351610,0.0
391,1435994351628,0.0
392,1435994351648,0.0
393,1435994351670,0.0
394,1435994351689,0.0
395,1435994351713,0.0
396,1435994351728,0.0
397,1435994351748,0.0
398,1435994351767,0.0
399,1435994351787,0.0
400,1435994351808,0.0
401,1435994351830,0.0
402,1435994351857,0.0
403,1435994351873,0.0
404,1435994351890,0.0
405,1435994351909,0.0
406,1435994351928,0.0
407,1435994351950,0.0
408,1435994351970,0.0
409,1435994351990,0.0
410,1435994352010,0.0
411,1435994352028,0.0
412,1435994352050,0.0
413,1435994352070,0.0
414,1435994352090,0.0
415,1435994352110,0.0
416,1435994352129,0.0
417,1435994352150,0.0
418,1435994352170,0.0
419,1435994352190,0.0
420,1435994352213,0.0
421,1435994352228,0.0
422,1435994352248,0.0
423,1435994352267,0.0
424,1435994352287,0.0
425,1435994352308,0.0
426,1435994352329,0.0
427,1435994352351,0.0
428,1435994352370,0.0
429,1435994352391,0.0
430,1435994352411,0.0
431,1435994352429,0.0
432,1435994352451,0.0
433,1435994352470,0.0
434,1435994352491,0.0
435,1435994352511,0.0
436,1435994352529,0.0
437,1435994352551,0.0
438,1435994352568,0.0
439,1435994352591,0.0
440,1435994352611,0.0
441,1435994352630,0.0
442,1435994352651,0.0
443,1435994352672,0.0
444,1435994352691,0.0
445,1435994352710,0.0
446,1435994352728,0.0
447,1435994352748,0.0
448,1435994352768,0.0
449,1435994352788,0.0
450,1435994352808,0.0
451,1435994352832,0.0
452,1435994352857,0.0
453,1435994352875,0.0
454,1435994352890,0.0
455,1435994352911,0.0
456,1435994352931,0.0
457,1435994352951,0.0
458,1435994352972,0.0
459,1435994352991,0.0
460,1435994353011,0.0
461,1435994353031,0.0
462,1435994353051,0.0
463,1435994353072,0.0
464,1435994353091,0.0
465,1435994353111,0.0
466,1435994353131,0.0
467,1435994353151,0.0
468,1435994353172,0.0
469,1435994353191,0.0
470,1435994353210,0.0
471,1435994353229,0.0
472,1435994353249,0.0
473,1435994353268,0.0
474,1435994353288,0.0
475,1435994353308,0.0
476,1435994353331,0.0
477,1435994353352,0.0
478,1435994353373,0.0
479,1435994353391,0.0
480,1435994353412,0.0
481,1435994353431,0.0
482,1435994353452,0.0
483,1435994353473,0.0
484,1435994353491,0.0
485,1435994353512,0.0
486,1435994353531,0.0
487,1435994353552,0.0
488,1435994353574,0.0
489,1435994353591,0.0
490,1435994353612,0.0
491,1435994353631,0.0
492,1435994353652,0.0
493,1435994353673,0.0
494,1435994353689,0.0
495,1435994353711,0.0
496,1435994353729,0.0
497,1435994353749,0.0
498,1435994353769,0.0
499,1435994353790,0.0
500,1435994353810,0.0
501,1435994353832,0.0
502,1435994353857,0.0
503,1435994353873,0.0
504,1435994353890,0.0
505,1435994353912,0.0
506,1435994353932,0.0
507,1435994353952,0.0
508,1435994353972,0.0
509,1435994353994,0.0
510,1435994354012,0.0
511,1435994354032,0.0
512,1435994354052,0.0
513,1435994354072,0.0
514,1435994354092,0.0
515,1435994354112,0.0
516,1435994354132,0.0
517,1435994354152,0.0
518,1435994354172,0.0
519,1435994354195,0.0
520,1435994354210,0.0
521,1435994354229,0.0
522,1435994354249,0.0
523,1435994354269,0.0
524,1435994354290,0.0
525,1435994354312,0.0
526,1435994354332,0.0
527,1435994354352,0.0
528,1435994354372,0.0
529,1435994354392,0.0
530,1435994354412,0.0
531,1435994354433,0.0
532,1435994354453,0.0
533,1435994354473,0.0
534,1435994354493,0.0
535,1435994354513,0.0
536,1435994354532,0.0
537,1435994354553,0.0
538,1435994354573,0.0
539,1435994354593,0.0
540,1435994354612,0.0
541,1435994354632,0.0
542,1435994354653,0.0
543,1435994354673,0.0
544,1435994354695,0.0
545,1435994354710,0.0
546,1435994354731,0.0
547,1435994354750,0.0
548,1435994354770,0.0
549,1435994354790,0.0
550,1435994354814,0.0
551,1435994354832,0.0
552,1435994354856,0.0
553,1435994354872,0.0
554,1435994354890,0.0
555,1435994354913,0.0
556,1435994354964,0.0
557,1435994354965,0.0
558,1435994354974,0.0
559,1435994355015,0.0
560,1435994355016,0.0
561,1435994355029,0.0
562,1435994355049,0.0
563,1435994355069,0.0
564,1435994355089,0.0
565,1435994355109,0.0
566,1435994355129,0.0
567,1435994355149,0.0
568,1435994355169,0.0
569,1435994355190,0.0
570,1435994355209,0.0
571,1435994355229,0.0
572,1435994355249,0.0
573,1435994355269,0.0
574,1435994355289,0.0
575,1435994355311,0.0
576,1435994355330,0.0
577,1435994355353,0.0
578,1435994355373,0.0
579,1435994355393,0.0
580,1435994355413,0.0
581,1435994355433,0.0
582,1435994355453,0.0
583,1435994355473,0.0
584,1435994355494,0.0
585,1435994355521,0.0
586,1435994355531,0.0
587,1435994355554,0.0
588,1435994355574,0.0
589,1435994355594,0.0
590,1435994355614,0.0
591,1435994355634,0.0
592,1435994355653,0.0
593,1435994355674,0.0
594,1435994355694,0.0
595,1435994355714,0.0
596,1435994355731,0.0
597,1435994355754,0.0
598,1435994355774,0.0
599,1435994355794,0.0
600,1435994355814,0.0
601,1435994355832,0.0
602,1435994355854,0.0
603,1435994355874,0.0
604,1435994355894,0.0
605,1435994355914,0.0
606,1435994355933,0.0
607,1435994355954,0.0
608,1435994355974,0.0
609,1435994355994,0.0
610,1435994356014,0.0
611,1435994356034,0.0
612,1435994356056,0.0
613,1435994356074,0.0
614,1435994356095,0.0
615,1435994356114,0.0
616,1435994356136,0.0
617,1435994356154,0.0
618,1435994356174,0.0
619,1435994356194,0.0
620,1435994356214,0.0
621,1435994356234,0.0
622,1435994356254,0.0
623,1435994356273,0.0
624,1435994356297,0.0
625,1435994356311,0.0
626,1435994356331,0.0
627,1435994356351,0.0
628,1435994356374,0.0
629,1435994356394,0.0
630,1435994356414,0.0
631,1435994356433,0.0
632,1435994356455,0.0
633,1435994356474,0.0
634,1435994356494,0.0
635,1435994356514,0.0
636,1435994356534,0.0
637,1435994356554,0.0
638,1435994356575,0.0
639,1435994356595,0.0
640,1435994356615,0.0
641,1435994356635,0.0
642,1435994356654,0.0
643,1435994356675,0.0
644,1435994356695,0.0
645,1435994356715,0.0
646,1435994356735,0.0
647,1435994356753,0.0
648,1435994356775,0.0
649,1435994356795,0.0
650,1435994356815,0.0
651,1435994356835,0.0
652,1435994356853,0.0
653,1435994356875,0.0
654,1435994356895,0.0
655,1435994356915,0.0
656,1435994356935,0.0
657,1435994356955,0.0
658,1435994356974,0.0
659,1435994356995,0.0
660,1435994357015,0.0
661,1435994357035,0.0
662,1435994357056,0.0
663,1435994357075,0.0
664,1435994357095,0.0
665,1435994357115,0.0
666,1435994357135,0.0
667,1435994357155,0.0
668,1435994357175,0.0
669,1435994357195,0.0
670,1435994357215,0.0
671,1435994357235,0.0
672,1435994357254,0.0
673,1435994357275,0.0
674,1435994357295,0.0
675,1435994357342,0.0
676,1435994357343,0.0
677,1435994357355,0.0
678,1435994357375,0.0
679,1435994357395,0.0
680,1435994357415,0.0
681,1435994357435,0.0
682,1435994357455,0.0
683,1435994357475,0.0
684,1435994357495,0.0
685,1435994357515,0.0
686,1435994357536,0.0
687,1435994357555,0.0
688,1435994357574,0.0
689,1435994357597,0.0
690,1435994357616,0.0
691,1435994357636,0.0
692,1435994357656,0.0
693,1435994357674,0.0
694,1435994357697,0.0
695,1435994357716,0.0
696,1435994357736,0.0
697,1435994357756,0.0
698,1435994357773,0.0
699,1435994357797,0.0
700,1435994357816,0.0
701,1435994357836,0.0
702,1435994357856,0.0
703,1435994357876,0.0
704,1435994357898,0.0
705,1435994357916,0.0
706,1435994357936,0.0
707,1435994357956,0.0
708,1435994357977,0.0
709,1435994357996,0.0
710,1435994358016,0.0
711,1435994358036,0.0
712,1435994358058,0.0
713,1435994358078,0.0
714,1435994358096,0.0
715,1435994358116,0.0
716,1435994358136,0.0
717,1435994358156,0.0
718,1435994358176,0.0
719,1435994358197,0.0
720,1435994358216,0.0
721,1435994358236,0.0
722,1435994358255,0.0
723,1435994358277,0.0
724,1435994358297,0.0
725,1435994358317,0.0
726,1435994358338,0.0
727,1435994358356,0.0
728,1435994358376,0.0
729,1435994358396,0.0
730,1435994358417,0.0
731,1435994358437,0.0
732,1435994358456,0.0
733,1435994358476,0.0
734,1435994358495,0.0
735,1435994358517,0.0
736,1435994358536,0.0
737,1435994358556,0.0
738,1435994358577,0.0
739,1435994358595,0.0
740,1435994358617,0.0
741,1435994358637,0.0
742,1435994358654,0.0
743,1435994358674,0.0
744,1435994358694,0.0
745,1435994358713,0.0
746,1435994358733,0.0
747,1435994358753,0.0
748,1435994358778,0.0
749,1435994358793,0.0
750,1435994358815,0.0
751,1435994358837,0.0
752,1435994358857,0.0
753,1435994358877,0.0
754,1435994358894,0.0
755,1435994358916,0.0
756,1435994358937,0.0
757,1435994358957,0.0
758,1435994358977,0.0
759,1435994358996,0.0
760,1435994359017,0.0
761,1435994359037,0.0
762,1435994359057,0.0
763,1435994359077,0.0
764,1435994359096,0.0
765,1435994359114,0.0
766,1435994359134,0.0
767,1435994359154,0.0
768,1435994359176,0.0
769,1435994359198,0.0
770,1435994359216,0.0
771,1435994359237,0.0
772,1435994359255,0.0
773,1435994359277,0.0
774,1435994359297,0.0
775,1435994359316,0.0
776,1435994359338,0.0
777,1435994359357,0.0
778,1435994359377,0.0
779,1435994359397,0.0
780,1435994359416,0.0
781,1435994359437,0.0
782,1435994359457,0.0
783,1435994359477,0.0
784,1435994359497,0.0
785,1435994359516,0.0
786,1435994359537,0.0
787,1435994359557,0.0
788,1435994359577,0.0
789,1435994359597,0.0
790,1435994359616,0.0
791,1435994359637,0.0
792,1435994359658,0.0
793,1435994359677,0.0
794,1435994359698,0.0
795,1435994359716,0.0
796,1435994359737,0.0
797,1435994359758,0.0
798,1435994359777,0.0
799,1435994359798,0.0
800,1435994359815,0.0
801,1435994359837,0.0
802,1435994359858,0.0
803,1435994359877,0.0
804,1435994359898,0.0
805,1435994359915,0.0
806,1435994359937,0.0
807,1435994359958,0.0
808,1435994359977,0.0
809,1435994359998,0.0
810,1435994361088,0.0
811,1435994361089,0.0
812,1435994361090,0.0
813,1435994361091,0.0
814,1435994361092,0.0
815,1435994361093,0.0
816,1435994361094,0.0
817,1435994361095,0.0
818,1435994361096,0.0
819,1435994361097,0.0
820,1435994361098,0.0
821,1435994361099,0.0
822,1435994361100,0.0
823,1435994361101,0.0
824,1435994361102,0.0
825,1435994361103,0.0
826,1435994361104,0.0
827,1435994361105,0.0
828,1435994361106,0.0
829,1435994361107,0.0
830,1435994361108,0.0
831,1435994361109,0.0
832,1435994361110,0.0
833,1435994361111,0.0
834,1435994361112,0.0
835,1435994361113,0.0
836,1435994361114,0.0
837,1435994361115,0.0
838,1435994361116,0.0
839,1435994361117,0.0
840,1435994361118,0.0
841,1435994361119,0.0
842,1435994361120,0.0
843,1435994361121,0.0
844,1435994361122,0.0
845,1435994361123,0.0
846,1435994361124,0.0
847,1435994361125,0.0
848,1435994361126,0.0
849,1435994361127,0.0
850,1435994361128,0.0
851,1435994361129,0.0
852,1435994361130,0.0
853,1435994361131,0.0
854,1435994361132,0.0
855,1435994361133,0.0
856,1435994361134,0.0
857,1435994361135,0.0
858,1435994361136,0.0
859,1435994361137,0.0
860,1435994361138,0.0
861,1435994361139,0.0
862,1435994361140,0.0
863,1435994361141,0.0
864,1435994361142,0.0
865,1435994361143,0.0
866,1435994361144,0.0
867,1435994361155,0.0
868,1435994361175,0.0
869,1435994361195,0.0
870,1435994361215,0.0
871,1435994361235,0.0
872,1435994361255,0.0
873,1435994361275,0.0
874,1435994361295,0.0
875,1435994361319,0.0
876,1435994361335,0.0
877,1435994361355,0.0
878,1435994361375,0.0
879,1435994361397,0.0
880,1435994361416,0.0
881,1435994361437,0.0
882,1435994361457,0.0
883,1435994361477,0.0
884,1435994361498,0.0
885,1435994361519,0.0
886,1435994361537,0.0
887,1435994361559,0.0
888,1435994361576,0.0
889,1435994361598,0.0
890,1435994361619,0.0
891,1435994361637,0.0
892,1435994361659,0.0
893,1435994361677,0.0
894,1435994361697,0.0
895,1435994361719,0.0
896,1435994361739,0.0
897,1435994361759,0.0
898,1435994361776,0.0
899,1435994361806,0.0
900,1435994361819,0.0
901,1435994361836,0.0
902,1435994361857,0.0
903,1435994361876,0.0
904,1435994361897,0.0
905,1435994361918,0.0
906,1435994361937,0.0
907,1435994361957,0.0
908,1435994361980,0.0
909,1435994361997,0.0
910,1435994362018,0.0
911,1435994362037,0.0
912,1435994362057,0.0
