id,attr_time,attr_x,attr_y,attr_z
1,1436980333517,12.326,11.122,49.647
2,1436980333539,12.326,11.122,49.647
3,1436980333559,12.326,11.122,49.647
4,1436980333579,12.326,11.122,49.647
5,1436980333598,12.326,11.122,49.647
6,1436980333617,12.326,11.122,49.647
7,1436980333638,12.326,11.122,49.647
8,1436980333658,12.326,11.122,49.647
9,1436980333678,12.326,11.122,49.647
10,1436980333699,12.326,10.812,49.647
11,1436980333718,12.326,10.812,49.647
12,1436980333737,12.326,10.812,49.647
13,1436980333757,12.326,10.812,49.987
14,1436980333778,12.326,10.812,49.987
15,1436980333798,12.326,10.812,49.987
16,1436980333819,12.326,10.812,49.987
17,1436980333838,12.326,10.812,49.987
18,1436980333858,12.326,10.812,49.987
19,1436980333878,12.326,10.812,49.987
20,1436980333902,12.326,10.812,49.987
21,1436980333922,12.326,10.812,49.987
22,1436980333941,12.326,10.812,49.987
23,1436980333958,12.326,10.812,49.987
24,1436980333981,12.017,10.812,49.987
25,1436980334002,12.017,10.812,49.987
26,1436980334021,12.017,10.812,49.987
27,1436980334039,12.017,10.812,49.987
28,1436980334061,12.017,10.812,49.987
29,1436980334081,12.017,10.812,49.987
30,1436980334100,11.717,10.812,49.987
31,1436980334122,11.717,10.505,49.987
32,1436980334142,11.717,10.505,49.987
33,1436980334159,11.717,10.505,49.987
34,1436980334179,11.717,10.505,49.987
35,1436980334199,11.717,10.505,49.987
36,1436980334222,11.717,10.505,49.987
37,1436980334239,11.717,10.505,49.987
38,1436980334261,11.717,10.505,49.987
39,1436980334280,11.717,10.505,49.987
40,1436980334303,11.717,10.505,49.987
41,1436980334372,11.717,10.505,49.987
42,1436980334376,11.717,10.505,49.987
43,1436980334380,11.717,10.189,49.987
44,1436980334381,11.717,10.189,49.987
45,1436980334408,11.717,10.189,49.987
46,1436980334419,11.717,10.189,50.315
47,1436980334441,11.717,10.189,50.315
48,1436980334463,11.717,10.189,50.315
49,1436980334479,11.717,10.189,50.315
50,1436980334502,11.717,10.189,50.315
51,1436980334521,11.717,10.189,50.315
52,1436980334540,11.717,10.189,50.315
53,1436980334559,11.717,10.189,50.315
54,1436980334580,11.717,10.189,50.315
55,1436980334602,11.717,10.189,50.315
56,1436980334620,11.717,10.189,50.315
57,1436980334641,11.717,10.189,50.315
58,1436980334662,11.717,10.189,50.315
59,1436980334682,11.717,10.189,50.315
60,1436980334702,11.717,10.189,50.315
61,1436980334722,11.717,10.189,50.315
62,1436980334741,11.717,10.189,50.315
63,1436980334761,11.717,10.189,50.315
64,1436980334781,11.717,10.189,50.315
65,1436980334802,11.717,10.189,50.315
66,1436980334823,11.717,10.189,50.315
67,1436980334841,11.717,10.189,50.315
68,1436980334863,11.415,10.189,50.315
69,1436980334881,11.415,10.189,50.315
70,1436980334901,11.415,10.189,50.315
71,1436980334928,11.415,10.189,50.315
72,1436980334939,11.415,9.889,50.315
73,1436980334959,11.415,9.889,50.315
74,1436980334979,11.415,9.889,50.627
75,1436980335000,11.07,9.889,50.627
76,1436980335028,11.07,9.889,50.627
77,1436980335087,11.07,9.889,50.627
78,1436980335088,11.07,9.889,50.627
79,1436980335089,11.07,9.889,50.627
80,1436980335110,11.07,9.889,50.627
81,1436980335119,11.07,9.889,50.627
82,1436980335149,10.749,9.889,50.627
83,1436980335163,10.749,9.889,50.627
84,1436980335179,10.749,9.889,50.627
85,1436980335200,10.749,9.889,50.627
86,1436980335219,10.749,9.889,50.627
87,1436980335244,10.749,9.889,50.944
88,1436980335263,10.749,9.889,50.944
89,1436980335281,10.749,9.889,50.944
90,1436980335300,10.749,9.889,50.944
91,1436980335323,10.749,9.889,50.944
92,1436980335344,10.749,9.889,50.944
93,1436980335362,10.749,9.889,50.944
94,1436980335383,10.749,9.889,50.944
95,1436980335402,10.749,9.889,50.944
96,1436980335422,10.749,9.889,50.944
97,1436980335444,10.749,9.889,50.944
98,1436980335463,10.749,9.889,50.944
99,1436980335484,11.077,9.889,50.944
100,1436980335500,11.077,9.889,50.944
101,1436980335522,11.077,9.889,50.944
102,1436980335543,11.077,9.889,50.944
103,1436980335562,11.077,9.889,50.944
104,1436980335583,11.077,9.889,50.944
105,1436980335600,11.077,9.889,50.944
106,1436980335624,11.077,9.889,50.944
107,1436980335644,11.077,9.889,50.944
108,1436980335663,11.077,9.889,50.944
109,1436980335683,11.077,9.889,50.944
110,1436980335702,11.383,9.889,50.944
111,1436980335723,11.383,9.889,50.944
112,1436980335743,11.383,10.203,50.944
113,1436980335765,11.383,10.203,50.944
114,1436980335841,11.383,10.203,50.944
115,1436980335842,11.383,10.203,50.944
116,1436980335843,11.383,10.203,50.944
117,1436980335844,11.383,10.203,50.944
118,1436980335863,11.383,10.203,50.944
119,1436980335885,11.383,10.203,50.944
120,1436980335902,11.383,10.203,50.944
121,1436980335920,11.383,10.203,50.944
122,1436980335945,11.383,10.203,50.944
123,1436980335960,11.383,10.203,50.643
124,1436980335984,11.712,10.203,50.643
125,1436980336006,11.712,10.203,50.643
126,1436980336021,11.712,10.203,50.643
127,1436980336044,11.712,10.523,50.643
128,1436980336064,11.712,10.523,50.643
129,1436980336084,12.014,10.523,50.643
130,1436980336105,12.014,10.523,50.643
131,1436980336123,12.014,10.523,50.643
132,1436980336144,12.014,10.523,50.643
133,1436980336164,12.014,10.523,50.643
134,1436980336184,12.014,10.523,50.643
135,1436980336204,12.322,10.523,50.643
136,1436980336224,12.322,10.523,50.643
137,1436980336240,12.322,10.523,50.643
138,1436980336265,12.322,10.523,50.643
139,1436980336284,12.322,10.523,50.643
140,1436980336303,12.322,10.841,50.643
141,1436980336323,12.322,10.841,50.643
142,1436980336344,12.322,10.841,50.643
143,1436980336364,12.322,10.841,50.643
144,1436980336383,12.322,10.841,50.643
145,1436980336404,12.322,10.841,50.643
146,1436980336425,12.322,10.841,50.643
147,1436980336445,12.322,10.841,50.643
148,1436980336465,12.322,10.841,50.643
149,1436980336483,12.322,10.841,50.643
150,1436980336504,12.322,10.841,50.643
151,1436980336574,12.322,11.175,50.314
152,1436980336575,12.322,11.175,50.314
153,1436980336576,12.322,11.175,50.314
154,1436980336584,12.322,11.175,50.314
155,1436980336601,12.322,11.175,50.314
156,1436980336626,12.322,11.175,50.314
157,1436980336641,12.322,11.175,50.314
158,1436980336661,12.322,11.175,50.314
159,1436980336681,12.322,11.175,50.314
160,1436980336704,12.322,11.175,50.314
161,1436980336724,12.322,11.175,50.314
162,1436980336742,12.322,11.175,50.314
163,1436980336767,12.322,11.175,50.314
164,1436980336784,12.322,11.175,50.314
165,1436980336804,12.322,11.175,50.314
166,1436980336824,12.322,11.175,50.314
167,1436980336842,12.322,11.175,50.314
168,1436980336861,12.322,11.175,50.314
169,1436980336885,12.322,11.175,50.314
170,1436980336904,12.322,11.175,50.314
171,1436980336924,12.322,11.175,50.314
172,1436980336943,12.322,11.175,50.314
173,1436980336963,12.322,10.862,50.314
174,1436980336985,12.322,10.862,50.314
175,1436980337005,12.322,10.862,50.314
176,1436980337024,12.322,10.862,50.314
177,1436980337041,12.322,10.862,50.314
178,1436980337063,12.322,10.862,50.314
179,1436980337084,12.322,10.862,50.314
180,1436980337105,12.322,10.862,50.314
181,1436980337125,12.322,10.862,50.314
182,1436980337145,12.322,10.862,50.314
183,1436980337163,12.322,10.546,50.314
184,1436980337183,12.322,10.546,50.314
185,1436980337205,12.322,10.546,50.314
186,1436980337222,12.322,10.546,50.314
187,1436980337292,12.322,10.546,50.314
188,1436980337293,12.322,10.546,50.314
189,1436980337294,12.322,10.546,50.314
190,1436980337305,12.322,10.546,50.314
191,1436980337322,12.322,10.546,50.314
192,1436980337346,12.322,10.546,50.314
193,1436980337364,12.322,10.546,50.314
194,1436980337382,12.322,10.546,50.314
195,1436980337409,12.322,10.546,49.998
196,1436980337424,12.672,10.546,49.998
197,1436980337444,12.672,10.546,49.998
198,1436980337464,12.672,10.546,49.998
199,1436980337483,12.672,10.546,49.998
200,1436980337508,12.672,10.546,49.998
201,1436980337525,13.008,10.546,49.998
202,1436980337545,13.008,10.546,49.998
203,1436980337565,13.008,10.546,49.998
204,1436980337585,13.008,10.546,49.998
205,1436980337605,13.008,10.546,49.998
206,1436980337625,13.008,10.546,49.998
207,1436980337645,13.008,10.546,49.998
208,1436980337665,13.008,10.546,49.998
209,1436980337685,12.641,10.546,49.998
210,1436980337704,12.226,10.546,49.998
211,1436980337724,11.88,10.546,49.998
212,1436980337745,11.88,10.546,49.998
213,1436980337763,11.534,10.209,49.656
214,1436980337784,11.534,10.209,49.656
215,1436980337805,11.18,10.209,49.656
216,1436980337828,11.18,10.209,49.656
217,1436980337848,10.83,10.209,49.656
218,1436980337867,10.83,9.884,49.656
219,1436980337886,10.83,9.884,49.656
220,1436980337902,10.523,9.884,49.656
221,1436980337922,10.523,9.884,49.656
222,1436980337947,10.523,9.561,49.656
223,1436980337973,10.012,9.561,49.656
224,1436980338045,10.012,9.561,49.656
225,1436980338046,9.559,9.561,49.656
226,1436980338047,9.559,9.222,49.656
227,1436980338048,8.85,9.222,50.05
228,1436980338063,8.068,9.222,50.05
229,1436980338088,7.363,9.222,50.396
230,1436980338104,6.674,9.222,50.396
231,1436980338124,5.987,8.847,50.396
232,1436980338146,5.255,8.847,50.396
233,1436980338163,4.71,8.847,50.787
234,1436980338185,3.933,8.496,50.787
235,1436980338204,3.338,8.496,50.787
236,1436980338227,2.043,8.496,50.787
237,1436980338246,1.37,7.546,50.787
238,1436980338266,0.668,6.497,50.787
239,1436980338282,-0.022,5.726,50.787
240,1436980338305,-0.022,5.352,50.787
241,1436980338326,-0.022,4.995,50.787
242,1436980338346,-0.022,4.542,50.193
243,1436980338366,-0.022,4.542,49.356
244,1436980338385,0.302,4.542,48.426
245,1436980338406,0.302,4.093,47.091
246,1436980338425,0.79,4.093,45.973
247,1436980338446,0.79,3.297,43.748
248,1436980338473,0.79,2.647,41.317
249,1436980338485,-0.062,2.647,40.017
250,1436980338503,-0.363,2.267,39.265
251,1436980338523,-0.363,1.71,38.554
252,1436980338543,-0.363,1.71,37.677
253,1436980338567,-0.363,1.71,36.618
254,1436980338590,-0.363,1.344,35.658
255,1436980338606,-0.666,1.344,34.51
256,1436980338625,-0.666,1.344,33.787
257,1436980338643,-0.971,1.344,33.369
258,1436980338665,-0.971,1.344,33.369
259,1436980338684,-0.971,1.029,32.672
260,1436980338703,-1.524,1.029,32.672
261,1436980338758,-2.287,1.029,32.672
262,1436980338764,-2.914,0.701,35.423
263,1436980338765,-3.48,0.701,31.929
264,1436980338783,-3.953,0.701,31.304
265,1436980338803,-4.663,0.396,29.019
266,1436980338825,-5.198,0.396,29.019
267,1436980338844,-5.616,0.396,27.978
268,1436980338868,-6.025,0.059,27.479
269,1436980338884,-6.025,0.059,27.032
270,1436980338904,-6.025,0.059,25.559
271,1436980338925,-6.375,0.059,24.159
272,1436980338944,-6.375,0.059,22.389
273,1436980338967,-5.717,0.059,20.468
274,1436980338987,-5.717,0.059,20.468
275,1436980339007,-5.326,0.059,19.592
276,1436980339026,-5.326,0.411,19.592
277,1436980339047,-4.971,0.411,19.151
278,1436980339067,-3.881,0.411,18.679
279,1436980339087,-1.838,0.799,18.327
280,1436980339107,0.209,0.799,17.497
281,1436980339127,1.261,1.35,17.497
282,1436980339147,2.603,1.777,17.497
283,1436980339168,4.756,2.316,17.829
284,1436980339186,6.326,2.917,18.312
285,1436980339206,8.23,3.535,18.312
286,1436980339226,9.735,4.339,18.312
287,1436980339247,10.939,5.313,18.312
288,1436980339265,11.811,6.217,17.886
289,1436980339287,12.768,7.098,17.886
290,1436980339307,13.6,7.629,17.886
291,1436980339327,14.75,8.828,17.886
292,1436980339380,15.676,9.408,17.886
293,1436980339381,16.714,10.319,17.886
294,1436980339383,17.758,11.112,17.886
295,1436980339406,18.487,11.985,17.555
296,1436980339433,19.589,12.493,17.555
297,1436980339504,20.114,13.043,17.555
298,1436980339505,20.516,13.694,17.555
299,1436980339506,21.136,14.624,17.555
300,1436980339507,21.136,15.716,17.208
301,1436980339524,21.136,17.681,16.77
302,1436980339545,20.805,18.634,13.014
303,1436980339565,20.805,19.21,10.922
304,1436980339586,21.183,19.94,10.411
305,1436980339606,20.822,20.941,8.766
306,1436980339624,20.822,21.673,7.78
307,1436980339699,21.292,22.975,7.121
308,1436980339700,21.893,23.907,7.121
309,1436980339701,21.893,24.534,7.121
310,1436980339706,21.893,25.149,6.167
311,1436980339724,21.556,25.859,5.828
312,1436980339744,21.556,26.292,5.281
313,1436980339765,21.24,27.066,4.8
314,1436980339784,21.24,27.833,4.8
315,1436980339804,21.566,28.337,4.414
316,1436980339824,21.566,28.337,4.414
317,1436980339844,21.566,28.337,4.414
318,1436980339865,21.566,28.668,4.414
319,1436980339898,21.566,28.668,4.026
320,1436980339904,21.566,28.991,4.026
321,1436980339937,21.566,28.666,3.576
322,1436980339945,21.868,29.17,4.0
323,1436980339965,21.868,28.833,4.0
324,1436980339983,21.868,28.833,4.0
325,1436980340006,21.868,28.833,4.0
326,1436980340025,21.868,28.833,4.0
327,1436980340043,21.868,28.833,4.0
328,1436980340066,22.187,28.833,4.0
329,1436980340086,22.187,28.833,4.0
330,1436980340107,22.187,28.833,3.649
331,1436980340125,22.187,29.187,3.649
332,1436980340144,22.187,29.187,3.649
333,1436980340165,22.537,29.548,3.649
334,1436980340186,22.537,29.548,3.649
335,1436980340204,22.537,29.548,3.649
336,1436980340229,22.921,29.898,3.649
337,1436980340243,22.921,29.898,3.649
338,1436980340265,22.921,29.898,3.649
339,1436980340284,22.921,29.898,3.649
340,1436980340305,23.323,30.252,3.649
341,1436980340324,23.323,30.252,3.649
342,1436980340344,23.323,30.252,3.649
343,1436980340366,23.323,30.252,3.649
344,1436980340387,23.323,30.575,3.649
345,1436980340407,23.323,30.575,3.649
346,1436980340428,23.323,30.575,3.649
347,1436980340444,23.323,30.575,3.649
348,1436980340466,23.323,30.575,3.649
349,1436980340484,23.323,30.575,3.649
350,1436980340508,23.323,30.575,3.649
351,1436980340528,23.005,30.575,3.649
352,1436980340548,23.005,30.575,3.649
353,1436980340565,23.005,30.226,3.649
354,1436980340588,22.621,30.226,3.649
355,1436980340609,22.621,30.226,3.649
356,1436980340628,22.621,29.823,3.649
357,1436980340644,22.227,29.823,3.649
358,1436980340665,22.227,29.479,3.649
359,1436980340688,22.227,29.479,3.649
360,1436980340708,21.92,29.133,3.649
361,1436980340727,21.92,29.133,3.649
362,1436980340748,21.92,28.764,3.649
363,1436980340769,21.92,28.764,3.649
364,1436980340789,21.92,28.436,3.649
365,1436980340806,21.92,28.436,3.649
366,1436980340831,21.92,28.436,3.649
367,1436980340876,21.92,28.123,3.649
368,1436980340877,21.92,28.123,3.649
369,1436980340892,21.92,28.123,3.649
370,1436980340905,21.92,28.123,3.649
371,1436980340928,21.92,27.786,3.649
372,1436980340944,21.92,27.786,3.649
373,1436980340967,21.92,27.786,3.649
374,1436980340987,21.92,27.786,3.649
375,1436980341006,21.92,27.786,3.649
376,1436980341029,21.92,27.786,3.649
377,1436980341046,21.92,27.786,3.649
378,1436980341068,21.92,27.786,3.649
379,1436980341087,21.92,27.786,3.649
380,1436980341107,21.92,27.786,3.649
381,1436980341128,21.92,27.786,3.649
382,1436980341148,22.221,27.786,3.649
383,1436980341168,22.221,28.147,3.649
384,1436980341187,22.221,28.147,3.649
385,1436980341212,22.221,28.147,3.649
386,1436980341226,22.221,28.147,3.649
387,1436980341248,22.221,28.147,3.649
388,1436980341267,22.221,28.147,3.649
389,1436980341289,22.221,28.448,3.649
390,1436980341306,22.221,28.448,3.649
391,1436980341325,22.221,28.448,3.649
392,1436980341346,22.221,28.448,3.649
393,1436980341366,22.221,28.448,3.649
394,1436980341391,22.221,28.448,3.649
395,1436980341411,22.221,28.448,3.649
396,1436980341429,22.221,28.448,3.649
397,1436980341446,22.221,28.448,3.649
398,1436980341466,22.221,28.448,3.649
399,1436980341486,22.221,28.448,3.649
400,1436980341506,22.221,28.448,3.649
401,1436980341528,22.221,28.448,3.649
402,1436980341600,22.221,28.448,3.649
403,1436980341601,22.221,28.448,3.649
404,1436980341602,22.221,28.448,3.649
405,1436980341610,22.221,28.448,3.649
406,1436980341626,22.221,28.448,3.649
407,1436980341646,22.221,28.448,3.649
408,1436980341666,22.221,28.448,3.649
409,1436980341689,22.221,28.448,3.649
410,1436980341706,22.221,28.448,3.649
411,1436980341726,22.221,28.448,3.649
412,1436980341747,22.221,28.448,3.332
413,1436980341767,22.221,28.448,3.332
414,1436980341789,22.221,28.448,3.332
415,1436980341809,22.221,28.448,3.332
416,1436980341829,22.221,28.448,3.332
417,1436980341849,22.221,28.448,3.332
418,1436980341869,22.221,28.448,3.332
419,1436980341889,22.221,28.448,3.332
420,1436980341909,22.221,28.448,3.332
421,1436980341929,22.221,28.448,3.332
422,1436980341949,22.221,28.448,3.332
423,1436980341966,22.221,28.448,3.332
424,1436980341987,22.221,28.448,3.332
425,1436980342009,22.221,28.448,3.332
426,1436980342029,22.221,28.448,3.332
427,1436980342049,22.221,28.448,3.332
428,1436980342069,22.221,28.448,3.332
429,1436980342089,22.221,28.448,3.332
430,1436980342107,22.221,28.448,3.332
431,1436980342128,22.221,28.448,3.332
432,1436980342150,22.221,28.448,3.332
433,1436980342167,22.221,28.448,3.332
434,1436980342199,22.221,28.448,3.332
435,1436980342208,22.221,28.448,3.332
436,1436980342229,22.221,28.448,3.332
437,1436980342252,22.221,28.448,3.332
438,1436980342304,22.221,28.448,3.332
439,1436980342305,22.221,28.448,3.332
440,1436980342306,22.221,28.448,3.332
441,1436980342327,22.221,28.448,3.332
442,1436980342346,22.221,28.448,3.332
443,1436980342367,22.221,28.448,3.332
444,1436980342386,22.221,28.448,3.332
445,1436980342407,22.221,28.448,3.332
446,1436980342428,22.221,28.767,3.332
447,1436980342447,22.221,28.767,3.332
448,1436980342468,21.92,28.767,3.332
449,1436980342488,21.92,28.767,3.332
450,1436980342510,21.92,28.767,3.332
451,1436980342527,21.92,28.767,3.332
452,1436980342549,21.92,28.767,3.332
453,1436980342569,21.92,28.767,3.332
454,1436980342587,21.92,28.767,3.332
455,1436980342609,21.92,28.767,3.332
456,1436980342630,21.92,28.767,3.332
457,1436980342650,21.92,28.767,3.332
458,1436980342669,21.92,28.767,3.332
459,1436980342689,21.92,28.767,3.332
460,1436980342707,21.92,28.767,3.332
461,1436980342729,21.92,28.767,3.332
462,1436980342750,21.92,28.767,3.332
463,1436980342769,21.92,28.767,3.332
464,1436980342793,21.92,28.767,3.332
465,1436980342808,21.92,28.767,3.332
466,1436980342827,21.92,28.767,3.332
467,1436980342847,21.92,28.767,3.332
468,1436980342868,21.92,28.767,3.332
469,1436980342894,21.92,28.767,3.332
470,1436980342908,21.92,28.767,3.332
471,1436980342929,21.92,28.767,3.332
472,1436980342948,21.92,28.767,3.332
473,1436980342974,21.92,28.767,3.332
474,1436980343033,21.92,28.767,3.332
475,1436980343034,21.92,28.767,3.332
476,1436980343035,21.92,28.767,3.332
477,1436980343055,21.92,28.457,3.332
478,1436980343068,21.92,28.457,3.332
479,1436980343092,21.92,28.457,3.332
480,1436980343107,21.92,28.457,3.332
481,1436980343127,21.92,28.457,3.332
482,1436980343150,21.92,28.457,3.332
483,1436980343167,21.92,28.457,3.332
484,1436980343190,21.92,28.457,3.332
485,1436980343215,21.92,28.457,3.332
486,1436980343230,21.92,28.457,3.332
487,1436980343257,21.92,28.457,3.332
488,1436980343275,21.92,28.457,3.332
489,1436980343308,21.92,28.457,3.332
490,1436980343309,21.92,28.457,3.332
491,1436980343327,21.92,28.457,3.332
492,1436980343413,21.92,28.457,3.332
493,1436980343414,21.92,28.457,3.332
494,1436980343415,21.92,28.457,3.332
495,1436980343416,21.92,28.457,3.332
496,1436980343427,21.92,28.457,3.332
497,1436980343447,21.92,28.457,3.332
498,1436980343468,21.92,28.457,3.332
499,1436980343487,21.92,28.457,3.332
500,1436980343507,21.92,28.457,3.332
501,1436980343527,21.92,28.457,3.332
502,1436980343547,21.92,28.457,3.332
503,1436980343569,21.92,28.457,3.332
504,1436980343587,21.92,28.457,3.332
505,1436980343607,21.92,28.457,3.332
506,1436980343628,21.92,28.457,3.332
507,1436980343648,21.92,28.457,3.332
508,1436980343667,21.92,28.457,3.332
509,1436980343687,21.92,28.457,3.332
510,1436980343708,21.92,28.457,3.332
511,1436980343738,21.92,28.457,3.332
512,1436980343749,21.92,28.457,3.332
513,1436980343766,21.92,28.457,3.332
514,1436980343786,21.92,28.457,3.332
515,1436980343806,21.92,28.457,3.332
516,1436980343828,21.92,28.457,3.332
517,1436980343850,21.92,28.457,3.332
518,1436980343868,21.92,28.457,3.332
519,1436980343888,21.92,28.457,3.332
520,1436980343907,21.92,28.457,3.332
521,1436980343928,21.92,28.457,3.332
522,1436980343947,21.92,28.457,3.332
523,1436980343969,21.92,28.457,3.332
524,1436980343994,21.92,28.457,3.332
525,1436980344013,21.92,28.457,3.332
526,1436980344027,21.92,28.457,3.332
527,1436980344051,21.92,28.457,3.332
528,1436980344067,21.92,28.457,3.332
