id,attr_time,attr_db
1,1436372950905,32.7994608509591
2,1436372951622,27.4615110913489
3,1436372952370,27.4419511668634
4,1436372953071,31.8637338348934
5,1436372953798,39.8034489276313
6,1436372954505,33.569335521766
7,1436372955229,27.9362993637209
8,1436372955960,42.3449583621723
9,1436372956698,26.5349792566892
10,1436372957419,29.5254508374358
11,1436372958128,28.069726122593
12,1436372958821,41.7840554577494
13,1436372959536,45.3422779653887
14,1436372960256,41.103244433837
15,1436372960947,38.4802830047682
16,1436372961647,38.7665551292879
17,1436372962372,45.0632499783162
18,1436372963077,49.3299934596118
19,1436372963809,38.6071259617775
20,1436372964524,41.1176571635488
21,1436372965249,55.5363863583937
22,1436372965948,57.7281934069556
23,1436372966673,56.1893281091735
24,1436372967388,54.1328878882735
25,1436372968095,43.5729352962651
26,1436372968751,45.3759847862533
27,1436372969345,38.8630436143427
28,1436372970046,44.4985649118976
29,1436372970745,43.1983535044991
30,1436372971483,37.8128802400056
31,1436372972258,39.3742597778303
32,1436372972979,44.2954370993342
33,1436372973710,53.1985929974085
34,1436372974432,69.8897907238464
35,1436372975164,62.3122503350407
36,1436372975881,67.942813974978
37,1436372976653,55.1896179433105
38,1436372977378,39.7696073502008
39,1436372978101,39.3410427181083
40,1436372978841,53.804959557458
41,1436372979563,48.4470169175019
42,1436372980295,53.4850714084159
43,1436372981030,58.7071157481409
44,1436372981723,48.1041799423411
45,1436372982424,55.9538153271945
46,1436372983134,42.3339842702707
47,1436372983857,49.4156971231217
48,1436372984576,47.0074081716883
49,1436372985365,43.7675901787714
50,1436372986092,52.4557952793301
51,1436372986812,60.0326854013551
52,1436372987528,45.9075325150003
53,1436372988270,43.899254705981
54,1436372988982,70.6208753597013
55,1436372989729,59.1999000262486
56,1436372990454,60.2475243099438
57,1436372991163,53.5702955876791
58,1436372991846,61.3399987128508
59,1436372992587,44.7742516141014
60,1436372993360,47.9382516456661
61,1436372994022,49.154794344305
62,1436372994731,59.0320199485133
63,1436372995445,53.6323567290351
64,1436372996146,64.376904322465
65,1436372996821,59.9097443636711
66,1436372997564,70.7773354074993
67,1436372998263,70.4254874032701
68,1436372998979,62.0671173508027
69,1436372999739,38.8538586292643
70,1436373000433,44.478284358056
71,1436373001042,39.9183014803162
72,1436373001790,37.2933968590487
73,1436373002522,47.9356891514125
74,1436373003252,48.9146767209768
75,1436373003999,63.1797837106879
76,1436373004730,63.4065371836404
77,1436373005452,61.9467665663261
78,1436373006168,45.7058294876219
79,1436373006913,60.4523404210781
80,1436373007664,65.3276521948748
81,1436373008435,51.5956600994281
82,1436373009168,38.5276657866314
83,1436373009823,53.9185756216273
84,1436373010498,38.8743005075944
85,1436373011222,57.7758744716019
86,1436373011914,44.065867366661
87,1436373012587,48.2378579652501
88,1436373013337,33.2869660438625
89,1436373014038,39.2534281076899
90,1436373014718,38.8120605562757
91,1436373015429,57.9906241117791
92,1436373016184,49.9367473396828
93,1436373016922,46.2840775549248
94,1436373017664,51.1253289521756
95,1436373018399,42.2478771782653
96,1436373019107,52.1104653665302
97,1436373019849,66.5389601195122
98,1436373020581,44.9553754208959
99,1436373021301,52.559734436666
100,1436373022017,47.3744909161071
101,1436373022716,52.6390033995321
102,1436373023377,46.8013801185058
103,1436373024098,45.7849221683306
104,1436373024803,49.0529048883244
105,1436373025536,54.2712237582879
106,1436373026287,63.2210964640692
107,1436373027006,38.4628474748392
108,1436373027739,37.7872645211181
109,1436373028494,49.5383597034317
110,1436373029162,39.7023936375663
111,1436373029815,36.5147555673126
112,1436373030526,53.0797954712872
113,1436373031223,64.7771745974068
114,1436373031976,45.8961982971405
115,1436373032620,51.7509089256897
116,1436373033408,53.5366251334463
117,1436373034071,38.0509962515305
118,1436373034767,43.7905177352502
119,1436373035499,66.0983192470897
120,1436373036214,58.0995875075264
121,1436373036956,51.8893307445627
122,1436373037707,53.4306799792135
123,1436373038437,63.8765209047189
124,1436373039141,37.9333321352885
125,1436373039809,48.6862555588628
126,1436373040531,42.1524532657659
127,1436373041242,38.1775323663652
128,1436373042036,47.0365949240242
129,1436373042751,52.4342333317549
130,1436373043439,41.5143347458946
131,1436373044180,41.4741204695135
132,1436373044871,42.2728197570901
133,1436373045520,38.556344272391
134,1436373046270,47.6165132402309
135,1436373047002,40.2578852445394
136,1436373047731,46.7096390352654
137,1436373048453,50.8905762963853
138,1436373049171,45.0095376757524
139,1436373049873,38.4287496639029
140,1436373050598,39.1330970661633
141,1436373051345,71.2772555732996
142,1436373051989,67.2802418735723
143,1436373053399,58.171644389257
144,1436373054062,68.8955091401949
145,1436373054795,51.4903786003786
146,1436373055524,48.4333142940182
147,1436373056298,44.0608554687289
148,1436373057037,41.1707039358607
149,1436373057769,39.3118174300467
150,1436373058482,55.5667490324296
151,1436373059202,51.6079702602689
152,1436373059928,41.8613242067579
153,1436373060665,43.2886360274473
154,1436373061387,44.7701868658732
155,1436373062121,47.5735810899044
156,1436373062843,65.8489493713854
157,1436373063564,73.2944038279579
158,1436373064283,52.7463632294641
159,1436373064976,68.9362943147231
160,1436373065661,67.8209584328201
161,1436373067688,41.0339647878649
162,1436373068432,47.3298752600563
163,1436373069147,56.8865050731833
164,1436373069836,56.25765172362
165,1436373070516,42.7803565226063
166,1436373071204,52.6037987823754
167,1436373071920,54.8400572070259
168,1436373072660,32.515973432604
169,1436373073423,41.7596954053603
170,1436373074113,52.5394948995127
171,1436373074753,45.9702631473631
172,1436373075472,43.8560844094258
173,1436373076185,48.1679091896702
174,1436373076919,54.9729810058445
175,1436373077655,40.2829364801309
176,1436373078424,40.1810747274334
177,1436373079076,42.3352288118555
178,1436373079811,40.9081864918956
179,1436373080542,42.5028748950174
180,1436373081313,55.3618481152642
181,1436373082021,45.1357887933275
182,1436373082742,54.5701376749183
183,1436373083467,57.5042977654137
184,1436373084190,50.3242009097239
185,1436373084792,44.6102170847515
186,1436373085469,41.6576723301606
187,1436373086187,63.9748411369795
188,1436373086931,51.1152835140985
189,1436373087665,38.5313771947482
190,1436373088390,60.4213754993621
191,1436373089080,50.7207252650951
192,1436373090670,36.8284037418484
193,1436373091356,52.0241089623034
194,1436373092073,50.453866091487
195,1436373092807,43.882646288385
196,1436373093545,42.0321033985125
197,1436373094310,66.5815937486028
198,1436373094975,60.6007358751866
199,1436373095687,54.5999342399992
200,1436373096419,36.77216024553
201,1436373097143,59.457683557502
202,1436373097867,55.3715549208695
203,1436373098599,53.9612416807101
204,1436373099345,55.6957445104445
205,1436373100060,55.6431830690656
206,1436373100791,58.5243559057509
207,1436373101534,39.7833585566216
208,1436373103300,36.4313762324681
209,1436373103972,42.4518654211059
210,1436373104715,56.7070803963272
211,1436373105464,39.4090001384907
212,1436373106214,42.999545301334
213,1436373106944,40.0367741345876
214,1436373107650,45.2813110118889
215,1436373108392,42.9328099558957
216,1436373109112,53.7140487208876
217,1436373109832,43.0129748666638
218,1436373110549,41.4414289609817
219,1436373111340,42.7753672805544
220,1436373112073,68.9780651481254
221,1436373112789,67.1777449484537
222,1436373113491,74.7150864185783
223,1436373114198,72.5744054769827
224,1436373114851,67.0048966598399
225,1436373115572,48.507895759765
226,1436373116319,40.184686513294
227,1436373117034,39.1808191480007
228,1436373117783,44.8012783004019
229,1436373118519,38.2526924955584
230,1436373119280,70.7099668546362
231,1436373120016,72.5529540024961
232,1436373120739,69.1444964035094
233,1436373121416,40.2054759929475
234,1436373122065,58.3068782104554
235,1436373122754,59.8669868357831
236,1436373123481,41.2117600572446
237,1436373124187,49.2808670319557
238,1436373124892,44.4321958483904
239,1436373125582,53.1018635081197
240,1436373126246,42.8092553442499
241,1436373126929,40.4853014966957
242,1436373127653,48.0683037399469
243,1436373128419,43.0612976564569
244,1436373129147,51.6576608868154
245,1436373129868,43.9338372238454
246,1436373130546,42.497010068407
247,1436373131141,41.2716407277512
248,1436373131783,51.8656715382269
249,1436373132495,53.1925801827379
250,1436373133231,37.594970062748
251,1436373133986,42.8311481367827
252,1436373134750,48.4837311603711
253,1436373135492,35.8717307635772
254,1436373136177,69.4696323933986
255,1436373136801,59.5524269883772
256,1436373137494,64.0315749693727
257,1436373138204,42.513463819341
258,1436373138919,49.0242290503414
259,1436373139673,63.2608983699162
260,1436373140423,42.1903466932577
261,1436373141148,56.3387885210827
262,1436373141964,47.9755456653488
263,1436373142694,58.623982582283
264,1436373143461,49.9693728022845
265,1436373144150,44.2569855560091
266,1436373144875,43.8518236168112
267,1436373145596,60.2238720570463
268,1436373146334,41.0830372508364
269,1436373146993,62.1649589718307
270,1436373147733,40.9201756472295
271,1436373148450,55.9476937125724
272,1436373149166,43.7802230216115
273,1436373149899,44.1625245233734
274,1436373150654,63.8746238389438
275,1436373151366,66.3237573060082
276,1436373152062,49.1156965295813
277,1436373152794,52.531292208921
278,1436373153529,52.8467388949075
279,1436373154347,43.3458466587103
280,1436373155071,49.8599718926602
281,1436373155786,45.2365750392569
282,1436373156532,61.2266004158709
283,1436373157279,44.543523662144
284,1436373158027,45.8419734845055
285,1436373158744,43.7712243781173
286,1436373159469,46.5687570096441
287,1436373160188,50.3716145405209
288,1436373160966,54.8477062822503
289,1436373161672,48.2800854186174
290,1436373162421,67.7099874560963
291,1436373163152,53.511080369722
292,1436373163874,39.2526123029477
293,1436373164618,48.8381872054894
294,1436373165360,58.8730077303464
295,1436373166067,42.3921039204859
296,1436373166672,48.521310294566
297,1436373167308,35.6689459168241
298,1436373167982,43.4573326959115
299,1436373168708,45.3651714166902
300,1436373169457,45.2531556912093
301,1436373170172,41.0505086029353
302,1436373170902,54.0704766385127
303,1436373171649,45.8149596127562
304,1436373172399,46.2141446956674
305,1436373173123,41.4469488249409
306,1436373173855,51.7083081113012
307,1436373174589,58.9512483223729
308,1436373175321,56.9443821575088
309,1436373176054,41.8825816729636
310,1436373176782,49.4372886711526
311,1436373177497,54.20927190272
312,1436373178249,58.5081144274785
313,1436373178971,43.7451288795461
314,1436373179704,41.6185435910491
315,1436373180429,54.2256239513883
316,1436373181161,68.4635945512817
317,1436373181903,66.7820698863485
318,1436373182664,41.4893030977169
319,1436373183425,52.9078822305827
320,1436373184145,57.0301266831743
321,1436373184875,66.0231658973983
322,1436373185580,60.9740339598167
323,1436373186284,65.1239353146502
324,1436373187096,61.8888667832479
325,1436373187824,62.0084930564554
326,1436373188551,61.9348528649371
327,1436373189183,39.4157704207517
328,1436373189884,57.6889764316865
329,1436373190630,46.8589885162586
330,1436373191430,50.4871776964774
331,1436373192037,51.8142124636889
332,1436373192717,57.1501366679317
333,1436373193499,58.7207423022547
334,1436373194238,53.1377349278823
335,1436373194972,41.9092501841275
336,1436373195704,59.5229900445252
337,1436373196447,52.7025469143636
338,1436373197262,46.6740127784695
339,1436373197995,47.2490579796398
340,1436373198697,48.7523534861682
341,1436373199364,49.8784257375959
342,1436373200043,40.4282486963046
343,1436373200755,40.4948178792676
344,1436373201476,49.6456499944392
345,1436373202303,40.3546210863053
346,1436373203012,44.1873249094616
347,1436373203744,41.6387834792501
348,1436373204455,42.4072228818821
349,1436373205179,36.9281089291319
350,1436373205838,46.704403719965
351,1436373206554,49.9735467462562
352,1436373207344,53.4799173897032
353,1436373208076,45.8801699408474
354,1436373208797,41.871311517595
355,1436373209516,60.1656313764674
356,1436373210224,58.6702981012185
357,1436373210940,67.944379054632
358,1436373211702,69.7418945709541
359,1436373212500,45.3618233717974
360,1436373213254,45.012153476328
361,1436373213990,44.8929013412254
362,1436373214650,36.9412856056866
363,1436373215275,63.4416065935794
364,1436373215970,62.8777035059544
365,1436373216679,45.5789294316521
366,1436373217367,56.4689690903954
367,1436373218104,39.5080818777497
368,1436373218823,43.4674308714097
369,1436373219550,42.9204258734057
370,1436373220191,38.2468789530301
371,1436373220905,49.5746051145854
372,1436373221685,48.7667574734708
373,1436373222477,65.7558323694317
374,1436373223187,65.7148613565812
375,1436373223912,50.0843892827873
376,1436373224652,52.0805311152801
377,1436373225399,52.3087887495668
378,1436373226432,64.9842402062185
379,1436373227091,39.2388086193818
380,1436373227812,61.0499659848902
381,1436373228533,66.2627708961975
382,1436373229252,41.3030537233648
383,1436373229914,58.0615807395088
384,1436373230645,65.2406695989565
385,1436373231416,74.3720768621124
386,1436373232097,71.1186332219996
387,1436373232804,57.8460493840944
388,1436373233460,59.2513895003115
389,1436373234177,60.9309203393456
390,1436373234891,44.2844844708489
391,1436373235632,26.6758272193841
392,1436373236316,44.5892850689122
393,1436373236996,53.1299139554637
394,1436373237714,34.8213176471308
395,1436373238432,43.8364948236693
396,1436373239155,48.5383920052905
397,1436373239843,31.6484018524731
398,1436373240565,43.018660369675
399,1436373241304,55.3360669626613
400,1436373242025,58.7952351107904
401,1436373242734,52.671762758105
402,1436373243466,40.0558035034727
403,1436373244162,40.0584101710699
404,1436373244851,41.0078377587398
405,1436373245561,51.347017942729
406,1436373246282,40.1406318434562
407,1436373247002,57.8874888926549
408,1436373247725,46.5524236285723
409,1436373248464,52.7261675033835
410,1436373249182,46.7229501421492
411,1436373249892,35.3677639669637
412,1436373250633,56.1429345308177
413,1436373251369,31.3767304450651
414,1436373252086,43.847682458028
415,1436373252792,53.5085239496536
416,1436373253492,56.6788423160583
417,1436373254168,52.3304915780039
418,1436373254894,41.6830372531312
419,1436373255611,50.3922096350871
420,1436373257651,51.5355829866639
421,1436373258378,39.4715761734972
422,1436373259097,54.2178602100834
423,1436373259833,47.9061765120516
424,1436373260570,56.2661284814636
425,1436373261239,50.4248839911214
426,1436373261955,42.204868492688
427,1436373262684,51.7789591009413
428,1436373263422,36.9589588323379
429,1436373264168,57.8750403841799
430,1436373264881,41.1242183051282
431,1436373265581,36.0832211207374
432,1436373266321,39.6232077543755
433,1436373267062,38.1170051648675
434,1436373267785,47.6109588557508
435,1436373268516,39.7814163198972
436,1436373269246,41.3327967947143
437,1436373269997,43.0346430196158
438,1436373270713,44.8285187474681
439,1436373271353,44.1842712029469
440,1436373272066,51.9726454988935
441,1436373272777,51.2868511230088
442,1436373273480,39.1931973627236
443,1436373274164,46.9495277155905
444,1436373275650,66.8296071818881
445,1436373276269,58.091972693231
446,1436373276935,56.0983038845562
447,1436373277663,41.3588055518256
448,1436373278459,46.6437884280158
449,1436373279191,49.63193086716
450,1436373279899,51.9204818754987
451,1436373280635,50.6047326082228
452,1436373281300,49.8582282768711
453,1436373282060,55.7491989485495
454,1436373282772,61.4743291142974
455,1436373283464,48.4745307306281
456,1436373284174,48.8781707654142
457,1436373284873,43.5284147594906
458,1436373285564,54.5332072626894
459,1436373286281,58.5681950293875
460,1436373286988,74.02731159314
461,1436373287710,47.6910464403779
462,1436373288426,53.8213772239843
463,1436373289173,57.2236988051556
464,1436373289890,40.9899663516507
465,1436373290616,58.492553081351
466,1436373291321,39.4976256698764
467,1436373291961,34.6584335176832
468,1436373292666,57.4146327125594
469,1436373293379,41.2744979399567
470,1436373294028,48.7042271052973
471,1436373294711,36.8834049019278
472,1436373295430,50.6496650185389
473,1436373296194,50.2745434188097
474,1436373296912,47.7161535410284
475,1436373297667,45.6901158934515
476,1436373298414,44.5849197031272
477,1436373299076,41.9644633909659
478,1436373299796,44.2959016080157
479,1436373300520,53.1968307732999
480,1436373301188,35.2124234958414
481,1436373301865,36.9939885362922
482,1436373302610,49.9720060694225
483,1436373303359,54.1354933821067
484,1436373304079,39.1286158151867
485,1436373304780,37.5419755644568
486,1436373305507,33.8350490713849
487,1436373306659,39.3928028022002
488,1436373307372,35.8195239740208
489,1436373308146,40.9673749975096
490,1436373308872,56.9531789537497
491,1436373309603,34.9434145314975
492,1436373310326,50.1510097376317
493,1436373311132,44.7745388625374
494,1436373311821,48.6530849001748
495,1436373312483,47.2555270397455
496,1436373313212,57.9528387223599
497,1436373313881,39.9497699282645
498,1436373314549,55.2935142718389
499,1436373315267,35.5828334809849
500,1436373315968,46.9049320957131
501,1436373316744,31.8748581712699
502,1436373317424,44.5043274115127
503,1436373318086,51.0171607773766
504,1436373318808,42.0697510085815
505,1436373319568,34.8106038166091
506,1436373320264,42.7608350148422
507,1436373320987,38.460377808262
508,1436373321758,36.8596931669981
509,1436373323203,57.8620028988257
510,1436373323936,42.2293445904878
511,1436373324710,36.5856275596011
512,1436373325449,36.4650201470877
513,1436373326143,49.4323292455059
514,1436373326942,36.1990243899294
515,1436373327643,39.3859934105705
516,1436373328367,54.1888671739976
517,1436373329095,38.2998731171719
518,1436373329835,40.5366054981077
519,1436373330575,46.6384315476275
520,1436373331328,37.9011880805487
521,1436373332012,48.8959588943654
522,1436373332674,40.2409053728655
523,1436373333400,37.1291270210751
524,1436373334109,44.8295997748382
525,1436373334737,41.4866137284097
526,1436373335408,28.4185841872915
527,1436373336128,44.0199406343928
528,1436373336840,39.2323132844072
529,1436373337553,33.1666860407593
530,1436373338271,42.6631485341195
531,1436373339001,41.1452986420256
532,1436373339732,43.2676253766525
533,1436373340455,32.5179898814903
534,1436373341272,37.1257434047768
535,1436373341994,44.4719137464905
536,1436373342706,36.869712315488
537,1436373343429,52.4898802573298
538,1436373344177,40.392534430015
539,1436373344890,38.2431453652912
540,1436373345638,40.9898686439185
541,1436373346412,43.9220857552343
542,1436373347105,39.4974457349001
543,1436373347775,38.9505658807452
544,1436373348501,58.166369992543
545,1436373349236,36.0545274790221
546,1436373349977,51.7374622050809
547,1436373350710,57.8725617372898
548,1436373351436,56.7024154047977
549,1436373352172,35.9878893683734
550,1436373352893,39.3830126163517
551,1436373353521,55.7867746699625
552,1436373354216,60.8743688930623
553,1436373354949,54.805057213634
554,1436373355667,47.1227763368422
555,1436373356441,37.7566606410204
556,1436373357158,52.0547824648168
557,1436373357922,55.193326377944
558,1436373358649,51.8628088781194
559,1436373359384,41.5619046185112
560,1436373360126,44.8025877089459
561,1436373360836,45.8122999823867
562,1436373361566,36.2920332489275
563,1436373362285,51.9022867410763
564,1436373363009,49.850545233256
565,1436373363776,53.8079216327636
566,1436373364445,40.4678470311052
567,1436373365161,38.5365490996395
568,1436373365883,52.316276047687
569,1436373366602,43.356982107757
570,1436373367317,38.9281608251518
571,1436373368063,34.793873044064
572,1436373368800,59.6722357643623
573,1436373369526,39.7637057193535
574,1436373370240,42.7966935103791
575,1436373370976,39.4960226933225
