id,attr_time,attr_db
1,1436372950968,34.2177268828471
2,1436372952876,45.9062262470902
3,1436372953559,41.9128619703216
4,1436372954276,45.840451002338
5,1436372955072,35.2072695653726
6,1436372955802,36.5172547988782
7,1436372956541,37.9516921930797
8,1436372957256,32.1546595859619
9,1436372957996,32.5030457941054
10,1436372958737,39.5611446435692
11,1436372959452,60.5527281852891
12,1436372960103,50.8621395060125
13,1436372960815,66.0618891787777
14,1436372962650,64.0262427274881
15,1436372963301,66.7726240131799
16,1436372964056,66.7633368100684
17,1436372964789,71.3394251790551
18,1436372965508,58.7306291521234
19,1436372966238,70.3067914936099
20,1436372966970,69.4083025504249
21,1436372967679,69.1202789616748
22,1436372968413,61.2155752081267
23,1436372969181,62.1723736925758
24,1436372969836,63.3986745724645
25,1436372970544,66.9745060829125
26,1436372971268,55.5385665907139
27,1436372971994,69.9412049012833
28,1436372972712,65.3533710719704
29,1436372973496,64.0662678410645
30,1436372974221,60.4222279388868
31,1436372974943,70.419462369963
32,1436372975661,65.3358643986544
33,1436372977734,64.9887179526078
34,1436372978463,60.1232129226744
35,1436372979238,53.0902701683459
36,1436372979870,68.3301593747823
37,1436372980558,72.0754230015579
38,1436372981312,57.8397705009323
39,1436372981989,58.9108353651325
40,1436372982586,69.0815206180157
41,1436372983222,54.5113071970576
42,1436372983935,66.3821559655274
43,1436372984664,67.2250272097079
44,1436372985334,57.6473897609824
45,1436372986662,64.2433376573395
46,1436372987330,63.3078901093449
47,1436372988065,62.2010015824194
48,1436372988796,70.2878613566359
49,1436372989479,71.5272274674178
50,1436372990101,61.3477029542169
51,1436372990798,69.5117995849724
52,1436372991559,70.0352621852026
53,1436372992274,63.9422414112259
54,1436372993005,58.3079860645718
55,1436372993731,64.6770096683541
56,1436372994525,68.7135060234577
57,1436372995269,57.8321692727884
58,1436372996004,65.9456382760484
59,1436372996743,67.8788341814243
60,1436372997482,66.2490269319294
61,1436372998203,70.3909942875203
62,1436372998945,70.6209826630767
63,1436372999666,70.6968273844272
64,1436373000329,48.6707747860719
65,1436373000965,73.2137458299823
66,1436373001699,71.4240121586139
67,1436373002487,56.6017906947901
68,1436373003198,62.7095461919855
69,1436373003975,67.2935668336209
70,1436373004708,70.0933348325811
71,1436373005439,50.8198867892035
72,1436373006168,63.4262999902999
73,1436373006894,65.3236007775337
74,1436373007638,64.7467472031987
75,1436373008393,58.9773468892232
76,1436373009115,69.1525562931119
77,1436373009777,69.6776837280848
78,1436373010457,55.4887225507355
79,1436373011222,65.5655207028408
80,1436373011950,67.4214720850235
81,1436373012684,60.8774261008788
82,1436373013405,70.9040592318004
83,1436373014100,50.0244526494074
84,1436373014792,65.166433608897
85,1436373015513,60.4056014747503
86,1436373016243,57.8356670636098
87,1436373016993,72.0785691080564
88,1436373017725,69.7565622542693
89,1436373018456,64.2527220778812
90,1436373019204,60.6170760369618
91,1436373019937,69.0918530100276
92,1436373020647,62.2393510401487
93,1436373021340,59.2782317085914
94,1436373022002,58.6670094616728
95,1436373022748,59.5035604703108
96,1436373023488,72.4446604127793
97,1436373024271,66.592645768348
98,1436373024935,47.9712725743674
99,1436373025601,72.0414483085319
100,1436373026333,49.7442479951277
101,1436373027051,54.1333157773603
102,1436373027780,49.6566614645407
103,1436373028515,66.9831932301041
104,1436373029267,69.5404009349602
105,1436373030032,56.7513841478742
106,1436373030759,54.2098085057335
107,1436373031514,70.9683181245789
108,1436373032263,72.7878597925394
109,1436373032980,57.6055759282912
110,1436373033650,67.1616331500371
111,1436373034394,67.9054463443224
112,1436373035111,56.8648994798118
113,1436373035780,66.8940170206649
114,1436373036491,68.7903787090887
115,1436373037250,49.6012623760246
116,1436373037981,60.9606525938405
117,1436373038709,68.5661714785895
118,1436373039430,59.9537101498404
119,1436373040122,53.2820634013515
120,1436373040778,65.1285568130526
121,1436373041511,63.1572595223468
122,1436373042202,59.4017801977525
123,1436373042920,69.8371275969627
124,1436373043650,67.6314792405134
125,1436373044382,56.6921264482982
126,1436373045094,63.6881665179775
127,1436373045781,68.413273387046
128,1436373046501,61.240712490468
129,1436373047241,59.5726913699826
130,1436373047971,66.4348912923026
131,1436373048694,57.6629971992958
132,1436373049424,60.8957957194538
133,1436373050135,70.8190500793978
134,1436373050860,71.4936763967059
135,1436373051563,60.6526184033468
136,1436373052231,72.2199182028817
137,1436373052965,71.654825743092
138,1436373053688,59.168817242583
139,1436373054446,59.9987572174024
140,1436373055100,66.446093023193
141,1436373055829,59.2808915288865
142,1436373056577,59.7079201823319
143,1436373057322,69.0517825802589
144,1436373058058,67.3047613224659
145,1436373058805,58.3811014729555
146,1436373059538,57.8942509078315
147,1436373060276,70.7258126265447
148,1436373060992,71.2085676676257
149,1436373061704,58.3959494673967
150,1436373062361,63.9789424748372
151,1436373063082,67.9577024568169
152,1436373063818,65.1884854964471
153,1436373064566,61.9517907139579
154,1436373065313,67.4063233702879
155,1436373066037,69.2126589613351
156,1436373066767,63.5437681264959
157,1436373067512,53.271498907186
158,1436373068263,65.839185743517
159,1436373068994,64.3813037500809
160,1436373069825,69.6395720171523
161,1436373070439,52.4083062838705
162,1436373071133,69.2571698450937
163,1436373071847,69.1332512820845
164,1436373072527,54.6771816397828
165,1436373073158,67.931702985797
166,1436373073854,66.3714412695997
167,1436373074573,50.9375095818791
168,1436373075342,64.1693733937661
169,1436373076074,72.0974297754551
170,1436373076809,72.0784384778562
171,1436373077550,55.6347760652858
172,1436373078287,63.8685668498103
173,1436373079045,63.4355038006557
174,1436373079771,70.6194055836456
175,1436373080506,54.1883662042851
176,1436373081246,60.9622019457556
177,1436373081975,67.32072463584
178,1436373082670,63.9908482205633
179,1436373083367,60.2262618124864
180,1436373084094,69.3161795448673
181,1436373084865,66.9170890894593
182,1436373085567,64.7626739960036
183,1436373086286,61.0759195342647
184,1436373087018,67.7873805916729
185,1436373087758,69.3231400511776
186,1436373088497,57.9474904591235
187,1436373089233,64.0554692088142
188,1436373089959,67.0607545698925
189,1436373090691,65.1520455531698
190,1436373091437,53.5644102072591
191,1436373092098,72.3217230325797
192,1436373092827,65.1853292129797
193,1436373093579,64.5885702456132
194,1436373094268,67.0577491824191
195,1436373095034,65.0493826381383
196,1436373095680,69.9242221626783
197,1436373096365,52.646284061264
198,1436373097089,61.4752132768458
199,1436373097815,63.2846297218046
200,1436373098572,64.7400931472895
201,1436373099273,53.8169417282976
202,1436373100041,62.0088429244618
203,1436373100764,63.5541052262722
204,1436373101492,63.5854782818745
205,1436373102246,58.5042691794566
206,1436373102980,65.7994253937336
207,1436373103643,72.2068451396427
208,1436373104367,59.6193426418925
209,1436373105170,64.0181520014698
210,1436373105932,70.5893554335856
211,1436373106680,70.0149813382933
212,1436373107441,60.4882885343673
213,1436373108086,63.5358116535768
214,1436373108823,66.1247374998982
215,1436373109593,64.0612696184503
216,1436373110333,55.0495941022939
217,1436373111053,67.0344401486271
218,1436373111757,69.215428889402
219,1436373112486,63.9510536960122
220,1436373113203,65.1539815415803
221,1436373113855,66.068160610543
222,1436373114613,72.1187478900912
223,1436373115369,53.4547706365725
224,1436373116088,65.1039001970624
225,1436373116815,64.5981719603293
226,1436373117546,66.2315665909267
227,1436373118269,54.378553096466
228,1436373119002,69.1516921311272
229,1436373119750,66.610184431903
230,1436373120488,64.9636081991688
231,1436373121210,66.4743940287252
232,1436373121949,68.8749131531294
233,1436373122665,71.6172298415933
234,1436373123392,58.4761693188217
235,1436373124025,68.7254411226308
236,1436373124694,69.0954947536558
237,1436373125446,60.0926425907125
238,1436373126224,56.6025387186023
239,1436373126950,70.3452958870621
240,1436373127685,71.4893766620965
241,1436373128408,60.6872359528161
242,1436373129179,65.5314115907023
243,1436373129912,69.5331547997268
244,1436373130654,68.3754330717365
245,1436373131338,60.0157070570943
246,1436373131975,64.4661354840409
247,1436373132676,67.5972872960067
248,1436373133408,64.1773539896488
249,1436373134062,65.932568862465
250,1436373134799,63.61098763685
251,1436373135552,71.3942202233754
252,1436373136303,51.7229469625509
253,1436373137027,67.4857273774038
254,1436373137763,67.148054878123
255,1436373138506,67.1262879067728
256,1436373139242,47.9167696380996
257,1436373139967,66.2952649062045
258,1436373140713,64.4898395814721
259,1436373141444,64.2162096273671
260,1436373142172,55.6714661119369
261,1436373142896,67.6715133011508
262,1436373143606,68.5966284916016
263,1436373144313,62.3281039897043
264,1436373145050,64.7998425140943
265,1436373145778,73.6499082625103
266,1436373146509,72.7319579153449
267,1436373147258,54.3479053544674
268,1436373147978,60.1837303139313
269,1436373148713,66.6160060992643
270,1436373149480,71.6602101360523
271,1436373150213,64.4821504215328
272,1436373150957,64.9353573865799
273,1436373151660,65.5596769019589
274,1436373152337,66.0344080386157
275,1436373153022,65.9339589336905
276,1436373153764,69.4528091776812
277,1436373154469,68.5241466518802
278,1436373155158,65.4591308204966
279,1436373156995,66.5832854048572
280,1436373157697,66.6627279770016
281,1436373158393,62.9062537361675
282,1436373159120,64.8030399892335
283,1436373159884,72.0689539443518
284,1436373160655,65.5041727487807
285,1436373161383,64.6400337911142
286,1436373162125,64.16047561367
287,1436373162853,67.7960602109671
288,1436373163565,67.4572647148809
289,1436373164314,64.6015866411082
290,1436373165003,69.2389035914677
291,1436373165725,68.5559919289331
292,1436373166454,70.8254531780836
293,1436373167164,60.6427717148013
294,1436373167861,67.0681669958904
295,1436373168585,62.2108063809777
296,1436373169251,65.5645262751597
297,1436373170729,71.0610090716191
298,1436373171462,70.88524389027
299,1436373172133,60.389633612161
300,1436373172800,67.2853071029242
301,1436373173541,68.3860137357729
302,1436373174289,65.5746599079324
303,1436373174961,61.265028669671
304,1436373175683,66.5317489995391
305,1436373176414,70.6491563064496
306,1436373177154,63.0885490100582
307,1436373177888,66.560181527082
308,1436373178623,71.3083209946275
309,1436373179404,71.0043725489664
310,1436373180137,66.0359808272164
311,1436373180868,64.4907882966212
312,1436373181593,66.9376135769554
313,1436373182352,70.8569384839121
314,1436373182995,55.7796621859755
315,1436373183568,66.9742776763726
316,1436373184169,64.7799483994947
317,1436373184831,70.2234802685164
318,1436373185513,70.1589738423641
319,1436373186223,63.6439254543033
320,1436373186946,65.9268057549428
321,1436373187648,72.4080852313766
322,1436373188336,73.1187883920785
323,1436373189072,57.7996373926335
324,1436373189814,64.1930114378551
325,1436373190544,66.3331646765607
326,1436373191310,71.7424703222276
327,1436373192076,60.5484292481395
328,1436373193513,68.1425021869503
329,1436373194258,73.3902249280647
330,1436373194984,62.4706984833032
331,1436373195633,70.6718542061448
332,1436373196324,67.0236857602374
333,1436373197053,61.0611545896115
334,1436373197797,62.0553913125374
335,1436373198495,65.6802410770121
336,1436373199072,62.0213796118684
337,1436373199703,65.5786722236621
338,1436373200424,69.5034566685633
339,1436373201159,55.3764752779325
340,1436373201894,60.9011136798035
341,1436373202646,67.3300068547266
342,1436373203371,72.0377086192387
343,1436373204079,58.1021483372021
344,1436373204816,66.6666984172511
345,1436373205568,60.2692099795098
346,1436373206848,66.674117264357
347,1436373207591,63.5687205399636
348,1436373208393,68.2537899227563
349,1436373208990,58.7790423241898
350,1436373209685,71.6671425847779
351,1436373210382,70.6142721417012
352,1436373211040,61.1993891057065
353,1436373211771,63.7563518689721
354,1436373212532,66.8999118826878
355,1436373213261,66.3897112235846
356,1436373213990,59.1703240531639
357,1436373214742,71.9912284533454
358,1436373215441,68.9762824069233
359,1436373216051,54.410894680037
360,1436373216737,70.0863762699854
361,1436373217481,64.51055858368
362,1436373218179,61.4935212568118
363,1436373218828,62.6881637557879
364,1436373219504,70.7028678185635
365,1436373220073,59.4989691330839
366,1436373220662,66.9777372624924
367,1436373221400,70.3277202130067
368,1436373222142,60.206856161354
369,1436373222828,64.8091873844037
370,1436373223546,66.5096453356237
371,1436373224280,67.9289295899213
372,1436373225000,62.2596432892707
373,1436373225790,65.154739731937
374,1436373226437,70.6652531949827
375,1436373227148,62.8910176077227
376,1436373227974,65.2626934375395
377,1436373228696,66.6966354164144
378,1436373229362,61.1033812934399
379,1436373230103,61.8818033878332
380,1436373230839,72.7955335502054
381,1436373231562,70.9830239214818
382,1436373232289,61.6799318298557
383,1436373233008,70.7084407612272
384,1436373233746,72.1874256360421
385,1436373234552,64.0368788409474
386,1436373235284,55.0039565390922
387,1436373236003,64.8584604442796
388,1436373236647,62.7113850949887
389,1436373237368,64.5813707715573
390,1436373238104,65.7394955660391
391,1436373238869,65.0329725026026
392,1436373239596,58.4309622781918
393,1436373240315,69.6036932585871
394,1436373240986,60.3746288427894
395,1436373241704,69.8282955834982
396,1436373242409,64.827866614761
397,1436373243152,60.8635363322281
398,1436373243868,64.3791321512246
399,1436373244598,69.157222377729
400,1436373245343,57.4674788579744
401,1436373246050,60.5935592797542
402,1436373246786,68.2175131059032
403,1436373247525,69.3049478779812
404,1436373248285,59.1933626219473
405,1436373249026,63.6098910513641
406,1436373249736,69.0368838860819
407,1436373250438,64.315923792464
408,1436373251116,65.3264546103807
409,1436373251898,64.4875089264431
410,1436373252675,67.8150038765727
411,1436373253303,53.0473032781235
412,1436373254039,67.0402994304765
413,1436373254777,65.347299644886
414,1436373255519,65.3150851627027
415,1436373256244,64.942403951224
416,1436373256934,71.3041100566608
417,1436373257637,71.7604217385406
418,1436373258299,55.2276353717066
419,1436373259016,71.4954298016373
420,1436373259752,66.6262477649347
421,1436373260495,56.4007088849078
422,1436373261233,70.5964436507774
423,1436373261947,73.005565538594
424,1436373262514,65.0569571546495
425,1436373263094,66.6650416720843
426,1436373263771,67.5966793110164
427,1436373264505,62.8366219270592
428,1436373265237,66.48384499708
429,1436373265991,66.3082663902301
430,1436373266672,68.7089738631505
431,1436373267301,61.4446316685857
432,1436373268025,67.1366158804329
433,1436373268755,71.2733258868389
434,1436373269495,51.7791241308627
435,1436373270270,66.7453224854563
436,1436373270946,64.3243267424449
437,1436373271679,63.3906716773287
438,1436373272410,61.8970730087105
439,1436373273114,70.8843966226302
440,1436373273778,69.0213863624452
441,1436373274537,58.5003218999066
442,1436373275268,68.7914704627873
443,1436373276015,66.4819533352565
444,1436373276774,61.7088357220748
445,1436373277461,67.7547657422137
446,1436373278193,68.7913210991378
447,1436373278915,73.0749512839877
448,1436373279671,52.5281047148667
449,1436373280398,63.645638546431
450,1436373281095,68.3613060798408
451,1436373281754,57.286773491563
452,1436373282487,63.2336938275454
453,1436373283207,66.5038194249565
454,1436373283811,57.565066526206
455,1436373284490,60.2942681664169
456,1436373285243,65.0149966799239
457,1436373285971,64.3969840559503
458,1436373286701,56.4623909982449
459,1436373287430,72.5823967298595
460,1436373288066,71.0853634013438
461,1436373288751,66.6813749005277
462,1436373289480,72.9090810704567
463,1436373290193,72.0928966345338
464,1436373290912,45.191948053818
465,1436373291643,60.6605261358723
466,1436373292353,66.3321460815801
467,1436373293099,62.7912863277657
468,1436373293808,62.9044921265691
469,1436373294649,72.5230764521641
470,1436373295386,65.7322295349976
471,1436373296133,66.4235805073058
472,1436373296854,62.3754272589177
473,1436373297534,62.4581447272188
474,1436373298195,62.4709133872377
475,1436373298912,64.0540344762226
476,1436373299667,65.3408416602807
477,1436373300506,68.7875058002135
478,1436373301240,54.3542558554495
479,1436373301974,64.6278012089642
480,1436373302691,70.7342845165636
481,1436373303454,61.1881539189891
482,1436373304203,58.2543849127255
483,1436373304801,65.9570559383795
484,1436373305478,65.3666566677699
485,1436373306234,59.9738696382861
486,1436373306962,71.4524375211591
487,1436373307648,70.9752204137336
488,1436373308299,64.1773048501418
489,1436373309024,69.219407239403
490,1436373309732,62.7456416732548
491,1436373310510,56.7629807377675
492,1436373311259,70.0006597829605
493,1436373311943,69.6750144795126
494,1436373312698,56.1421041804558
495,1436373313502,63.8674847247543
496,1436373314174,59.0345976657986
497,1436373314938,53.6452066653918
498,1436373315658,56.9163965953488
499,1436373316397,72.2225211427504
500,1436373317114,51.4699180672253
501,1436373317833,67.7418401755027
502,1436373318518,67.9569841498776
503,1436373319252,57.8120394626486
504,1436373319970,66.7067445283558
505,1436373320725,59.9251775435659
506,1436373321421,61.4084823995602
507,1436373322081,71.5228441753897
508,1436373322821,48.3572169347932
509,1436373323548,59.947041200292
510,1436373324293,63.3744025471304
511,1436373325041,62.7274289039712
512,1436373325782,66.778986457096
513,1436373326516,64.9582417236723
514,1436373327253,69.0328499237627
515,1436373327953,65.4915134310275
516,1436373328645,62.758273029818
517,1436373329364,62.5490423546409
518,1436373330100,66.757643463961
519,1436373330844,69.1915311164699
520,1436373331583,67.5337672010149
521,1436373332345,62.8505349782506
522,1436373332992,62.1465302350578
523,1436373333713,68.1280544378658
524,1436373334457,59.581298039306
525,1436373335200,63.8984723691376
526,1436373335921,68.5287513893358
527,1436373336667,69.5773133063645
528,1436373337393,49.4790304808761
529,1436373338142,63.8812883742169
530,1436373338756,65.5632480576117
531,1436373339454,63.1801366564728
532,1436373340222,64.7700450180995
533,1436373340946,64.3988459835782
534,1436373341661,56.9885718826451
535,1436373342404,66.0004053729701
536,1436373343154,64.979728733308
537,1436373343893,64.7396593227836
538,1436373344631,68.6076138267597
539,1436373345368,66.9025728179132
540,1436373346138,56.4964727246918
541,1436373346808,63.0082019416182
542,1436373347546,69.8165658239844
543,1436373348271,67.6066128504934
544,1436373348928,68.013671873948
545,1436373349669,66.214629911068
546,1436373350405,64.329497787631
547,1436373351153,50.7990556478007
548,1436373351911,68.4781008698973
549,1436373352651,68.2085037949188
550,1436373353397,59.431945154861
551,1436373354136,62.7707857580483
552,1436373354813,64.091272075075
553,1436373355481,61.5544081268602
554,1436373356209,69.6866533992041
555,1436373356940,68.6710976861752
556,1436373357664,71.4739785261334
557,1436373358389,50.4834531081939
558,1436373359063,69.2503225549454
559,1436373359650,70.0100982711357
560,1436373360937,66.9053195278552
561,1436373361611,58.2963516011049
562,1436373362357,70.1467142863117
563,1436373363056,68.44065611294
564,1436373363716,63.7770863997135
565,1436373364425,68.3592253999497
566,1436373365154,72.0414661693979
567,1436373365945,71.2578024020721
568,1436373366680,53.8640271955122
569,1436373367407,65.6603800738418
570,1436373368144,57.7640139764109
571,1436373368887,63.6038634745363
572,1436373369572,63.0901623881409
573,1436373370264,55.1718772558693
574,1436373371000,63.1857097928712
575,1436373371719,67.9549887721681
