id,attr_time,attr_db
1,1436372950910,28.0288974522437
2,1436372951640,33.4695064741915
3,1436372952373,29.9796050135227
4,1436372953118,28.0786076449594
5,1436372953862,32.4907586104207
6,1436372954590,43.8804095909812
7,1436372955339,28.6456066071047
8,1436372956127,30.8353788756358
9,1436372956854,44.7350762482377
10,1436372957593,29.0250619302974
11,1436372958329,43.2639352569153
12,1436372959129,25.6199993198026
13,1436372959857,41.9709286750296
14,1436372960532,31.0876575244554
15,1436372961212,30.157060295726
16,1436372961985,34.5917042552602
17,1436372962720,48.8351382088446
18,1436372963452,41.2490689856609
19,1436372964236,30.3860146990838
20,1436372964994,35.4703929576699
21,1436372965702,31.282112616578
22,1436372966455,38.372376431877
23,1436372967164,51.0746567439718
24,1436372967900,60.6207675507497
25,1436372968631,38.6108398232575
26,1436372969360,34.8759732065797
27,1436372970115,37.8646031239926
28,1436372970822,35.7766834462916
29,1436372971507,33.8304621808733
30,1436372972183,35.108696241592
31,1436372972937,33.7602058467669
32,1436372973688,38.711957570228
33,1436372974419,36.0566999438266
34,1436372975193,56.4152015893788
35,1436372975894,59.7269333986264
36,1436372976619,53.039336259752
37,1436372977354,55.1052807360827
38,1436372978097,35.1756917626428
39,1436372978844,33.6484016532571
40,1436372979562,35.4464844497433
41,1436372980375,37.1643384612865
42,1436372981081,61.3969919787058
43,1436372981790,61.1949644960124
44,1436372982535,35.4071410359437
45,1436372983261,65.6145114352498
46,1436372984008,33.0503985689315
47,1436372984670,42.0328426319085
48,1436372985367,41.8253479030282
49,1436372986070,41.1069716260444
50,1436372986817,50.1860866768024
51,1436372987556,39.4485951519909
52,1436372988284,53.2306940806992
53,1436372989085,43.8581976379468
54,1436372989832,66.651231736863
55,1436372990563,56.9319396982513
56,1436372991280,54.313820690214
57,1436372991922,57.7546932541812
58,1436372992660,69.724496715149
59,1436372993401,36.6180283305829
60,1436372994206,41.3517518949702
61,1436372995006,60.0565255877767
62,1436372995648,64.9819208702883
63,1436372996332,66.1900314274349
64,1436372997013,34.0816336597297
65,1436372997769,34.3364734489734
66,1436372998520,69.9767911637252
67,1436372999320,74.3817625704114
68,1436373000053,30.435572635611
69,1436373000762,67.5193198139044
70,1436373001490,37.5761927799669
71,1436373002194,36.9491521805387
72,1436373002856,35.2211704153475
73,1436373003587,70.5851853005169
74,1436373004360,52.6572199477687
75,1436373005089,64.5394682700092
76,1436373005819,42.0973235564836
77,1436373006490,43.927424597351
78,1436373007212,49.5954770874614
79,1436373007945,52.8055157465914
80,1436373008709,68.4978473960825
81,1436373009495,56.451524946032
82,1436373010231,58.8203190952131
83,1436373010965,57.7573611816518
84,1436373011729,37.262815611444
85,1436373012556,38.061725902101
86,1436373013175,50.6620791459329
87,1436373013957,56.0919792287766
88,1436373014680,35.6315923922348
89,1436373015382,35.0640546954866
90,1436373016046,47.7870770758154
91,1436373016743,42.6334916624431
92,1436373017489,36.1271967969683
93,1436373018221,39.9941218318092
94,1436373018959,49.0134315310876
95,1436373019681,45.4041076211991
96,1436373020497,67.8099513733309
97,1436373021238,44.1792806659598
98,1436373021975,45.0953261258126
99,1436373022671,44.7975771843895
100,1436373023348,40.28926700205
101,1436373024159,42.6033953153112
102,1436373024918,53.9129911461659
103,1436373025643,26.9304811248866
104,1436373026328,42.5376819610881
105,1436373027012,46.6524225220427
106,1436373027749,33.221803389433
107,1436373028495,31.5206901032425
108,1436373029240,43.5617807139007
109,1436373029989,34.1905547328873
110,1436373030717,34.0534595480261
111,1436373031446,32.9779794063604
112,1436373032172,50.4086398933991
113,1436373032833,43.4050866210502
114,1436373033544,38.4904262516804
115,1436373034287,53.082084412938
116,1436373035060,44.9849959396858
117,1436373035781,40.0822594597995
118,1436373036503,42.3323989818594
119,1436373037702,45.8395151448814
120,1436373038296,33.4512306965821
121,1436373039015,38.8128796934525
122,1436373039734,36.1895629509537
123,1436373040487,38.187707644712
124,1436373041216,41.031277968437
125,1436373041961,36.2097520896832
126,1436373042662,41.2608140974361
127,1436373043344,32.1572880947977
128,1436373044071,34.0803515614233
129,1436373044807,43.532414129558
130,1436373045572,36.7321229147013
131,1436373046318,43.0068300739871
132,1436373047075,33.4688400431926
133,1436373047804,37.5402631319685
134,1436373048520,36.5503033653336
135,1436373049268,51.0931016778451
136,1436373049944,45.6489973297084
137,1436373050683,36.5691247232355
138,1436373051429,41.2602901445366
139,1436373052144,66.6323698196047
140,1436373052871,65.6514941566287
141,1436373053601,40.6358387856205
142,1436373054324,36.8376891891177
143,1436373055103,67.8615723651073
144,1436373055842,43.6443996626132
145,1436373056545,39.7728874470423
146,1436373057276,34.461273839607
147,1436373057969,39.0456957176358
148,1436373058692,38.4559356828587
149,1436373059431,44.1162696628024
150,1436373060174,48.9119077023186
151,1436373060836,36.7200254254659
152,1436373061500,35.8626674320576
153,1436373062219,34.2554630368437
154,1436373062929,37.1971837909121
155,1436373063597,62.4726757403792
156,1436373064344,57.5868580592989
157,1436373065090,64.790907127937
158,1436373065813,40.9411863424346
159,1436373066540,71.6061406019705
160,1436373067264,47.5792931239318
161,1436373067987,59.6543001663588
162,1436373068708,46.9939226975163
163,1436373069434,48.186305953692
164,1436373070169,35.2414131400539
165,1436373070884,65.3130935536769
166,1436373071605,38.7036889369118
167,1436373072340,38.9166055208394
168,1436373073065,60.8342770338868
169,1436373073776,36.9757069621424
170,1436373074451,41.1744550661855
171,1436373075169,47.547456597609
172,1436373075902,41.2392771805012
173,1436373076638,42.6175543404216
174,1436373077367,39.0105560635332
175,1436373078120,34.4595864562422
176,1436373078793,37.9609858022762
177,1436373079531,37.0295307643984
178,1436373080265,34.3029564433972
179,1436373081058,35.0648968703996
180,1436373081706,36.6763511611693
181,1436373082423,40.7655768869791
182,1436373083160,34.1279001727751
183,1436373083911,69.9394482413766
184,1436373084553,51.3375321595307
185,1436373085245,33.9968536359321
186,1436373085982,43.9381368244588
187,1436373086718,37.8571288387427
188,1436373087457,66.175415970278
189,1436373088228,34.2553545367018
190,1436373088949,58.0602762223019
191,1436373089691,36.6564400362542
192,1436373090412,38.3573475720019
193,1436373091153,35.167834162495
194,1436373091890,44.1585830374133
195,1436373092603,70.9954283698282
196,1436373093349,40.232018943178
197,1436373094089,32.2063496592058
198,1436373094735,66.1490249558983
199,1436373095445,68.4903456658997
200,1436373096245,47.849097786658
201,1436373096895,34.6797409255915
202,1436373097499,53.1423410598984
203,1436373098193,44.376982909297
204,1436373098919,36.0211331716071
205,1436373099660,43.7021828767667
206,1436373100408,37.9889086383649
207,1436373101105,40.6607131313214
208,1436373101847,53.8324218153225
209,1436373102586,33.8383151899387
210,1436373103319,46.1861946585958
211,1436373104038,33.6131017738093
212,1436373104734,39.2449123656573
213,1436373105341,36.5023398636775
214,1436373106058,34.7245701219752
215,1436373107868,59.3116740364297
216,1436373108596,35.8408141683013
217,1436373109290,35.2397126315016
218,1436373109985,32.1894553629415
219,1436373110753,37.7073439095136
220,1436373111445,35.0461763293665
221,1436373112129,70.339405577181
222,1436373112790,61.6391943611037
223,1436373113499,68.1870192125814
224,1436373114214,75.7584106662513
225,1436373114920,75.0226338775403
226,1436373115680,57.3525253173651
227,1436373116358,36.4336843400708
228,1436373116967,31.9461445595922
229,1436373117654,51.1897256597161
230,1436373118337,38.875506169992
231,1436373119023,40.425386147321
232,1436373119773,67.9607074124278
233,1436373120492,42.0179073572404
234,1436373121274,57.5533655732504
235,1436373122481,36.2359721153718
236,1436373123206,38.7878606810916
237,1436373123934,34.4892549086703
238,1436373124612,34.5802014309853
239,1436373125252,37.8383322848613
240,1436373125967,31.0879663798129
241,1436373126677,39.2970635154828
242,1436373127411,36.0352272079216
243,1436373128141,34.0686595526095
244,1436373128795,36.8401364109519
245,1436373129594,35.1565580523508
246,1436373130334,36.1792069118377
247,1436373131067,41.0130684348277
248,1436373131814,34.4852810021344
249,1436373132574,31.9494687116081
250,1436373133295,36.9621182428027
251,1436373134079,45.5163687743527
252,1436373134826,32.9291969996176
253,1436373135540,33.8241931522151
254,1436373136287,41.0742485497277
255,1436373137025,52.052825603723
256,1436373137743,62.8938258832108
257,1436373138464,45.3111298413291
258,1436373139238,39.6778017899104
259,1436373139917,47.6952421598188
260,1436373140637,69.847932533524
261,1436373141378,35.2733749495057
262,1436373142055,53.3807130526169
263,1436373142777,33.7954372282546
264,1436373143486,63.6285451210363
265,1436373144141,37.0704310279166
266,1436373145640,40.2787684636074
267,1436373146369,50.4451132118285
268,1436373147115,38.9946003605158
269,1436373147840,34.2499966708812
270,1436373148613,40.0200580768558
271,1436373149287,37.4697993933485
272,1436373149999,36.8659812124222
273,1436373150728,35.1674851934281
274,1436373151459,67.9539922170802
275,1436373152213,64.6884089936935
276,1436373152927,51.5319290770856
277,1436373153649,47.6004949710757
278,1436373154372,36.6903317339202
279,1436373155102,39.5444558889797
280,1436373155823,36.7550085623209
281,1436373156560,50.8318139564699
282,1436373157276,47.4326191088177
283,1436373159166,46.2827264024072
284,1436373159835,40.6124171768199
285,1436373160568,38.1675519264688
286,1436373161285,37.7570839667271
287,1436373162020,35.5302735870967
288,1436373162778,66.7590365719836
289,1436373163521,38.2774529212902
290,1436373164261,36.5655470045351
291,1436373164980,37.0860625500877
292,1436373165658,36.86983778346
293,1436373166309,34.9655087646778
294,1436373167071,38.0792040438534
295,1436373167805,34.5708264195989
296,1436373168533,40.6302173458623
297,1436373169241,36.6557920668686
298,1436373169910,31.0172271957458
299,1436373170635,35.9208392035315
300,1436373171343,36.9428790917835
301,1436373172038,38.7824059617954
302,1436373172774,35.0752071131267
303,1436373173495,38.5179628024721
304,1436373174245,40.4129243881244
305,1436373174966,38.0415740567962
306,1436373175711,34.8038552582887
307,1436373176396,39.3937293555791
308,1436373177131,35.8551681231542
309,1436373177895,38.5729771893433
310,1436373178616,37.6693163574262
311,1436373179299,36.8435052664733
312,1436373179968,38.4901004663044
313,1436373180716,36.6385529639236
314,1436373181498,39.8016002773964
315,1436373182127,66.6794462875256
316,1436373182797,53.4896905635025
317,1436373183465,38.1119524813572
318,1436373184261,52.3220332150954
319,1436373184968,49.9833947868971
320,1436373185692,55.2197096641525
321,1436373186400,60.1708621350572
322,1436373187073,66.6057059694374
323,1436373187807,52.3147745982114
324,1436373188536,36.7606788055582
325,1436373189280,65.7818405057435
326,1436373190069,34.9861464910876
327,1436373190803,38.5062120654126
328,1436373191535,54.1082886957202
329,1436373192275,34.1415767113989
330,1436373193013,47.9281752824591
331,1436373193755,33.1524336852362
332,1436373194489,34.1438705047913
333,1436373195211,34.7836957128961
334,1436373195941,38.6158278271534
335,1436373196646,32.2099108086936
336,1436373197390,37.2965657617644
337,1436373198149,36.4913551960172
338,1436373198884,54.7249028358698
339,1436373199631,37.3543137031835
340,1436373200356,39.5223563308386
341,1436373201151,38.0739878702783
342,1436373202313,34.8797488180233
343,1436373202944,39.0176512079824
344,1436373203685,31.5340780726566
345,1436373204449,34.2704538113626
346,1436373205175,34.7251266585343
347,1436373205928,35.4706777524049
348,1436373206607,32.0885054411762
349,1436373207275,34.2776148150045
350,1436373208034,36.2996062142722
351,1436373208761,32.2036385219051
352,1436373209474,36.769229919556
353,1436373210231,34.9968466952595
354,1436373210874,59.5750125362758
355,1436373211589,63.1169223876815
356,1436373212317,71.8665877619335
357,1436373213061,65.3105113349843
358,1436373213774,51.347613617388
359,1436373214497,45.9023782633346
360,1436373215229,35.4086736479102
361,1436373215968,66.4196647060366
362,1436373216676,64.2131381575383
363,1436373217371,45.4211308160531
364,1436373218052,56.2553539056162
365,1436373218773,33.1700531968988
366,1436373219492,33.8894067856932
367,1436373220238,35.2320387261166
368,1436373221016,34.1827872712813
369,1436373221743,30.1179106071054
370,1436373222486,38.8569333057014
371,1436373223074,63.5700687041972
372,1436373223685,72.2055248454467
373,1436373224487,37.0082891934491
374,1436373225220,35.8265062426009
375,1436373225950,38.6635825364057
376,1436373226664,68.7873730609831
377,1436373227375,38.9290386965024
378,1436373228110,63.5598293206357
379,1436373228838,60.9380567826404
380,1436373229551,35.3056558411622
381,1436373230254,47.5102738734058
382,1436373230918,58.2071764507239
383,1436373231635,64.5940462649064
384,1436373232317,58.0933735472654
385,1436373233060,54.3177316623719
386,1436373233794,47.8377474841913
387,1436373234563,61.0816180648949
388,1436373235294,43.7533535131239
389,1436373236018,36.3896345573177
390,1436373236761,35.1490323771821
391,1436373237449,34.0106276443578
392,1436373238090,32.853034214065
393,1436373238798,36.3721992216554
394,1436373239547,36.2267620672976
395,1436373240297,36.444052060362
396,1436373241090,36.8612633989066
397,1436373241806,33.1301041458823
398,1436373242517,67.9180314683244
399,1436373243128,36.0786144212465
400,1436373243761,29.4370748827561
401,1436373244463,31.5143313676779
402,1436373245268,37.4872457589877
403,1436373246007,29.5802934331699
404,1436373246741,34.3368867748575
405,1436373247465,41.2308629212079
406,1436373248140,45.0126603915438
407,1436373248884,41.2128120240268
408,1436373249612,40.4733877586721
409,1436373250347,41.0796667689948
410,1436373251097,38.6349609032849
411,1436373251769,35.9180239972717
412,1436373252509,36.7006408038185
413,1436373253242,37.9820066444756
414,1436373254015,34.7382254837954
415,1436373254771,38.9257518086443
416,1436373255514,36.1925288291458
417,1436373256247,38.9044436662743
418,1436373256970,34.7038230653992
419,1436373257685,53.7858897549904
420,1436373258399,36.588676392899
421,1436373259070,34.0150774755328
422,1436373259840,40.5145048208675
423,1436373260552,36.5742067473882
424,1436373261269,41.6544945264788
425,1436373262017,34.6919668756517
426,1436373262801,36.6150834226904
427,1436373263463,33.4515103296401
428,1436373264185,31.5640521886724
429,1436373264964,34.9671772882342
430,1436373265690,31.3153351173981
431,1436373266434,34.8561984900612
432,1436373267112,32.3961241719058
433,1436373267829,37.466036126554
434,1436373268509,34.9320030815556
435,1436373269187,29.9975568780563
436,1436373269935,36.3289837402649
437,1436373270668,36.910460851487
438,1436373271366,35.884650436031
439,1436373272041,33.4883072614333
440,1436373272767,35.411578888021
441,1436373273495,37.4110069688758
442,1436373274196,32.4202294105739
443,1436373274933,37.4057128342766
444,1436373275667,71.0830857072944
445,1436373276379,72.6030614113671
446,1436373277087,35.3262982527138
447,1436373277808,62.7036865358702
448,1436373278509,39.5878425487993
449,1436373279174,42.4276812990009
450,1436373279956,40.4841479268268
451,1436373280671,38.9670244771959
452,1436373281418,46.6994646337001
453,1436373282125,47.2754944560063
454,1436373282766,40.8242564935968
455,1436373283507,55.838739503564
456,1436373284259,30.8919148291412
457,1436373284995,36.3367509541889
458,1436373285723,42.3965216923819
459,1436373286465,69.4811057237608
460,1436373287222,37.093214517464
461,1436373287945,55.2413000903948
462,1436373288639,46.4288328953416
463,1436373289304,44.5740852333668
464,1436373290054,48.2653277749062
465,1436373290775,42.0976440859696
466,1436373291500,34.9613638494169
467,1436373292291,37.8913886328344
468,1436373293012,34.2734384400355
469,1436373293654,27.9791874192316
470,1436373294310,36.4633020754778
471,1436373294996,64.4411811252245
472,1436373295747,48.157097836734
473,1436373296480,42.805288790769
474,1436373297195,72.5364634439874
475,1436373297917,45.9707309955818
476,1436373298640,56.3790794996013
477,1436373299302,41.1806479961787
478,1436373300007,39.5987972443249
479,1436373300730,36.9247300051846
480,1436373301460,34.7471337617562
481,1436373302187,37.5149733899282
482,1436373302896,31.6589772158439
483,1436373303553,35.0527447609794
484,1436373304271,38.4080439788155
485,1436373304999,33.7018398134475
486,1436373305739,39.6940674246266
487,1436373306458,43.8098127648835
488,1436373307186,36.2828510441235
489,1436373307922,36.7020229318861
490,1436373308644,37.6883725169528
491,1436373309367,38.4416390448373
492,1436373310054,35.4542397551503
493,1436373310702,35.5525923080914
494,1436373312083,35.3747874666908
495,1436373312800,44.385207327136
496,1436373313481,41.3873680673718
497,1436373314187,32.0773717848934
498,1436373314938,52.7827658608234
499,1436373315683,34.4196017243951
500,1436373316433,35.8245517975884
501,1436373317169,39.0291504872371
502,1436373317892,38.1525137184137
503,1436373318617,38.1055105975917
504,1436373319349,46.4181762099082
505,1436373319999,34.5517487569913
506,1436373320732,39.3114788812576
507,1436373321443,37.9290912554696
508,1436373322166,37.7005901262375
509,1436373322966,38.4817917215651
510,1436373323597,34.2336783868872
511,1436373324267,38.0464714125419
512,1436373324988,37.0938259472916
513,1436373325692,33.2967876463207
514,1436373326437,35.9884154331432
515,1436373327194,36.5152422964615
516,1436373327918,36.9098949472648
517,1436373328665,36.2710413416977
518,1436373329468,36.0088212381476
519,1436373330689,34.4316672905557
520,1436373331353,36.9508643947637
521,1436373332084,38.186050627324
522,1436373332803,35.3325719125377
523,1436373333537,35.7106254610247
524,1436373334280,35.8085846173586
525,1436373335002,33.7980489502835
526,1436373335734,35.8129777080939
527,1436373336482,36.6467876125783
528,1436373337194,46.3652721106997
529,1436373337941,36.341032020482
530,1436373338581,34.8499978681455
531,1436373339181,30.0081347577462
532,1436373339857,40.3642714637878
533,1436373340587,34.1181408098279
534,1436373341320,35.0016874119418
535,1436373342068,36.021814797878
536,1436373342796,36.423501645942
537,1436373343504,37.0157650527784
538,1436373344259,36.1087744315591
539,1436373344953,40.1847478593412
540,1436373345687,31.1810267022409
541,1436373346419,34.543423018188
542,1436373347152,35.2745227018172
543,1436373347883,34.7276394847529
544,1436373348622,33.1473660070157
545,1436373349364,41.1494845631204
546,1436373350083,60.2276741655486
547,1436373350735,40.871914975385
548,1436373351465,37.9187919713473
549,1436373352204,36.7171214624977
550,1436373352951,34.700783467733
551,1436373353671,36.5033513876778
552,1436373354355,36.1856883038174
553,1436373355008,39.168078467727
554,1436373355721,37.2423604602524
555,1436373356454,36.1506815835222
556,1436373357180,36.1630590208954
557,1436373357903,35.8065012694876
558,1436373358619,35.0364819013515
559,1436373359358,37.0407970916672
560,1436373360074,36.1799501616413
561,1436373361725,36.8516019472045
562,1436373362375,39.0365712225882
563,1436373363097,36.3447065577475
564,1436373363764,34.519429279606
565,1436373364396,36.1969423706609
566,1436373365139,33.9321857069648
567,1436373365878,36.7519886796721
568,1436373366599,34.4205878061704
569,1436373367318,31.5742766724726
570,1436373368038,34.261665117803
571,1436373368770,33.7131120063179
572,1436373369505,37.8709641145005
573,1436373370214,33.7946706122509
574,1436373370936,34.1506428070003
575,1436373371643,33.018379628488
