id,attr_time,attr_light
1,1436984545083,3.0
2,1436984545084,3.0
3,1436984545085,3.0
4,1436984545097,3.0
5,1436984545118,3.0
6,1436984545137,3.0
7,1436984545160,3.0
8,1436984545177,3.0
9,1436984545196,3.0
10,1436984545217,3.0
11,1436984545238,3.0
12,1436984545303,3.0
13,1436984545304,3.0
14,1436984545305,3.0
15,1436984545316,3.0
16,1436984545336,3.0
17,1436984545356,3.0
18,1436984545377,3.0
19,1436984545397,3.0
20,1436984545417,3.0
21,1436984545437,3.0
22,1436984545457,3.0
23,1436984545477,3.0
24,1436984545497,3.0
25,1436984545517,3.0
26,1436984545537,3.0
27,1436984545557,3.0
28,1436984545579,3.0
29,1436984545597,3.0
30,1436984545617,3.0
31,1436984545662,3.0
32,1436984545663,3.0
33,1436984545682,3.0
34,1436984545697,3.0
35,1436984545716,3.0
36,1436984545737,3.0
37,1436984545758,3.0
38,1436984545778,3.0
39,1436984545796,3.0
40,1436984545817,3.0
41,1436984545838,3.0
42,1436984545860,3.0
43,1436984545876,3.0
44,1436984545899,3.0
45,1436984545920,3.0
46,1436984545938,3.0
47,1436984545957,3.0
48,1436984545978,3.0
49,1436984546001,3.0
50,1436984546021,3.0
51,1436984546037,3.0
52,1436984546058,3.0
53,1436984546077,3.0
54,1436984546098,3.0
55,1436984546119,3.0
56,1436984546138,3.0
57,1436984546159,3.0
58,1436984546179,3.0
59,1436984546197,3.0
60,1436984546218,3.0
61,1436984546238,3.0
62,1436984546259,3.0
63,1436984546372,3.0
64,1436984546373,3.0
65,1436984546374,3.0
66,1436984546375,3.0
67,1436984546376,3.0
68,1436984546391,3.0
69,1436984546399,3.0
70,1436984546419,3.0
71,1436984546438,3.0
72,1436984546469,3.0
73,1436984546477,3.0
74,1436984546498,3.0
75,1436984546518,3.0
76,1436984546538,3.0
77,1436984546559,3.0
78,1436984546580,3.0
79,1436984546598,3.0
80,1436984546619,3.0
81,1436984546638,3.0
82,1436984546660,3.0
83,1436984546681,3.0
84,1436984546701,3.0
85,1436984546721,3.0
86,1436984546740,3.0
87,1436984546762,3.0
88,1436984546781,3.0
89,1436984546798,3.0
90,1436984546820,3.0
91,1436984546839,3.0
92,1436984546864,3.0
93,1436984546884,3.0
94,1436984546898,3.0
95,1436984546919,3.0
96,1436984546941,3.0
97,1436984546959,3.0
98,1436984546978,3.0
99,1436984547000,3.0
100,1436984547022,3.0
101,1436984547099,3.0
102,1436984547100,3.0
103,1436984547101,3.0
104,1436984547102,3.0
105,1436984547120,3.0
106,1436984547142,3.0
107,1436984547158,3.0
108,1436984547185,3.0
109,1436984547211,3.0
110,1436984547220,3.0
111,1436984547244,3.0
112,1436984547259,3.0
113,1436984547285,3.0
114,1436984547301,3.0
115,1436984547322,3.0
116,1436984547342,3.0
117,1436984547362,3.0
118,1436984547382,3.0
119,1436984547401,3.0
120,1436984547422,3.0
121,1436984547441,3.0
122,1436984547463,3.0
123,1436984547479,4.0
124,1436984547501,4.0
125,1436984547522,4.0
126,1436984547542,4.0
127,1436984547565,4.0
128,1436984547582,4.0
129,1436984547598,4.0
130,1436984547620,4.0
131,1436984547639,4.0
132,1436984547666,4.0
133,1436984547683,4.0
134,1436984547703,4.0
135,1436984547721,5.0
136,1436984547744,5.0
137,1436984547759,4.0
138,1436984547791,4.0
139,1436984547811,4.0
140,1436984547827,4.0
141,1436984547850,3.0
142,1436984547872,3.0
143,1436984547879,3.0
144,1436984547899,3.0
145,1436984547920,3.0
146,1436984547939,3.0
147,1436984547965,3.0
148,1436984547979,3.0
149,1436984548032,3.0
150,1436984548033,3.0
151,1436984548039,3.0
152,1436984548059,3.0
153,1436984548082,3.0
154,1436984548102,3.0
155,1436984548122,4.0
156,1436984548143,4.0
157,1436984548161,4.0
158,1436984548183,4.0
159,1436984548200,4.0
160,1436984548219,3.0
161,1436984548241,3.0
162,1436984548262,3.0
163,1436984548284,3.0
164,1436984548299,3.0
165,1436984548323,3.0
166,1436984548342,3.0
167,1436984548362,3.0
168,1436984548383,3.0
169,1436984548402,3.0
170,1436984548422,3.0
171,1436984548443,3.0
172,1436984548463,3.0
173,1436984548484,3.0
174,1436984548503,3.0
175,1436984548523,3.0
176,1436984548542,4.0
177,1436984548566,4.0
178,1436984548683,4.0
179,1436984548684,4.0
180,1436984548685,4.0
181,1436984548686,4.0
182,1436984548701,4.0
183,1436984548702,4.0
184,1436984548703,3.0
185,1436984548732,3.0
186,1436984548742,3.0
187,1436984548973,3.0
188,1436984548974,3.0
189,1436984548975,3.0
190,1436984548976,3.0
191,1436984548977,3.0
192,1436984548978,4.0
193,1436984548979,4.0
194,1436984548980,4.0
195,1436984548981,4.0
196,1436984548982,4.0
197,1436984548983,4.0
198,1436984548984,4.0
199,1436984549021,5.0
200,1436984549022,5.0
201,1436984549041,5.0
202,1436984549084,5.0
203,1436984549085,4.0
204,1436984549101,4.0
205,1436984549121,3.0
206,1436984549142,3.0
207,1436984549161,3.0
208,1436984549181,3.0
209,1436984549202,3.0
210,1436984549221,3.0
211,1436984549242,3.0
212,1436984549261,3.0
213,1436984549280,3.0
214,1436984549300,3.0
215,1436984549321,3.0
216,1436984549341,3.0
217,1436984549361,4.0
218,1436984549383,4.0
219,1436984549408,4.0
220,1436984549420,4.0
221,1436984549441,5.0
222,1436984549462,5.0
223,1436984549482,5.0
224,1436984549503,5.0
225,1436984549522,5.0
226,1436984549540,5.0
227,1436984549564,4.0
228,1436984549584,4.0
229,1436984549603,3.0
230,1436984549623,3.0
231,1436984549644,3.0
232,1436984549663,3.0
233,1436984549684,3.0
234,1436984549705,3.0
235,1436984549722,3.0
236,1436984549744,3.0
237,1436984549762,3.0
238,1436984549782,3.0
239,1436984549804,3.0
240,1436984549823,4.0
241,1436984549843,4.0
242,1436984549864,4.0
243,1436984549884,4.0
244,1436984549903,5.0
245,1436984549924,5.0
246,1436984549972,5.0
247,1436984549973,5.0
248,1436984550017,4.0
249,1436984550018,4.0
250,1436984550021,3.0
251,1436984550041,3.0
252,1436984550071,2.0
253,1436984550129,2.0
254,1436984550130,3.0
255,1436984550131,3.0
256,1436984550151,3.0
257,1436984550162,3.0
258,1436984550192,3.0
259,1436984550203,3.0
260,1436984550221,3.0
261,1436984550244,3.0
262,1436984550262,3.0
263,1436984550285,3.0
264,1436984550307,5.0
265,1436984550322,5.0
266,1436984550341,5.0
267,1436984550365,5.0
268,1436984550385,5.0
269,1436984550405,5.0
270,1436984550425,4.0
271,1436984550445,4.0
272,1436984550465,3.0
273,1436984550485,3.0
274,1436984550505,3.0
275,1436984550525,3.0
276,1436984550543,3.0
277,1436984550564,3.0
278,1436984550585,3.0
279,1436984550602,3.0
280,1436984550622,3.0
281,1436984550643,3.0
282,1436984550667,3.0
283,1436984550687,4.0
284,1436984550707,4.0
285,1436984550725,4.0
286,1436984550743,4.0
287,1436984550763,4.0
288,1436984550782,4.0
289,1436984550804,5.0
290,1436984550826,5.0
291,1436984550872,5.0
292,1436984550873,5.0
293,1436984550892,4.0
294,1436984550903,4.0
295,1436984550927,3.0
296,1436984550943,3.0
297,1436984550962,3.0
298,1436984550984,3.0
299,1436984551003,3.0
300,1436984551023,3.0
301,1436984551047,3.0
302,1436984551063,3.0
303,1436984551082,3.0
304,1436984551105,3.0
305,1436984551125,3.0
306,1436984551146,3.0
307,1436984551166,3.0
308,1436984551185,3.0
309,1436984551205,4.0
310,1436984551226,4.0
311,1436984551247,4.0
312,1436984551268,4.0
313,1436984551283,5.0
314,1436984551306,5.0
315,1436984551322,4.0
316,1436984551342,3.0
317,1436984551363,3.0
318,1436984551388,3.0
319,1436984551408,3.0
320,1436984551429,3.0
321,1436984551446,3.0
322,1436984551463,3.0
323,1436984551482,3.0
324,1436984551503,3.0
325,1436984551523,3.0
326,1436984551545,3.0
327,1436984551603,3.0
328,1436984551604,4.0
329,1436984551605,4.0
330,1436984551623,4.0
331,1436984551643,4.0
332,1436984551669,5.0
333,1436984551683,5.0
334,1436984551703,5.0
335,1436984551725,5.0
336,1436984551745,5.0
337,1436984551764,5.0
338,1436984551783,4.0
339,1436984551805,4.0
340,1436984551826,3.0
341,1436984551846,3.0
342,1436984551866,3.0
343,1436984551886,3.0
344,1436984551904,3.0
345,1436984551926,3.0
346,1436984551946,3.0
347,1436984551967,3.0
348,1436984551986,3.0
349,1436984552008,3.0
350,1436984552024,3.0
351,1436984552046,3.0
352,1436984552065,3.0
353,1436984552083,3.0
354,1436984552103,3.0
355,1436984552123,3.0
356,1436984552143,4.0
357,1436984552165,4.0
358,1436984552185,4.0
359,1436984552206,4.0
360,1436984552227,4.0
361,1436984552247,4.0
362,1436984552266,4.0
363,1436984552288,3.0
364,1436984552365,3.0
365,1436984552366,3.0
366,1436984552367,3.0
367,1436984552368,3.0
368,1436984552385,3.0
369,1436984552414,3.0
370,1436984552461,3.0
371,1436984552463,3.0
372,1436984552464,3.0
373,1436984552483,4.0
374,1436984552511,4.0
375,1436984552523,4.0
376,1436984552544,4.0
377,1436984552570,4.0
378,1436984552585,4.0
379,1436984552605,5.0
380,1436984552626,5.0
381,1436984554028,5.0
382,1436984554029,5.0
383,1436984554030,4.0
384,1436984554031,4.0
385,1436984554032,3.0
386,1436984554033,3.0
387,1436984554034,3.0
388,1436984554035,3.0
389,1436984554036,3.0
390,1436984554037,3.0
391,1436984554038,3.0
392,1436984554039,3.0
393,1436984554040,3.0
394,1436984554041,3.0
395,1436984554042,3.0
396,1436984554043,3.0
397,1436984554044,3.0
398,1436984554045,4.0
399,1436984554046,4.0
400,1436984554047,4.0
401,1436984554048,4.0
402,1436984554049,5.0
403,1436984554050,5.0
404,1436984554051,4.0
405,1436984554052,4.0
406,1436984554053,3.0
407,1436984554054,3.0
408,1436984554055,2.0
409,1436984554056,2.0
410,1436984554057,2.0
411,1436984554058,2.0
412,1436984554059,3.0
413,1436984554060,3.0
414,1436984554061,3.0
415,1436984554062,3.0
416,1436984554063,3.0
417,1436984554064,3.0
418,1436984554065,4.0
419,1436984554066,4.0
420,1436984554067,3.0
421,1436984554068,3.0
422,1436984554069,4.0
423,1436984554070,4.0
424,1436984554071,5.0
425,1436984554072,5.0
426,1436984554073,5.0
427,1436984554074,5.0
428,1436984554075,4.0
429,1436984554076,4.0
430,1436984554077,3.0
431,1436984554078,3.0
432,1436984554079,2.0
433,1436984554080,2.0
434,1436984554081,2.0
435,1436984554082,2.0
436,1436984554083,2.0
437,1436984554084,3.0
438,1436984554085,3.0
439,1436984554086,3.0
440,1436984554087,3.0
441,1436984554088,3.0
442,1436984554089,3.0
443,1436984554090,4.0
444,1436984554091,4.0
445,1436984554092,5.0
446,1436984554093,5.0
447,1436984554094,5.0
448,1436984554095,5.0
449,1436984554096,4.0
450,1436984554097,4.0
451,1436984554098,3.0
452,1436984554099,3.0
453,1436984554100,3.0
454,1436984554103,3.0
455,1436984554123,3.0
456,1436984554143,3.0
457,1436984554164,3.0
458,1436984554184,3.0
459,1436984554204,3.0
460,1436984554224,3.0
461,1436984554244,3.0
462,1436984554266,3.0
463,1436984554286,3.0
464,1436984554305,3.0
465,1436984554326,3.0
466,1436984554348,3.0
467,1436984554366,4.0
468,1436984554386,4.0
469,1436984554405,5.0
470,1436984554425,5.0
471,1436984554448,5.0
472,1436984554467,5.0
473,1436984554489,4.0
474,1436984554509,4.0
475,1436984554525,3.0
476,1436984554545,3.0
477,1436984554567,2.0
478,1436984554595,3.0
479,1436984554612,3.0
480,1436984554627,3.0
481,1436984554645,3.0
482,1436984554665,3.0
483,1436984554687,3.0
484,1436984554706,3.0
485,1436984554726,3.0
486,1436984554749,3.0
487,1436984554769,3.0
488,1436984554789,4.0
489,1436984554808,4.0
490,1436984554826,4.0
491,1436984554847,4.0
492,1436984554866,5.0
493,1436984554886,5.0
494,1436984554908,5.0
495,1436984554926,5.0
496,1436984554948,4.0
497,1436984554966,4.0
498,1436984554989,3.0
499,1436984555009,3.0
500,1436984555100,3.0
501,1436984555103,3.0
502,1436984555104,3.0
503,1436984555105,3.0
504,1436984555106,3.0
505,1436984555126,3.0
506,1436984555146,3.0
507,1436984555167,3.0
508,1436984555188,3.0
509,1436984555216,3.0
510,1436984555289,3.0
511,1436984555290,3.0
512,1436984555291,4.0
513,1436984555292,4.0
514,1436984555307,5.0
515,1436984555328,5.0
516,1436984555348,5.0
517,1436984555366,5.0
518,1436984555387,5.0
519,1436984555410,3.0
520,1436984555427,3.0
521,1436984555449,3.0
522,1436984555467,3.0
523,1436984555490,3.0
524,1436984555551,3.0
525,1436984555552,3.0
526,1436984555553,3.0
527,1436984555566,3.0
528,1436984555586,3.0
529,1436984555606,3.0
530,1436984555626,3.0
531,1436984555647,3.0
532,1436984555666,3.0
533,1436984555687,3.0
534,1436984555707,3.0
535,1436984555727,4.0
536,1436984555747,4.0
537,1436984555767,5.0
538,1436984555787,5.0
539,1436984555806,5.0
540,1436984555826,5.0
541,1436984555846,4.0
542,1436984555866,4.0
543,1436984555886,3.0
544,1436984555908,3.0
545,1436984555937,2.0
546,1436984555951,2.0
547,1436984555966,3.0
548,1436984555989,3.0
549,1436984556006,3.0
550,1436984556027,3.0
551,1436984556047,3.0
552,1436984556067,3.0
553,1436984556087,4.0
554,1436984556109,4.0
555,1436984556127,4.0
556,1436984556147,4.0
557,1436984556170,4.0
558,1436984556190,5.0
559,1436984556208,5.0
560,1436984556230,5.0
561,1436984556250,5.0
562,1436984556269,5.0
563,1436984556289,5.0
564,1436984556313,4.0
565,1436984556329,4.0
566,1436984556353,3.0
567,1436984556367,3.0
568,1436984556390,3.0
569,1436984556411,3.0
570,1436984556427,3.0
571,1436984556447,3.0
572,1436984556469,3.0
573,1436984556490,3.0
574,1436984556514,3.0
575,1436984556528,3.0
576,1436984556549,3.0
577,1436984556675,3.0
578,1436984556676,3.0
579,1436984556677,3.0
580,1436984556678,4.0
581,1436984556679,4.0
582,1436984556680,4.0
583,1436984556699,4.0
584,1436984556731,4.0
585,1436984556732,4.0
586,1436984556747,4.0
587,1436984556774,4.0
588,1436984556787,3.0
589,1436984556808,3.0
590,1436984556831,2.0
591,1436984556849,2.0
592,1436984556871,3.0
593,1436984556888,3.0
594,1436984556910,3.0
595,1436984556932,3.0
596,1436984556949,3.0
597,1436984556970,3.0
598,1436984556989,3.0
599,1436984557011,4.0
600,1436984557032,4.0
601,1436984557053,4.0
602,1436984557068,4.0
603,1436984557091,5.0
604,1436984557108,5.0
605,1436984557129,5.0
606,1436984557148,5.0
607,1436984557171,5.0
608,1436984557192,5.0
609,1436984557211,5.0
610,1436984557232,5.0
611,1436984557248,3.0
612,1436984557270,3.0
613,1436984557288,3.0
614,1436984557311,3.0
615,1436984557400,2.0
616,1436984557420,2.0
617,1436984557421,2.0
618,1436984557422,2.0
619,1436984557423,2.0
620,1436984557451,2.0
621,1436984557452,3.0
622,1436984557468,3.0
623,1436984557489,3.0
624,1436984557508,3.0
625,1436984557541,3.0
626,1436984557548,3.0
627,1436984557572,4.0
628,1436984557590,4.0
629,1436984557611,4.0
630,1436984557633,4.0
631,1436984557651,4.0
632,1436984557672,4.0
633,1436984557692,3.0
634,1436984557712,3.0
635,1436984557733,3.0
636,1436984557751,3.0
637,1436984557772,3.0
638,1436984557792,3.0
639,1436984557813,3.0
640,1436984557829,3.0
641,1436984557852,3.0
642,1436984557871,3.0
643,1436984557892,3.0
644,1436984557911,3.0
645,1436984557932,3.0
646,1436984557952,4.0
647,1436984557972,4.0
648,1436984557992,5.0
649,1436984558032,5.0
650,1436984558033,5.0
651,1436984558050,5.0
652,1436984558069,5.0
653,1436984558090,5.0
654,1436984558132,5.0
655,1436984558133,5.0
656,1436984558152,3.0
657,1436984558169,3.0
658,1436984558189,3.0
659,1436984558239,3.0
660,1436984558240,3.0
661,1436984558249,3.0
662,1436984558269,3.0
663,1436984558302,3.0
664,1436984558311,3.0
665,1436984558329,3.0
666,1436984558349,3.0
667,1436984558369,3.0
668,1436984558389,4.0
669,1436984558412,4.0
670,1436984558432,4.0
671,1436984558452,4.0
672,1436984558473,5.0
673,1436984558492,5.0
674,1436984558514,5.0
675,1436984558531,5.0
676,1436984558553,5.0
677,1436984558571,4.0
678,1436984558592,4.0
679,1436984558615,3.0
680,1436984558631,3.0
681,1436984558656,3.0
682,1436984558675,3.0
683,1436984558692,3.0
684,1436984558710,3.0
685,1436984558730,3.0
686,1436984558750,3.0
687,1436984558772,3.0
688,1436984558790,3.0
689,1436984558810,3.0
690,1436984558834,3.0
691,1436984558850,4.0
692,1436984558870,4.0
693,1436984558891,5.0
694,1436984558910,5.0
695,1436984558930,5.0
696,1436984558953,5.0
697,1436984558972,5.0
698,1436984558991,5.0
699,1436984559011,5.0
700,1436984559033,5.0
701,1436984559050,3.0
702,1436984559096,3.0
703,1436984559097,3.0
704,1436984559113,3.0
705,1436984559133,3.0
706,1436984559153,3.0
707,1436984559173,3.0
708,1436984559193,3.0
709,1436984559213,3.0
710,1436984559233,3.0
711,1436984559253,3.0
712,1436984559273,3.0
713,1436984559293,3.0
714,1436984559313,3.0
715,1436984559333,4.0
716,1436984559353,4.0
717,1436984559373,5.0
718,1436984559392,5.0
719,1436984559413,5.0
720,1436984559433,5.0
721,1436984559453,5.0
722,1436984559470,4.0
723,1436984559504,4.0
724,1436984559562,3.0
725,1436984559563,3.0
726,1436984559564,3.0
727,1436984559584,3.0
728,1436984559594,3.0
729,1436984559611,3.0
730,1436984559642,3.0
731,1436984559655,3.0
732,1436984559672,3.0
733,1436984559724,3.0
734,1436984559725,3.0
735,1436984559741,3.0
736,1436984559785,3.0
737,1436984559786,3.0
738,1436984559805,4.0
739,1436984559817,4.0
740,1436984559831,4.0
741,1436984559852,4.0
742,1436984559882,4.0
743,1436984559891,4.0
744,1436984559913,4.0
745,1436984559932,4.0
746,1436984559953,3.0
747,1436984559971,3.0
748,1436984560042,3.0
749,1436984560043,3.0
750,1436984560044,3.0
751,1436984560065,3.0
752,1436984560071,3.0
753,1436984560094,3.0
754,1436984560112,3.0
755,1436984560134,3.0
756,1436984560154,3.0
757,1436984560173,4.0
758,1436984560194,4.0
759,1436984560216,4.0
760,1436984560234,4.0
761,1436984560260,5.0
762,1436984560333,5.0
763,1436984560334,5.0
764,1436984560335,5.0
765,1436984560336,5.0
766,1436984560353,5.0
767,1436984560374,5.0
768,1436984560391,5.0
769,1436984560416,3.0
770,1436984560432,3.0
771,1436984560452,3.0
772,1436984560474,3.0
773,1436984560492,3.0
774,1436984560514,3.0
775,1436984560534,3.0
776,1436984560554,3.0
777,1436984560574,3.0
778,1436984560594,3.0
779,1436984560614,3.0
780,1436984560634,3.0
781,1436984560654,4.0
782,1436984560675,4.0
783,1436984560694,4.0
784,1436984560713,4.0
785,1436984560733,5.0
786,1436984560755,5.0
787,1436984560773,5.0
788,1436984560793,5.0
789,1436984560815,5.0
790,1436984560834,5.0
791,1436984560855,3.0
792,1436984560875,3.0
793,1436984560895,3.0
794,1436984560913,3.0
795,1436984560932,3.0
796,1436984560953,3.0
797,1436984560980,3.0
798,1436984561053,3.0
799,1436984561054,3.0
800,1436984561055,3.0
801,1436984561056,3.0
802,1436984561074,3.0
803,1436984561094,3.0
804,1436984561113,3.0
805,1436984561134,3.0
806,1436984561154,4.0
807,1436984561172,4.0
808,1436984561194,5.0
809,1436984561214,5.0
810,1436984561236,5.0
811,1436984561253,5.0
812,1436984561275,4.0
813,1436984561295,4.0
814,1436984561315,3.0
815,1436984561335,3.0
816,1436984561356,3.0
817,1436984561375,3.0
818,1436984561395,3.0
819,1436984561415,3.0
820,1436984561439,3.0
821,1436984561454,3.0
822,1436984561475,3.0
823,1436984561493,3.0
824,1436984561514,3.0
825,1436984561533,3.0
826,1436984561557,4.0
827,1436984561576,4.0
828,1436984561597,4.0
829,1436984561616,4.0
830,1436984561633,5.0
831,1436984561653,5.0
832,1436984561673,5.0
833,1436984561694,5.0
834,1436984561713,5.0
835,1436984561774,5.0
836,1436984561775,4.0
837,1436984561785,3.0
838,1436984561792,3.0
839,1436984561813,3.0
840,1436984561833,3.0
841,1436984561853,3.0
842,1436984561876,3.0
843,1436984561893,3.0
844,1436984561914,3.0
845,1436984561935,3.0
846,1436984561955,3.0
847,1436984561974,4.0
848,1436984561996,4.0
849,1436984562016,4.0
850,1436984562036,4.0
851,1436984562056,5.0
852,1436984562076,5.0
853,1436984562096,5.0
854,1436984562116,5.0
855,1436984562136,6.0
856,1436984562156,6.0
857,1436984562176,5.0
858,1436984562194,5.0
859,1436984562216,3.0
860,1436984562234,3.0
861,1436984562254,3.0
862,1436984562273,3.0
863,1436984562297,3.0
864,1436984562317,3.0
865,1436984562338,3.0
866,1436984562356,3.0
867,1436984562376,3.0
868,1436984562394,3.0
869,1436984562415,3.0
870,1436984562435,3.0
871,1436984562503,4.0
872,1436984562504,4.0
873,1436984562505,4.0
874,1436984562524,4.0
875,1436984562533,4.0
876,1436984562558,4.0
877,1436984562574,4.0
878,1436984562593,5.0
879,1436984562614,5.0
880,1436984562634,4.0
881,1436984562654,4.0
882,1436984562681,3.0
883,1436984562695,3.0
884,1436984562716,3.0
885,1436984562737,3.0
886,1436984562757,3.0
887,1436984562777,3.0
888,1436984562796,3.0
889,1436984562817,3.0
890,1436984562837,3.0
891,1436984562857,3.0
892,1436984562877,3.0
893,1436984562895,3.0
894,1436984562913,4.0
895,1436984562937,4.0
896,1436984562957,4.0
897,1436984562977,4.0
898,1436984562995,5.0
899,1436984563016,5.0
900,1436984563042,5.0
901,1436984563055,5.0
902,1436984563074,5.0
903,1436984563094,5.0
904,1436984563114,4.0
905,1436984563135,4.0
906,1436984563155,3.0
907,1436984563185,3.0
908,1436984563240,3.0
909,1436984563241,3.0
910,1436984563242,3.0
911,1436984563262,3.0
912,1436984563274,3.0
