id,attr_time,attr_light
1,1436472360014,0.0
2,1436472360034,0.0
3,1436472360054,0.0
4,1436472360073,0.0
5,1436472360103,0.0
6,1436472360112,0.0
7,1436472360159,0.0
8,1436472360160,0.0
9,1436472360171,0.0
10,1436472360191,0.0
11,1436472360212,0.0
12,1436472360231,0.0
13,1436472360251,0.0
14,1436472360275,0.0
15,1436472360292,0.0
16,1436472360313,0.0
17,1436472360331,0.0
18,1436472360351,0.0
19,1436472360374,0.0
20,1436472360392,0.0
21,1436472360413,0.0
22,1436472360432,0.0
23,1436472360454,0.0
24,1436472360472,0.0
25,1436472360494,0.0
26,1436472360512,0.0
27,1436472360533,0.0
28,1436472360554,0.0
29,1436472360574,0.0
30,1436472360594,0.0
31,1436472360612,0.0
32,1436472360634,0.0
33,1436472360654,0.0
34,1436472360673,0.0
35,1436472360694,0.0
36,1436472360716,0.0
37,1436472360734,0.0
38,1436472360753,0.0
39,1436472360774,0.0
40,1436472360792,0.0
41,1436472360814,0.0
42,1436472360832,0.0
43,1436472360853,0.0
44,1436472360878,0.0
45,1436472360895,0.0
46,1436472360915,0.0
47,1436472360933,0.0
48,1436472360989,0.0
49,1436472360990,0.0
50,1436472360993,0.0
51,1436472361011,0.0
52,1436472361031,0.0
53,1436472361051,0.0
54,1436472361072,0.0
55,1436472361091,0.0
56,1436472361111,0.0
57,1436472361140,0.0
58,1436472361152,0.0
59,1436472361180,0.0
60,1436472361193,0.0
61,1436472361212,0.0
62,1436472361232,0.0
63,1436472361252,0.0
64,1436472361275,0.0
65,1436472361296,0.0
66,1436472361312,0.0
67,1436472361332,0.0
68,1436472361356,0.0
69,1436472361375,0.0
70,1436472361395,0.0
71,1436472361416,0.0
72,1436472361432,0.0
73,1436472361455,0.0
74,1436472361475,0.0
75,1436472361495,0.0
76,1436472361516,0.0
77,1436472361532,0.0
78,1436472361555,0.0
79,1436472361573,0.0
80,1436472361592,0.0
81,1436472361612,0.0
82,1436472361635,0.0
83,1436472361658,0.0
84,1436472361704,0.0
85,1436472361705,0.0
86,1436472361712,0.0
87,1436472361733,0.0
88,1436472361755,0.0
89,1436472361775,0.0
90,1436472361873,0.0
91,1436472361874,0.0
92,1436472361875,0.0
93,1436472361876,0.0
94,1436472361877,0.0
95,1436472361893,0.0
96,1436472361912,0.0
97,1436472361932,0.0
98,1436472361952,0.0
99,1436472361972,0.0
100,1436472361992,0.0
101,1436472362021,0.0
102,1436472362032,0.0
103,1436472362060,0.0
104,1436472362074,0.0
105,1436472362094,0.0
106,1436472362115,0.0
107,1436472362134,0.0
108,1436472362154,0.0
109,1436472362173,0.0
110,1436472362196,0.0
111,1436472362214,0.0
112,1436472362236,0.0
113,1436472362254,0.0
114,1436472362277,0.0
115,1436472362296,0.0
116,1436472362316,0.0
117,1436472362336,0.0
118,1436472362353,0.0
119,1436472362377,0.0
120,1436472362397,0.0
121,1436472362415,0.0
122,1436472362436,0.0
123,1436472362454,0.0
124,1436472362473,0.0
125,1436472362493,0.0
126,1436472362518,0.0
127,1436472362538,0.0
128,1436472362560,0.0
129,1436472362579,0.0
130,1436472362593,0.0
131,1436472362613,0.0
132,1436472362664,0.0
133,1436472362665,0.0
134,1436472362676,0.0
135,1436472362694,0.0
136,1436472362743,0.0
137,1436472362744,0.0
138,1436472362768,0.0
139,1436472362774,0.0
140,1436472362793,0.0
141,1436472362814,0.0
142,1436472362833,0.0
143,1436472362853,0.0
144,1436472362873,0.0
145,1436472362907,0.0
146,1436472362913,0.0
147,1436472362933,0.0
148,1436472362953,0.0
149,1436472362973,0.0
150,1436472362993,0.0
151,1436472363015,0.0
152,1436472363034,0.0
153,1436472363052,0.0
154,1436472363073,0.0
155,1436472363094,0.0
156,1436472363114,0.0
157,1436472363134,0.0
158,1436472363156,0.0
159,1436472363174,0.0
160,1436472363198,0.0
161,1436472363213,0.0
162,1436472363236,0.0
163,1436472363258,0.0
164,1436472363275,0.0
165,1436472363296,0.0
166,1436472363318,0.0
167,1436472363338,0.0
168,1436472363354,0.0
169,1436472363375,0.0
170,1436472363396,0.0
171,1436472363416,0.0
172,1436472363438,0.0
173,1436472363456,0.0
174,1436472363476,0.0
175,1436472363496,0.0
176,1436472363516,0.0
177,1436472363538,0.0
178,1436472363556,0.0
179,1436472363576,0.0
180,1436472363595,0.0
181,1436472363621,0.0
182,1436472363675,0.0
183,1436472363676,0.0
184,1436472363678,0.0
185,1436472363694,0.0
186,1436472363714,0.0
187,1436472363734,0.0
188,1436472363754,0.0
189,1436472363781,0.0
190,1436472363796,0.0
191,1436472363817,0.0
192,1436472363840,0.0
193,1436472363854,0.0
194,1436472363882,0.0
195,1436472363896,0.0
196,1436472363915,0.0
197,1436472363937,0.0
198,1436472363955,0.0
199,1436472363976,0.0
200,1436472363995,0.0
201,1436472364017,0.0
202,1436472364038,0.0
203,1436472364058,0.0
204,1436472364075,0.0
205,1436472364096,0.0
206,1436472364118,0.0
207,1436472364138,0.0
208,1436472364158,0.0
209,1436472364178,0.0
210,1436472364196,0.0
211,1436472364218,0.0
212,1436472364236,0.0
213,1436472364257,0.0
214,1436472364278,0.0
215,1436472364295,0.0
216,1436472364317,0.0
217,1436472364337,0.0
218,1436472364357,0.0
219,1436472364377,0.0
220,1436472364396,0.0
221,1436472364417,0.0
222,1436472364436,0.0
223,1436472364456,0.0
224,1436472364483,0.0
225,1436472364542,0.0
226,1436472364543,0.0
227,1436472364544,0.0
228,1436472364555,0.0
229,1436472364575,0.0
230,1436472364595,0.0
231,1436472364615,0.0
232,1436472364646,0.0
233,1436472364655,0.0
234,1436472364680,0.0
235,1436472364696,0.0
236,1436472364717,0.0
237,1436472364736,0.0
238,1436472364758,0.0
239,1436472364776,0.0
240,1436472364801,0.0
241,1436472364815,0.0
242,1436472364836,0.0
243,1436472364856,0.0
244,1436472364877,0.0
245,1436472364898,0.0
246,1436472364915,0.0
247,1436472364937,0.0
248,1436472364958,0.0
249,1436472364977,0.0
250,1436472364997,0.0
251,1436472365015,0.0
252,1436472365037,0.0
253,1436472365059,0.0
254,1436472365076,0.0
255,1436472365096,0.0
256,1436472365117,0.0
257,1436472365135,0.0
258,1436472365161,0.0
259,1436472365176,0.0
260,1436472365196,0.0
261,1436472365223,0.0
262,1436472365235,0.0
263,1436472365256,0.0
264,1436472365277,0.0
265,1436472365296,0.0
266,1436472365319,0.0
267,1436472365371,0.0
268,1436472365374,0.0
269,1436472365378,0.0
270,1436472365395,0.0
271,1436472365415,0.0
272,1436472365435,0.0
273,1436472365455,0.0
274,1436472365476,0.0
275,1436472365495,0.0
276,1436472365526,0.0
277,1436472365536,0.0
278,1436472365563,0.0
279,1436472365576,0.0
280,1436472365596,0.0
281,1436472365617,0.0
282,1436472365636,0.0
283,1436472365657,0.0
284,1436472365677,0.0
285,1436472365697,0.0
286,1436472365717,0.0
287,1436472365736,0.0
288,1436472365760,0.0
289,1436472365779,0.0
290,1436472365797,0.0
291,1436472365820,0.0
292,1436472365839,0.0
293,1436472365856,0.0
294,1436472365879,0.0
295,1436472365896,0.0
296,1436472365918,0.0
297,1436472365940,0.0
298,1436472365958,0.0
299,1436472365979,0.0
300,1436472365997,0.0
301,1436472366019,0.0
302,1436472366041,0.0
303,1436472366059,0.0
304,1436472366078,0.0
305,1436472366097,0.0
306,1436472366119,0.0
307,1436472366138,0.0
308,1436472366157,0.0
309,1436472366222,0.0
310,1436472366223,0.0
311,1436472366224,0.0
312,1436472366236,0.0
313,1436472366256,0.0
314,1436472366276,0.0
315,1436472366296,0.0
316,1436472366316,0.0
317,1436472366336,0.0
318,1436472366356,0.0
319,1436472366382,0.0
320,1436472366397,0.0
321,1436472366417,0.0
322,1436472366437,0.0
323,1436472366457,0.0
324,1436472366478,0.0
325,1436472366498,0.0
326,1436472366519,0.0
327,1436472366537,0.0
328,1436472366558,0.0
329,1436472366580,0.0
330,1436472366600,0.0
331,1436472366617,0.0
332,1436472366640,0.0
333,1436472366659,0.0
334,1436472366680,0.0
335,1436472366700,0.0
336,1436472366717,0.0
337,1436472366740,0.0
338,1436472366760,0.0
339,1436472366789,0.0
340,1436472366799,0.0
341,1436472366822,0.0
342,1436472366838,0.0
343,1436472366859,0.0
344,1436472366878,0.0
345,1436472366900,0.0
346,1436472366921,0.0
347,1436472366941,0.0
348,1436472366960,0.0
349,1436472366979,0.0
350,1436472366998,0.0
351,1436472367020,0.0
352,1436472367038,0.0
353,1436472367058,0.0
354,1436472367112,0.0
355,1436472367113,0.0
356,1436472367117,0.0
357,1436472367137,0.0
358,1436472367157,0.0
359,1436472367178,0.0
360,1436472367197,0.0
361,1436472367217,0.0
362,1436472367239,0.0
363,1436472367259,0.0
364,1436472367277,0.0
365,1436472367298,0.0
366,1436472367317,0.0
367,1436472367342,0.0
368,1436472367360,0.0
369,1436472367379,0.0
370,1436472367398,0.0
371,1436472367420,0.0
372,1436472367441,0.0
373,1436472367460,0.0
374,1436472367480,0.0
375,1436472367499,0.0
376,1436472367520,0.0
377,1436472367541,0.0
378,1436472367560,0.0
379,1436472367581,0.0
380,1436472367598,0.0
381,1436472367620,0.0
382,1436472367640,0.0
383,1436472367660,0.0
384,1436472367681,0.0
385,1436472367698,0.0
386,1436472367718,0.0
387,1436472367738,0.0
388,1436472367758,0.0
389,1436472367788,0.0
390,1436472367828,0.0
391,1436472367829,0.0
392,1436472367839,0.0
393,1436472367907,0.0
394,1436472367908,0.0
395,1436472367909,0.0
396,1436472367918,0.0
397,1436472367938,0.0
398,1436472367958,0.0
399,1436472367978,0.0
400,1436472367998,0.0
401,1436472368018,0.0
402,1436472368038,0.0
403,1436472368058,0.0
404,1436472368079,0.0
405,1436472368097,0.0
406,1436472368117,0.0
407,1436472368138,0.0
408,1436472368159,0.0
409,1436472368178,0.0
410,1436472368198,0.0
411,1436472368222,0.0
412,1436472368238,0.0
413,1436472368262,0.0
414,1436472368282,0.0
415,1436472368301,0.0
416,1436472368324,0.0
417,1436472368342,0.0
418,1436472368362,0.0
419,1436472368381,0.0
420,1436472368402,0.0
421,1436472368422,0.0
422,1436472368442,0.0
423,1436472368462,0.0
424,1436472368482,0.0
425,1436472368502,0.0
426,1436472368522,0.0
427,1436472368542,0.0
428,1436472368562,0.0
429,1436472368583,0.0
430,1436472368603,0.0
431,1436472368621,0.0
432,1436472368639,0.0
433,1436472368668,0.0
434,1436472368684,0.0
435,1436472368702,0.0
436,1436472368722,0.0
437,1436472368742,0.0
438,1436472368839,0.0
439,1436472368840,0.0
440,1436472368841,0.0
441,1436472368842,0.0
442,1436472368843,0.0
443,1436472368859,0.0
444,1436472368879,0.0
445,1436472368899,0.0
446,1436472368919,0.0
447,1436472368940,0.0
448,1436472368960,0.0
449,1436472368979,0.0
450,1436472369000,0.0
451,1436472369019,0.0
452,1436472369041,0.0
453,1436472369061,0.0
454,1436472369080,0.0
455,1436472369100,0.0
456,1436472369125,0.0
457,1436472369142,0.0
458,1436472369162,0.0
459,1436472369183,0.0
460,1436472369202,0.0
461,1436472369223,0.0
462,1436472369242,0.0
463,1436472369262,0.0
464,1436472369282,0.0
465,1436472369303,0.0
466,1436472369320,0.0
467,1436472369340,0.0
468,1436472369363,0.0
469,1436472369382,0.0
470,1436472369402,0.0
471,1436472369423,0.0
472,1436472369442,0.0
473,1436472369463,0.0
474,1436472369484,0.0
475,1436472369503,0.0
476,1436472369523,0.0
477,1436472369543,0.0
478,1436472369563,0.0
479,1436472369581,0.0
480,1436472369602,0.0
481,1436472369665,0.0
482,1436472369666,0.0
483,1436472369667,0.0
484,1436472369682,0.0
485,1436472369700,0.0
486,1436472369719,0.0
487,1436472369739,0.0
488,1436472369760,0.0
489,1436472369780,0.0
490,1436472369800,0.0
491,1436472369833,0.0
492,1436472369841,0.0
493,1436472369862,0.0
494,1436472369885,0.0
495,1436472369900,0.0
496,1436472369925,0.0
497,1436472369941,0.0
498,1436472369961,0.0
499,1436472369982,0.0
500,1436472370000,0.0
501,1436472370023,0.0
502,1436472370043,0.0
503,1436472370063,0.0
504,1436472370083,0.0
505,1436472370103,0.0
506,1436472370123,0.0
507,1436472370142,0.0
508,1436472370163,0.0
509,1436472370183,0.0
510,1436472370203,0.0
511,1436472370221,0.0
512,1436472370240,0.0
513,1436472370263,0.0
514,1436472370283,0.0
515,1436472370303,0.0
516,1436472370322,0.0
517,1436472370344,0.0
518,1436472370365,0.0
519,1436472370384,0.0
520,1436472370404,0.0
521,1436472370423,0.0
522,1436472370443,0.0
523,1436472370462,0.0
524,1436472370483,0.0
525,1436472370502,0.0
526,1436472370564,0.0
527,1436472370565,0.0
528,1436472370566,0.0
529,1436472370581,0.0
530,1436472370600,0.0
531,1436472370620,0.0
532,1436472370640,0.0
533,1436472370660,0.0
534,1436472370680,0.0
535,1436472370700,0.0
536,1436472370720,0.0
537,1436472370740,0.0
538,1436472370761,0.0
539,1436472370781,0.0
540,1436472370801,0.0
541,1436472370821,0.0
542,1436472370841,0.0
543,1436472370861,0.0
544,1436472370881,0.0
545,1436472370901,0.0
546,1436472370920,0.0
547,1436472370941,0.0
548,1436472370961,0.0
549,1436472370981,0.0
550,1436472371001,0.0
551,1436472371021,0.0
552,1436472371041,0.0
553,1436472371061,0.0
554,1436472371082,0.0
555,1436472371101,0.0
556,1436472371120,0.0
557,1436472371140,0.0
558,1436472371160,0.0
559,1436472371182,0.0
560,1436472371202,0.0
561,1436472371222,0.0
562,1436472371246,0.0
563,1436472371261,0.0
564,1436472371285,0.0
565,1436472371305,0.0
566,1436472371325,0.0
567,1436472371345,0.0
568,1436472371364,0.0
569,1436472371384,0.0
570,1436472371405,0.0
571,1436472371425,0.0
572,1436472371445,0.0
573,1436472371463,0.0
574,1436472371486,0.0
575,1436472371501,0.0
576,1436472371525,0.0
577,1436472371542,0.0
578,1436472371562,0.0
579,1436472371582,0.0
580,1436472371606,0.0
581,1436472371626,0.0
582,1436472371647,0.0
583,1436472371665,0.0
584,1436472371708,0.0
585,1436472371709,0.0
586,1436472371723,0.0
587,1436472371743,0.0
588,1436472371852,0.0
589,1436472371853,0.0
590,1436472371854,0.0
591,1436472371855,0.0
592,1436472371856,0.0
593,1436472371870,0.0
594,1436472371883,0.0
595,1436472371902,0.0
596,1436472371923,0.0
597,1436472371942,0.0
598,1436472371964,0.0
599,1436472371983,0.0
600,1436472372002,0.0
601,1436472372022,0.0
602,1436472372043,0.0
603,1436472372065,0.0
604,1436472372083,0.0
605,1436472372105,0.0
606,1436472372125,0.0
607,1436472372145,0.0
608,1436472372165,0.0
609,1436472372186,0.0
610,1436472372205,0.0
611,1436472372225,0.0
612,1436472372245,0.0
613,1436472372263,0.0
614,1436472372284,0.0
615,1436472372305,0.0
616,1436472372325,0.0
617,1436472372345,0.0
618,1436472372364,0.0
619,1436472372384,0.0
620,1436472372405,0.0
621,1436472372425,0.0
622,1436472372446,0.0
623,1436472372465,0.0
624,1436472372484,0.0
625,1436472372504,0.0
626,1436472372523,0.0
627,1436472372545,0.0
628,1436472372614,0.0
629,1436472372615,0.0
630,1436472372616,0.0
631,1436472372629,0.0
632,1436472372644,0.0
633,1436472372664,0.0
634,1436472372682,0.0
635,1436472372703,0.0
636,1436472372724,0.0
637,1436472372776,0.0
638,1436472372777,0.0
639,1436472372859,0.0
640,1436472372860,0.0
641,1436472372861,0.0
642,1436472372862,0.0
643,1436472372867,0.0
644,1436472372884,0.0
645,1436472372906,0.0
646,1436472372924,0.0
647,1436472372945,0.0
648,1436472372966,0.0
649,1436472372987,0.0
650,1436472373007,0.0
651,1436472373026,0.0
652,1436472373046,0.0
653,1436472373066,0.0
654,1436472373084,0.0
655,1436472373104,0.0
656,1436472373126,0.0
657,1436472373145,0.0
658,1436472373165,0.0
659,1436472373191,0.0
660,1436472373203,0.0
661,1436472373223,0.0
662,1436472373243,0.0
663,1436472373263,0.0
664,1436472373283,0.0
665,1436472373303,0.0
666,1436472373326,0.0
667,1436472373343,0.0
668,1436472373365,0.0
669,1436472373418,0.0
670,1436472373424,0.0
671,1436472373425,0.0
672,1436472373444,0.0
673,1436472373473,0.0
674,1436472373486,0.0
675,1436472373503,0.0
676,1436472373529,0.0
677,1436472373543,0.0
678,1436472373563,0.0
679,1436472373583,0.0
680,1436472373604,0.0
681,1436472373626,0.0
682,1436472373644,0.0
683,1436472373664,0.0
684,1436472373683,0.0
685,1436472373704,0.0
686,1436472373723,0.0
687,1436472373743,0.0
688,1436472373764,0.0
689,1436472373783,0.0
690,1436472373806,0.0
691,1436472373823,0.0
692,1436472373844,0.0
693,1436472373864,0.0
694,1436472373884,0.0
695,1436472373906,0.0
696,1436472373926,0.0
697,1436472373946,0.0
698,1436472373966,0.0
699,1436472373987,0.0
700,1436472374006,0.0
701,1436472374027,0.0
702,1436472374043,0.0
703,1436472374064,0.0
704,1436472374103,0.0
705,1436472374104,0.0
706,1436472374126,0.0
707,1436472374144,0.0
708,1436472374164,0.0
709,1436472374186,0.0
710,1436472374205,0.0
711,1436472374224,0.0
712,1436472374252,0.0
713,1436472374263,0.0
714,1436472374283,0.0
715,1436472374304,0.0
716,1436472374325,0.0
717,1436472374344,0.0
718,1436472374364,0.0
719,1436472374384,0.0
720,1436472374404,0.0
721,1436472374426,0.0
722,1436472374444,0.0
723,1436472374464,0.0
724,1436472374484,0.0
725,1436472374504,0.0
726,1436472374524,0.0
727,1436472374544,0.0
728,1436472374564,0.0
729,1436472374584,0.0
730,1436472374604,0.0
731,1436472374624,0.0
732,1436472374646,0.0
733,1436472374665,0.0
734,1436472374684,0.0
735,1436472374706,0.0
736,1436472374733,0.0
737,1436472374748,0.0
738,1436472374764,0.0
739,1436472374784,0.0
740,1436472374805,0.0
741,1436472374826,0.0
742,1436472374845,0.0
743,1436472374864,0.0
744,1436472374887,0.0
745,1436472374908,0.0
746,1436472374927,0.0
747,1436472374946,0.0
748,1436472374968,0.0
749,1436472374984,0.0
750,1436472375005,0.0
751,1436472375026,0.0
752,1436472375046,0.0
753,1436472375066,0.0
754,1436472375085,0.0
755,1436472375107,0.0
756,1436472375127,0.0
757,1436472375146,0.0
758,1436472375167,0.0
759,1436472375187,0.0
760,1436472375206,0.0
761,1436472375226,0.0
762,1436472375246,0.0
763,1436472375265,0.0
764,1436472375286,0.0
765,1436472375307,0.0
766,1436472375326,0.0
767,1436472375351,0.0
768,1436472375425,0.0
769,1436472375426,0.0
770,1436472375427,0.0
771,1436472375428,0.0
772,1436472375446,0.0
773,1436472375468,0.0
774,1436472375485,0.0
775,1436472375505,0.0
776,1436472375526,0.0
777,1436472375547,0.0
778,1436472375566,0.0
779,1436472375586,0.0
780,1436472375608,0.0
781,1436472375627,0.0
782,1436472375647,0.0
783,1436472375668,0.0
784,1436472375687,0.0
785,1436472375708,0.0
786,1436472375728,0.0
787,1436472375747,0.0
788,1436472375766,0.0
789,1436472375788,0.0
790,1436472375807,0.0
791,1436472375827,0.0
792,1436472375846,0.0
793,1436472375869,0.0
794,1436472375887,0.0
795,1436472375907,0.0
796,1436472375927,0.0
797,1436472375946,0.0
798,1436472375967,0.0
799,1436472375987,0.0
800,1436472376007,0.0
801,1436472376028,0.0
802,1436472376046,0.0
803,1436472376067,0.0
804,1436472376089,0.0
805,1436472376139,0.0
806,1436472376140,0.0
807,1436472376146,0.0
808,1436472376166,0.0
809,1436472376190,0.0
810,1436472376207,0.0
811,1436472376226,0.0
812,1436472376247,0.0
813,1436472376267,0.0
814,1436472376286,0.0
815,1436472376309,0.0
816,1436472376327,0.0
817,1436472376346,0.0
818,1436472376367,0.0
819,1436472376387,0.0
820,1436472376408,0.0
821,1436472376428,0.0
822,1436472376448,0.0
823,1436472376467,0.0
824,1436472376487,0.0
825,1436472376509,0.0
826,1436472376529,0.0
827,1436472376551,0.0
828,1436472376569,0.0
829,1436472376587,0.0
830,1436472376607,0.0
831,1436472376632,0.0
832,1436472376647,0.0
833,1436472376667,0.0
834,1436472376687,0.0
835,1436472376706,0.0
836,1436472376733,0.0
837,1436472376747,0.0
838,1436472376767,0.0
839,1436472376789,0.0
840,1436472376901,0.0
841,1436472376902,0.0
842,1436472376903,0.0
843,1436472376904,0.0
844,1436472376905,0.0
845,1436472376916,0.0
846,1436472376944,0.0
847,1436472376948,0.0
848,1436472376966,0.0
849,1436472376992,0.0
850,1436472377006,0.0
851,1436472377028,0.0
852,1436472377049,0.0
853,1436472377067,0.0
854,1436472377087,0.0
855,1436472377109,0.0
856,1436472377127,0.0
857,1436472377149,0.0
858,1436472377168,0.0
859,1436472377187,0.0
860,1436472377207,0.0
861,1436472377227,0.0
862,1436472377249,0.0
863,1436472377275,0.0
864,1436472377287,0.0
865,1436472377309,0.0
866,1436472377329,0.0
867,1436472377349,0.0
868,1436472377370,0.0
869,1436472377389,0.0
870,1436472377409,0.0
871,1436472377430,0.0
872,1436472377449,0.0
873,1436472377472,0.0
874,1436472377489,0.0
875,1436472377510,0.0
876,1436472377530,0.0
877,1436472377551,0.0
878,1436472377610,0.0
879,1436472377611,0.0
880,1436472377612,0.0
881,1436472377631,0.0
882,1436472377657,0.0
883,1436472377669,0.0
884,1436472377687,0.0
885,1436472377708,0.0
886,1436472377727,0.0
887,1436472377749,0.0
888,1436472377774,0.0
889,1436472377789,0.0
890,1436472377815,0.0
891,1436472377836,0.0
892,1436472377855,0.0
893,1436472377903,0.0
894,1436472377908,0.0
895,1436472377909,0.0
896,1436472377927,0.0
897,1436472377949,0.0
898,1436472377970,0.0
899,1436472377988,0.0
900,1436472378008,0.0
901,1436472378030,0.0
902,1436472378050,0.0
903,1436472378070,0.0
904,1436472378090,0.0
905,1436472378109,0.0
906,1436472378131,0.0
907,1436472378151,0.0
908,1436472378172,0.0
909,1436472378188,0.0
910,1436472378209,0.0
911,1436472378243,0.0
912,1436472378252,0.0
