id,attr_time,attr_x,attr_y,attr_z
1,1436547648058,6.112,-41.319,21.347
2,1436547648059,6.112,-41.319,21.347
3,1436547648060,6.112,-41.319,21.347
4,1436547648061,6.112,-41.319,21.347
5,1436547648078,6.112,-41.319,21.347
6,1436547648104,6.112,-41.319,21.347
7,1436547648118,6.112,-41.319,21.347
8,1436547648140,6.112,-41.319,21.347
9,1436547648158,6.112,-41.319,21.347
10,1436547648177,6.112,-41.319,21.347
11,1436547648198,6.112,-41.319,21.347
12,1436547648220,6.112,-41.319,21.347
13,1436547648238,6.112,-41.319,21.347
14,1436547648258,6.112,-41.319,21.347
15,1436547648278,6.112,-41.319,21.347
16,1436547648298,6.112,-41.319,21.347
17,1436547648317,6.112,-41.319,21.347
18,1436547648339,6.112,-41.319,21.347
19,1436547648358,6.112,-41.319,21.347
20,1436547648378,6.112,-41.319,21.347
21,1436547648397,6.112,-41.319,21.347
22,1436547648417,6.112,-41.319,21.347
23,1436547648438,6.112,-41.319,21.347
24,1436547648461,6.112,-41.319,21.347
25,1436547648478,6.112,-41.319,21.347
26,1436547648502,6.112,-41.319,21.347
27,1436547648517,6.112,-41.319,21.347
28,1436547648546,6.112,-41.319,21.347
29,1436547648583,6.112,-41.319,21.347
30,1436547648584,6.112,-41.319,21.347
31,1436547648597,6.112,-41.319,21.347
32,1436547648617,6.112,-41.319,21.347
33,1436547648637,6.112,-41.319,21.347
34,1436547648663,6.112,-41.319,21.347
35,1436547648677,6.112,-41.319,21.347
36,1436547648700,6.112,-41.319,21.347
37,1436547648720,6.112,-41.319,21.347
38,1436547648746,6.112,-41.319,21.347
39,1436547648777,6.112,-41.319,21.347
40,1436547648778,6.112,-41.319,21.347
41,1436547648799,6.112,-41.319,21.347
42,1436547648818,6.112,-41.319,21.347
43,1436547648837,6.112,-41.319,21.347
44,1436547648858,6.112,-41.319,21.347
45,1436547648879,6.112,-41.319,21.347
46,1436547648898,6.112,-41.319,21.347
47,1436547648918,6.112,-41.319,21.347
48,1436547648937,6.112,-41.319,21.347
49,1436547648958,6.112,-41.319,21.347
50,1436547648978,6.112,-41.319,21.046
51,1436547648998,6.112,-41.319,21.046
52,1436547649018,6.112,-41.319,21.046
53,1436547649039,6.112,-41.319,21.046
54,1436547649058,6.112,-41.319,21.046
55,1436547649078,6.112,-41.319,21.046
56,1436547649097,6.112,-41.319,21.046
57,1436547649118,6.112,-41.319,21.046
58,1436547649137,6.112,-41.319,21.046
59,1436547649157,6.112,-41.319,21.046
60,1436547649178,6.112,-41.319,21.046
61,1436547649199,6.112,-41.319,21.046
62,1436547649218,6.112,-41.319,21.046
63,1436547649238,6.112,-41.319,21.046
64,1436547649258,6.112,-41.319,21.046
65,1436547649278,6.112,-41.319,21.046
66,1436547649298,6.112,-41.319,21.046
67,1436547649317,6.112,-41.319,21.046
68,1436547649339,6.112,-41.319,21.046
69,1436547649359,6.112,-41.319,21.046
70,1436547649378,6.112,-41.319,21.046
71,1436547649398,6.112,-41.319,21.046
72,1436547649417,6.112,-41.319,21.046
73,1436547649438,6.112,-41.319,21.046
74,1436547649457,6.112,-41.319,21.046
75,1436547649477,6.112,-41.319,21.046
76,1436547649497,6.112,-41.319,21.046
77,1436547649518,6.112,-41.319,21.046
78,1436547649539,6.112,-41.319,21.046
79,1436547649558,5.798,-41.319,21.046
80,1436547649578,5.798,-41.319,21.046
81,1436547649602,5.798,-41.319,21.046
82,1436547649618,5.798,-41.319,21.046
83,1436547649639,5.798,-41.319,21.046
84,1436547649661,5.798,-41.319,21.046
85,1436547649682,5.798,-41.319,21.046
86,1436547649700,5.798,-41.319,21.046
87,1436547649719,5.798,-41.319,21.046
88,1436547649738,5.798,-41.319,21.046
89,1436547649759,5.798,-41.319,21.046
90,1436547649785,5.798,-41.319,21.046
91,1436547649799,5.798,-41.319,21.046
92,1436547649819,5.798,-41.319,21.046
93,1436547649839,5.798,-41.319,21.046
94,1436547649860,5.798,-41.319,21.046
95,1436547649881,5.798,-41.319,21.046
96,1436547649898,5.798,-41.319,21.046
97,1436547649920,5.798,-41.319,21.046
98,1436547649941,5.798,-41.319,21.046
99,1436547649972,5.798,-41.319,21.046
100,1436547649989,5.798,-41.319,21.046
101,1436547649998,5.798,-41.319,21.046
102,1436547650019,5.798,-41.319,21.046
103,1436547650056,5.798,-41.319,21.046
104,1436547650140,5.798,-41.319,21.046
105,1436547650141,5.798,-41.319,21.046
106,1436547650142,5.798,-41.319,21.046
107,1436547650143,5.798,-41.319,21.046
108,1436547650144,5.798,-41.319,21.046
109,1436547650161,5.798,-41.319,21.046
110,1436547650183,5.798,-41.319,21.046
111,1436547650199,5.798,-41.319,21.046
112,1436547650219,5.798,-41.319,21.046
113,1436547650240,5.798,-41.319,21.046
114,1436547650260,5.798,-41.319,21.046
115,1436547650280,5.798,-41.319,21.046
116,1436547650300,5.798,-41.319,21.046
117,1436547650319,5.798,-41.319,21.046
118,1436547650341,5.798,-41.319,21.046
119,1436547650359,5.798,-41.319,21.046
120,1436547650379,5.798,-41.319,21.046
121,1436547650400,5.798,-41.319,21.046
122,1436547650421,5.798,-41.319,20.73
123,1436547650442,5.798,-41.319,20.73
124,1436547650463,5.798,-41.319,20.73
125,1436547650481,5.798,-41.319,20.73
126,1436547650500,5.798,-41.319,20.73
127,1436547650521,5.798,-41.319,20.73
128,1436547650540,5.798,-41.319,20.73
129,1436547650560,5.798,-41.319,20.73
130,1436547650582,5.798,-41.319,20.73
131,1436547650600,5.798,-41.319,20.73
132,1436547650625,5.798,-41.319,20.73
133,1436547650640,5.798,-41.319,20.73
134,1436547650666,5.798,-41.319,20.73
135,1436547650685,5.798,-41.319,20.73
136,1436547650701,5.798,-41.319,20.73
137,1436547650720,5.798,-41.319,20.73
138,1436547650739,5.798,-41.319,20.73
139,1436547650760,5.798,-41.319,20.73
140,1436547650780,5.798,-41.319,20.42
141,1436547650802,5.798,-41.319,20.42
142,1436547650851,5.798,-41.319,20.42
143,1436547650866,5.798,-41.319,20.42
144,1436547650867,5.798,-41.319,20.42
145,1436547650879,5.798,-41.319,20.42
146,1436547650906,5.798,-41.319,20.42
147,1436547650922,5.798,-41.319,20.42
148,1436547650942,5.798,-41.319,20.42
149,1436547650964,5.798,-41.319,20.42
150,1436547650981,5.798,-41.319,20.42
151,1436547651001,5.798,-41.319,20.42
152,1436547651021,5.798,-41.319,20.42
153,1436547651040,5.798,-41.319,20.42
154,1436547651064,5.798,-41.319,20.42
155,1436547651082,5.798,-41.319,20.42
156,1436547651100,5.798,-41.319,20.42
157,1436547651121,5.798,-41.319,20.42
158,1436547651142,5.798,-41.319,20.42
159,1436547651163,5.798,-41.319,20.42
160,1436547651182,5.798,-41.319,20.42
161,1436547651203,5.798,-41.319,20.42
162,1436547651222,5.798,-41.319,20.42
163,1436547651243,5.798,-41.319,20.42
164,1436547651262,5.798,-41.319,20.42
165,1436547651285,5.798,-41.319,20.42
166,1436547651303,5.798,-41.319,20.42
167,1436547651324,5.798,-41.319,20.42
168,1436547651340,5.798,-41.319,20.42
169,1436547651360,5.798,-41.319,20.42
170,1436547651383,5.798,-41.319,20.42
171,1436547651401,5.798,-41.319,20.42
172,1436547651420,5.798,-41.319,20.42
173,1436547651440,5.798,-41.319,20.42
174,1436547651461,5.798,-41.319,20.42
175,1436547651485,5.798,-41.319,20.42
176,1436547651506,5.798,-41.319,20.42
177,1436547651523,5.798,-41.319,20.42
178,1436547651543,5.798,-41.319,20.42
179,1436547651655,5.798,-41.319,20.42
180,1436547651656,5.798,-41.319,20.768
181,1436547651673,5.798,-41.319,20.768
182,1436547651674,5.798,-41.319,20.768
183,1436547651675,5.798,-41.319,20.768
184,1436547651676,5.798,-41.319,20.768
185,1436547651687,5.798,-41.319,20.768
186,1436547651700,5.798,-41.319,20.768
187,1436547651720,5.798,-41.319,20.768
188,1436547651740,5.798,-41.319,20.768
189,1436547651760,5.798,-41.319,20.768
190,1436547651796,5.798,-41.319,20.768
191,1436547651800,5.798,-41.319,20.768
192,1436547651823,5.798,-41.319,20.768
193,1436547651843,5.798,-41.319,20.768
194,1436547651862,5.798,-41.319,20.768
195,1436547651880,5.798,-41.319,20.768
196,1436547651902,5.798,-41.319,20.768
197,1436547651924,5.798,-41.319,20.768
198,1436547651943,5.798,-41.319,20.768
199,1436547651964,5.798,-41.319,20.768
200,1436547651983,5.798,-41.319,20.768
201,1436547652005,5.798,-41.319,20.768
202,1436547652023,5.798,-41.319,20.768
203,1436547652042,5.798,-41.319,20.768
204,1436547652080,5.798,-41.319,20.768
205,1436547652093,5.798,-41.319,21.105
206,1436547652102,5.798,-41.319,21.105
207,1436547652122,5.798,-41.319,21.105
208,1436547652142,5.798,-41.319,21.105
209,1436547652160,5.798,-41.319,21.105
210,1436547652187,5.798,-41.319,21.105
211,1436547652203,5.798,-41.319,21.105
212,1436547652222,5.798,-41.319,21.105
213,1436547652241,5.798,-41.319,21.105
214,1436547652260,5.798,-41.319,21.105
215,1436547652281,5.798,-41.319,21.105
216,1436547652301,5.798,-41.319,21.105
217,1436547652321,5.798,-41.319,21.105
218,1436547652341,5.798,-41.319,21.105
219,1436547652379,5.798,-41.319,21.105
220,1436547652387,5.798,-41.319,21.105
221,1436547652403,5.798,-41.319,21.105
222,1436547652422,5.798,-41.319,21.105
223,1436547652441,5.798,-41.319,21.105
224,1436547652464,5.798,-41.319,21.105
225,1436547652481,5.798,-41.319,21.408
226,1436547652514,5.798,-41.319,21.408
227,1436547652521,5.798,-41.319,21.408
228,1436547652541,5.798,-41.319,21.408
229,1436547652573,5.798,-41.319,21.72
230,1436547652583,5.798,-41.319,21.72
231,1436547652601,5.484,-41.009,21.72
232,1436547652624,5.484,-41.009,21.72
233,1436547652641,5.484,-41.009,22.108
234,1436547652665,5.484,-41.009,22.108
235,1436547652682,5.484,-41.009,22.108
236,1436547652702,5.484,-41.009,22.482
237,1436547652721,5.484,-40.646,22.482
238,1436547652744,5.484,-40.646,22.482
239,1436547652764,5.484,-40.646,22.888
240,1436547652785,5.484,-40.646,22.888
241,1436547652802,5.484,-40.283,22.888
242,1436547652824,5.484,-40.283,23.333
243,1436547652844,5.886,-40.283,23.333
244,1436547652866,5.886,-40.283,23.333
245,1436547652883,5.886,-39.915,23.704
246,1436547652903,6.272,-39.915,23.704
247,1436547652921,6.272,-39.915,23.704
248,1436547652943,6.272,-39.915,23.704
249,1436547652964,6.68,-39.915,23.704
250,1436547652983,6.68,-39.61,23.704
251,1436547653003,6.988,-39.61,23.704
252,1436547653023,6.988,-39.61,23.704
253,1436547653045,6.988,-39.61,23.704
254,1436547653064,7.415,-39.61,23.704
255,1436547653135,7.415,-39.61,23.704
256,1436547653136,7.415,-39.61,23.704
257,1436547653137,7.415,-39.61,23.704
258,1436547653145,7.415,-39.61,23.332
259,1436547653164,7.746,-39.61,22.933
260,1436547653186,7.746,-39.61,22.933
261,1436547653201,7.746,-39.944,22.933
262,1436547653222,7.746,-39.944,22.52
263,1436547653243,7.746,-39.944,22.52
264,1436547653263,7.746,-39.944,22.52
265,1436547653283,7.746,-40.278,22.146
266,1436547653303,7.746,-40.278,22.146
267,1436547653322,7.746,-40.278,22.146
268,1436547653342,7.746,-40.278,21.736
269,1436547653365,7.746,-40.596,21.736
270,1436547653384,7.746,-40.596,21.736
271,1436547653405,7.746,-40.596,21.331
272,1436547653425,7.746,-40.596,21.331
273,1436547653446,7.746,-40.596,21.331
274,1436547653465,7.746,-40.917,21.331
275,1436547653484,7.746,-40.917,21.331
276,1436547653503,7.746,-40.917,21.331
277,1436547653522,7.746,-40.917,21.331
278,1436547653543,7.746,-40.917,21.331
279,1436547653567,7.746,-40.917,21.331
280,1436547653586,7.415,-40.917,21.331
281,1436547653609,7.415,-40.917,21.331
282,1436547653626,7.415,-40.917,21.331
283,1436547653655,7.415,-40.917,21.331
284,1436547653666,7.077,-40.917,21.331
285,1436547653747,7.077,-40.917,21.331
286,1436547653748,7.077,-40.917,21.331
287,1436547653749,7.077,-40.917,21.331
288,1436547653750,6.752,-40.917,21.676
289,1436547653767,6.752,-40.917,21.676
290,1436547653783,6.752,-40.917,21.676
291,1436547653803,6.752,-40.917,21.676
292,1436547653855,6.384,-40.917,22.01
293,1436547653856,6.384,-40.917,22.01
294,1436547653868,6.384,-40.917,22.01
295,1436547653883,6.384,-40.917,22.01
296,1436547653903,6.384,-40.917,22.01
297,1436547654074,6.384,-40.917,22.01
298,1436547654075,6.069,-40.917,22.01
299,1436547654076,6.069,-40.917,22.01
300,1436547654077,6.069,-40.917,22.01
301,1436547654078,6.069,-40.917,22.01
302,1436547654079,6.069,-40.917,21.626
303,1436547654080,6.069,-40.917,21.626
304,1436547654081,6.069,-40.917,21.626
305,1436547654091,6.069,-40.917,21.112
306,1436547654109,6.069,-40.917,21.112
307,1436547654123,6.069,-41.23,21.112
308,1436547654142,6.069,-41.23,20.782
309,1436547654164,6.069,-41.23,20.782
310,1436547654186,6.069,-41.23,20.782
311,1436547654206,6.069,-41.23,20.46
312,1436547654227,6.069,-41.23,20.46
313,1436547654243,6.069,-41.596,20.46
314,1436547654265,6.069,-41.596,20.12
315,1436547654283,6.069,-41.596,20.12
316,1436547654302,6.069,-41.596,20.12
317,1436547654323,6.069,-41.596,20.12
318,1436547654346,6.069,-41.596,20.12
319,1436547654364,6.069,-41.596,20.12
320,1436547654384,6.069,-41.596,20.12
321,1436547654403,6.069,-41.596,20.12
322,1436547654425,6.069,-41.596,20.12
323,1436547654444,6.069,-41.596,20.12
324,1436547654463,6.069,-41.596,20.12
325,1436547654483,6.069,-41.596,20.12
326,1436547654505,6.069,-41.596,20.12
327,1436547654527,6.069,-41.596,20.12
328,1436547654542,6.069,-41.596,20.12
329,1436547654563,6.069,-41.596,19.813
330,1436547654582,6.069,-41.596,19.813
331,1436547654605,6.069,-41.596,19.813
332,1436547654623,6.069,-41.596,19.813
333,1436547654644,6.069,-41.596,19.813
334,1436547654664,6.069,-41.596,19.813
335,1436547654686,6.069,-41.596,19.813
336,1436547654704,6.442,-41.596,19.813
337,1436547654723,6.442,-41.596,19.813
338,1436547654743,6.442,-41.596,19.813
339,1436547654766,6.442,-41.596,19.813
340,1436547654786,6.761,-41.596,19.813
341,1436547654806,6.761,-41.596,19.813
342,1436547654827,6.761,-41.596,19.813
343,1436547654846,6.761,-41.596,19.813
344,1436547654865,6.761,-41.596,19.813
345,1436547654886,7.106,-41.596,19.813
346,1436547654904,7.106,-41.596,19.813
347,1436547654924,7.106,-41.596,20.118
348,1436547654945,7.106,-41.596,20.118
349,1436547654965,7.106,-41.596,20.118
350,1436547654987,7.106,-41.596,20.118
351,1436547655007,7.106,-41.596,20.118
352,1436547655028,7.427,-41.291,20.118
353,1436547655047,7.427,-41.291,20.429
354,1436547655066,7.427,-41.291,20.429
355,1436547655085,7.427,-41.291,20.429
356,1436547655106,7.427,-41.291,20.429
357,1436547655132,7.427,-41.291,20.429
358,1436547655192,7.427,-41.291,20.429
359,1436547655206,7.427,-41.291,20.429
360,1436547655207,7.427,-41.291,20.429
361,1436547655208,7.427,-41.291,20.751
362,1436547655224,7.427,-41.291,20.751
363,1436547655249,7.427,-41.291,20.751
364,1436547655265,7.427,-40.974,20.751
365,1436547655284,7.427,-40.974,20.751
366,1436547655306,7.427,-40.974,20.751
367,1436547655327,7.427,-40.974,20.751
368,1436547655349,7.427,-40.974,21.075
369,1436547655371,7.427,-40.974,21.075
370,1436547655385,7.427,-40.974,21.075
371,1436547655404,7.427,-40.974,21.075
372,1436547655424,7.427,-40.974,21.075
373,1436547655444,7.427,-40.974,21.075
374,1436547655466,7.427,-40.974,21.075
375,1436547655486,7.427,-40.974,21.075
376,1436547655507,7.427,-40.974,21.075
377,1436547655527,7.427,-40.974,21.075
378,1436547655548,7.427,-40.974,21.075
379,1436547655568,7.427,-40.974,21.075
380,1436547655588,7.427,-40.974,21.075
381,1436547655604,7.427,-40.974,21.075
382,1436547655625,7.427,-40.974,21.075
383,1436547655644,7.427,-40.974,21.075
384,1436547655664,7.427,-40.974,21.075
385,1436547655686,7.427,-40.974,21.075
386,1436547655708,7.427,-40.974,21.075
387,1436547655728,7.427,-40.974,21.075
388,1436547655776,7.427,-40.974,21.075
389,1436547655777,7.427,-40.974,21.075
390,1436547655786,7.745,-40.974,21.075
391,1436547655807,7.745,-40.974,21.075
392,1436547655825,7.745,-40.974,20.77
393,1436547655846,7.745,-40.974,20.77
394,1436547655864,7.745,-40.974,20.77
395,1436547655930,7.745,-40.974,20.77
396,1436547655931,7.745,-40.974,20.77
397,1436547655932,7.745,-40.974,20.77
398,1436547655954,7.745,-40.974,20.77
399,1436547655965,7.745,-40.974,20.77
400,1436547655987,7.745,-40.974,20.77
401,1436547656005,7.745,-40.974,20.77
402,1436547656024,7.745,-40.974,20.77
403,1436547656046,7.745,-40.974,20.77
404,1436547656066,7.745,-40.974,20.77
405,1436547656086,7.745,-40.974,20.77
406,1436547656108,7.745,-40.974,20.77
407,1436547656125,7.745,-40.974,20.77
408,1436547656145,7.745,-40.974,20.77
409,1436547656167,7.745,-40.974,20.77
410,1436547656188,7.745,-40.974,20.77
411,1436547656208,7.745,-40.974,20.77
412,1436547656228,7.745,-40.974,20.77
413,1436547656247,7.435,-40.974,20.77
414,1436547656266,7.435,-40.974,20.77
415,1436547656286,7.435,-40.974,20.77
416,1436547656305,7.435,-40.974,21.075
417,1436547656325,7.435,-40.974,21.075
418,1436547656346,7.435,-40.974,21.075
419,1436547656365,7.435,-40.974,21.075
420,1436547656385,7.435,-40.974,21.075
421,1436547656405,7.435,-40.974,21.075
422,1436547656427,7.435,-40.974,21.075
423,1436547656450,7.435,-40.974,21.075
424,1436547656466,7.435,-40.974,21.075
425,1436547656486,7.435,-40.974,21.075
426,1436547656505,7.435,-40.974,21.075
427,1436547656525,7.435,-40.974,21.075
428,1436547656545,7.435,-40.974,21.075
429,1436547656566,7.435,-40.974,21.075
430,1436547656586,7.435,-40.974,21.075
431,1436547656608,7.122,-40.974,21.075
432,1436547656658,7.122,-40.974,21.075
433,1436547656659,7.122,-40.974,21.075
434,1436547656677,7.122,-40.974,21.075
435,1436547656686,7.122,-40.974,21.075
436,1436547656705,7.122,-40.974,21.075
437,1436547656728,7.122,-40.974,21.075
438,1436547656745,7.122,-40.974,21.075
439,1436547656765,7.122,-40.974,20.729
440,1436547656787,6.816,-40.974,20.729
441,1436547656805,6.816,-40.974,20.729
442,1436547656828,6.816,-40.974,20.729
443,1436547656847,6.816,-41.288,20.729
444,1436547656870,6.816,-41.288,20.729
445,1436547656888,6.816,-41.288,20.729
446,1436547656907,6.816,-41.288,20.729
447,1436547656926,6.477,-41.288,20.729
448,1436547656945,6.477,-41.288,20.729
449,1436547656965,6.477,-41.288,20.729
450,1436547656986,6.477,-41.288,20.729
451,1436547657007,6.477,-41.288,20.729
452,1436547657027,6.477,-41.288,20.729
453,1436547657048,6.477,-41.288,20.729
454,1436547657070,6.477,-41.288,20.729
455,1436547657087,6.477,-41.288,20.729
456,1436547657108,6.477,-41.288,20.729
457,1436547657126,6.477,-41.593,20.729
458,1436547657146,6.477,-41.593,20.729
459,1436547657166,6.477,-41.593,20.729
460,1436547657189,6.477,-41.593,20.729
461,1436547657210,6.477,-41.593,20.729
462,1436547657232,6.153,-41.593,20.729
463,1436547657249,6.153,-41.593,20.729
464,1436547657266,6.153,-41.593,20.729
465,1436547657286,6.153,-41.593,20.729
466,1436547657306,6.153,-41.593,20.729
467,1436547657326,6.153,-41.593,20.729
468,1436547657380,6.153,-41.593,20.729
469,1436547657381,6.153,-41.593,20.729
470,1436547657399,6.153,-41.593,20.729
471,1436547657407,6.153,-41.593,20.729
472,1436547657426,6.153,-41.593,20.729
473,1436547657446,6.153,-41.593,20.729
474,1436547657474,6.153,-41.593,20.729
475,1436547657486,6.153,-41.593,20.729
476,1436547657518,6.153,-41.593,20.729
477,1436547657527,6.153,-41.593,20.729
478,1436547657548,6.153,-41.593,20.729
479,1436547657567,6.153,-41.593,20.729
480,1436547657589,6.153,-41.593,20.729
481,1436547657609,6.153,-41.593,20.729
482,1436547657627,6.153,-41.593,20.729
483,1436547657646,6.153,-41.593,20.729
484,1436547657666,6.153,-41.593,20.729
485,1436547657686,6.153,-41.593,20.729
486,1436547657707,6.153,-41.593,20.729
487,1436547657728,6.153,-41.593,20.729
488,1436547657748,6.153,-41.593,20.729
489,1436547657767,6.153,-41.593,20.729
490,1436547657789,6.153,-41.593,20.729
491,1436547657810,6.153,-41.593,20.729
492,1436547657827,6.153,-41.593,20.729
493,1436547657847,6.153,-41.593,20.729
494,1436547657869,6.153,-41.593,20.729
495,1436547657888,6.153,-41.593,20.729
496,1436547657908,6.153,-41.593,20.729
497,1436547657928,6.153,-41.593,21.049
498,1436547657947,5.851,-41.593,21.049
499,1436547657967,5.851,-41.593,21.049
500,1436547657986,5.851,-41.593,21.049
501,1436547658006,5.851,-41.593,21.049
502,1436547658028,5.851,-41.593,21.049
503,1436547658049,5.851,-41.593,21.049
504,1436547658068,5.851,-41.593,21.049
505,1436547658171,5.851,-41.593,21.049
506,1436547658172,5.851,-41.593,21.049
507,1436547658173,5.851,-41.593,21.049
508,1436547658192,5.851,-41.593,21.049
509,1436547658193,5.851,-41.593,21.049
510,1436547658194,5.851,-41.593,21.049
511,1436547658207,5.851,-41.593,21.049
512,1436547658226,5.851,-41.593,21.049
513,1436547658247,5.851,-41.593,21.049
514,1436547658281,5.851,-41.593,21.049
515,1436547658286,5.851,-41.593,21.049
516,1436547658307,5.851,-41.593,21.049
517,1436547658331,5.851,-41.593,21.049
518,1436547658347,5.851,-41.593,21.049
