id,attr_time,attr_x,attr_y,attr_z
1,1435994343824,-13.856,-42.985,-6.973
2,1435994343852,-13.856,-42.985,-6.973
3,1435994343864,-13.856,-42.985,-6.973
4,1435994343883,-13.856,-42.985,-6.973
5,1435994343904,-13.856,-42.985,-6.973
6,1435994343922,-13.856,-42.985,-6.973
7,1435994343943,-13.856,-42.985,-6.973
8,1435994343965,-13.856,-42.985,-6.973
9,1435994343982,-13.856,-42.985,-6.973
10,1435994344004,-13.856,-42.985,-6.973
11,1435994344025,-13.856,-42.985,-7.302
12,1435994344045,-13.856,-42.985,-7.302
13,1435994344065,-13.856,-42.985,-7.302
14,1435994344085,-13.856,-42.985,-7.302
15,1435994344105,-13.856,-42.985,-7.302
16,1435994344125,-13.856,-42.985,-7.302
17,1435994344145,-13.856,-42.985,-7.302
18,1435994344165,-13.856,-42.985,-7.302
19,1435994344186,-13.856,-42.985,-7.302
20,1435994344203,-13.856,-42.985,-7.302
21,1435994344225,-13.856,-42.985,-7.302
22,1435994344248,-13.856,-42.985,-7.302
23,1435994344267,-13.856,-42.985,-7.302
24,1435994344287,-13.856,-42.985,-7.302
25,1435994344306,-13.856,-42.985,-7.302
26,1435994344323,-13.856,-42.985,-7.302
27,1435994344343,-13.856,-42.985,-7.302
28,1435994344363,-13.856,-42.985,-7.302
29,1435994344388,-13.856,-42.985,-7.302
30,1435994344409,-13.856,-42.985,-7.302
31,1435994344424,-13.856,-42.985,-7.302
32,1435994344444,-13.856,-42.985,-7.302
33,1435994344470,-13.856,-42.985,-7.302
34,1435994344520,-13.856,-42.985,-7.302
35,1435994344535,-13.856,-42.985,-7.302
36,1435994344536,-13.856,-42.985,-7.302
37,1435994344543,-13.856,-42.985,-7.302
38,1435994344573,-13.856,-42.985,-7.302
39,1435994344585,-13.856,-42.985,-7.302
40,1435994344602,-13.856,-42.985,-7.302
41,1435994344625,-13.856,-42.985,-7.302
42,1435994344644,-13.856,-42.985,-7.302
43,1435994344664,-13.856,-42.985,-7.302
44,1435994344684,-13.856,-42.985,-7.302
45,1435994344706,-13.856,-42.985,-7.302
46,1435994344726,-13.856,-42.985,-7.302
47,1435994344746,-13.856,-42.985,-7.302
48,1435994344766,-13.856,-42.985,-7.302
49,1435994344786,-13.856,-42.985,-7.302
50,1435994344806,-13.856,-42.985,-7.302
51,1435994344826,-13.856,-42.985,-7.302
52,1435994344846,-13.856,-42.985,-7.302
53,1435994344866,-13.856,-42.985,-7.302
54,1435994344886,-13.856,-42.985,-7.302
55,1435994344906,-13.856,-42.985,-7.302
56,1435994344924,-13.856,-42.985,-7.302
57,1435994344946,-13.856,-42.985,-7.302
58,1435994344963,-13.856,-42.985,-7.302
59,1435994344983,-13.856,-42.985,-7.302
60,1435994345003,-13.856,-42.985,-7.302
61,1435994345033,-13.856,-42.985,-7.302
62,1435994345049,-13.856,-42.985,-7.302
63,1435994345063,-13.856,-42.985,-7.302
64,1435994345119,-13.856,-42.985,-7.302
65,1435994345132,-13.856,-42.985,-7.302
66,1435994345133,-13.856,-42.985,-7.302
67,1435994345143,-13.856,-42.985,-7.302
68,1435994345164,-13.856,-42.985,-7.302
69,1435994345186,-13.856,-42.985,-7.302
70,1435994345246,-13.856,-42.985,-7.302
71,1435994345247,-13.856,-42.985,-7.302
72,1435994345248,-13.856,-42.985,-7.302
73,1435994345265,-13.856,-42.985,-7.302
74,1435994345284,-13.856,-42.985,-7.302
75,1435994345304,-13.856,-42.985,-7.302
76,1435994345324,-13.856,-42.985,-7.302
77,1435994345346,-13.856,-42.985,-7.302
78,1435994345363,-13.856,-42.985,-7.302
79,1435994345385,-13.856,-42.985,-7.302
80,1435994345405,-13.856,-42.985,-7.302
81,1435994345426,-13.856,-42.985,-7.302
82,1435994345447,-13.856,-42.985,-7.302
83,1435994345467,-13.856,-42.985,-7.302
84,1435994345487,-13.856,-42.985,-7.302
85,1435994345507,-13.856,-42.985,-7.302
86,1435994345527,-13.856,-42.985,-7.302
87,1435994345547,-13.856,-42.985,-7.302
88,1435994345567,-13.856,-42.985,-7.302
89,1435994345587,-13.856,-42.985,-7.302
90,1435994345607,-13.856,-42.985,-7.302
91,1435994345627,-13.856,-42.985,-7.302
92,1435994345644,-13.856,-42.985,-7.302
93,1435994345667,-13.856,-42.985,-7.302
94,1435994345686,-13.856,-42.985,-7.302
95,1435994345705,-13.856,-42.985,-7.302
96,1435994345726,-13.856,-42.985,-7.302
97,1435994345747,-13.856,-42.985,-7.302
98,1435994345767,-13.856,-42.985,-7.302
99,1435994345787,-13.856,-42.985,-7.302
100,1435994345807,-13.856,-42.985,-7.302
101,1435994345826,-13.856,-42.985,-7.302
102,1435994345846,-13.856,-42.985,-7.302
103,1435994345867,-13.856,-42.985,-7.302
104,1435994345887,-13.856,-42.985,-7.302
105,1435994345909,-13.856,-42.985,-7.302
106,1435994345959,-13.856,-42.985,-7.302
107,1435994345962,-13.856,-42.985,-7.302
108,1435994345977,-13.856,-42.985,-7.302
109,1435994345984,-13.856,-42.985,-7.302
110,1435994346013,-13.856,-42.985,-7.302
111,1435994346024,-13.856,-42.985,-7.302
112,1435994346044,-13.856,-42.985,-7.302
113,1435994346066,-13.856,-42.985,-7.302
114,1435994346084,-13.856,-42.985,-7.302
115,1435994346105,-13.856,-42.985,-7.0
116,1435994346129,-13.856,-42.985,-7.0
117,1435994346145,-13.856,-42.985,-7.0
118,1435994346167,-13.856,-42.985,-7.0
119,1435994346187,-13.856,-42.985,-7.0
120,1435994346207,-13.856,-42.985,-7.0
121,1435994346227,-13.856,-42.985,-7.0
122,1435994346247,-13.856,-42.985,-7.0
123,1435994346267,-13.856,-42.985,-7.0
124,1435994346287,-13.856,-42.985,-7.0
125,1435994346307,-13.856,-42.985,-7.0
126,1435994346328,-13.856,-42.985,-7.0
127,1435994346347,-13.856,-42.985,-7.0
128,1435994346365,-13.856,-42.985,-7.0
129,1435994346388,-13.856,-42.985,-7.0
130,1435994346408,-13.856,-42.985,-7.0
131,1435994346428,-13.856,-42.985,-7.0
132,1435994346447,-13.856,-42.985,-7.0
133,1435994346467,-13.856,-42.985,-7.0
134,1435994346487,-13.856,-42.985,-7.0
135,1435994346507,-13.856,-42.985,-7.0
136,1435994346527,-13.856,-42.985,-7.0
137,1435994346545,-13.856,-42.985,-7.0
138,1435994346568,-13.856,-42.985,-7.0
139,1435994346586,-13.856,-42.985,-7.0
140,1435994346605,-13.856,-42.985,-7.0
141,1435994346625,-13.856,-42.985,-7.0
142,1435994346688,-13.856,-42.985,-7.0
143,1435994346689,-13.856,-42.985,-7.0
144,1435994346690,-13.856,-42.985,-7.0
145,1435994346714,-13.856,-42.985,-7.0
146,1435994346724,-13.856,-42.985,-7.0
147,1435994346745,-13.856,-42.985,-7.0
148,1435994346765,-13.856,-42.985,-7.0
149,1435994346784,-13.856,-42.985,-7.0
150,1435994346805,-13.856,-42.985,-7.0
151,1435994346825,-13.856,-42.985,-7.0
152,1435994346845,-13.856,-42.985,-7.0
153,1435994346868,-13.856,-42.985,-7.0
154,1435994346885,-13.856,-42.985,-7.0
155,1435994346906,-13.856,-42.985,-7.0
156,1435994346928,-13.856,-42.985,-7.0
157,1435994346948,-13.856,-42.985,-7.0
158,1435994346968,-13.856,-42.985,-7.0
159,1435994346988,-13.856,-42.985,-7.0
160,1435994347008,-13.856,-42.985,-7.0
161,1435994347028,-13.856,-42.985,-7.0
162,1435994347047,-13.856,-42.985,-7.0
163,1435994347068,-13.856,-42.985,-7.0
164,1435994347088,-13.856,-42.985,-7.0
165,1435994347105,-13.856,-42.985,-7.0
166,1435994347128,-13.856,-42.985,-7.0
167,1435994347148,-13.856,-42.985,-7.0
168,1435994347168,-13.856,-42.985,-7.0
169,1435994347188,-13.856,-42.985,-7.0
170,1435994347207,-13.856,-42.985,-7.0
171,1435994347228,-13.856,-42.985,-7.0
172,1435994347248,-13.856,-42.985,-7.0
173,1435994347268,-13.856,-42.985,-7.0
174,1435994347288,-13.856,-42.985,-7.0
175,1435994347309,-13.856,-42.985,-7.0
176,1435994347325,-13.856,-42.985,-7.0
177,1435994347346,-13.856,-42.985,-7.0
178,1435994347366,-13.856,-42.985,-7.0
179,1435994347475,-13.856,-42.985,-7.0
180,1435994347476,-13.856,-42.985,-7.0
181,1435994347477,-13.856,-42.985,-7.0
182,1435994347478,-13.856,-42.985,-7.0
183,1435994347479,-13.856,-42.985,-7.0
184,1435994347485,-13.856,-42.985,-7.0
185,1435994347505,-13.856,-42.985,-7.0
186,1435994347526,-13.856,-42.985,-7.0
187,1435994347545,-13.856,-42.985,-7.0
188,1435994347570,-13.856,-42.985,-7.0
189,1435994347586,-13.856,-42.985,-7.0
190,1435994347614,-13.856,-42.985,-7.0
191,1435994347625,-13.856,-42.985,-7.0
192,1435994347646,-14.158,-42.985,-7.0
193,1435994347667,-14.158,-42.985,-7.0
194,1435994347687,-14.158,-42.985,-7.0
195,1435994347707,-14.158,-42.985,-7.0
196,1435994347727,-14.158,-42.985,-7.0
197,1435994347747,-14.158,-42.985,-7.0
198,1435994347768,-14.158,-42.985,-7.0
199,1435994347787,-14.158,-42.985,-7.0
200,1435994347807,-14.158,-42.985,-7.0
201,1435994347828,-14.158,-42.985,-7.0
202,1435994347847,-14.158,-42.985,-7.0
203,1435994347866,-14.158,-42.985,-7.0
204,1435994347888,-14.158,-42.985,-7.0
205,1435994347908,-14.158,-42.985,-7.0
206,1435994347927,-14.158,-42.985,-7.0
207,1435994347947,-14.158,-42.985,-7.0
208,1435994347969,-14.158,-42.985,-7.0
209,1435994347988,-14.158,-42.985,-7.0
210,1435994348009,-14.158,-42.985,-7.0
211,1435994348029,-14.158,-42.985,-7.0
212,1435994348049,-14.158,-42.985,-7.0
213,1435994348069,-14.158,-42.985,-7.0
214,1435994348087,-14.158,-42.985,-7.0
215,1435994348106,-14.158,-42.985,-7.0
216,1435994348128,-14.158,-42.985,-7.0
217,1435994348146,-14.158,-42.985,-7.0
218,1435994348193,-14.158,-42.985,-7.0
219,1435994348194,-14.158,-42.985,-6.655
220,1435994348215,-14.158,-42.985,-6.655
221,1435994348226,-14.158,-42.985,-6.655
222,1435994348246,-14.158,-42.985,-6.655
223,1435994348266,-14.158,-42.985,-6.655
224,1435994348286,-14.158,-42.985,-6.655
225,1435994348307,-14.158,-42.985,-6.655
226,1435994348328,-14.158,-42.985,-6.655
227,1435994348347,-14.158,-42.985,-6.655
228,1435994348366,-14.158,-42.985,-6.655
229,1435994348388,-14.158,-42.985,-6.655
230,1435994348407,-14.158,-42.985,-6.655
231,1435994348430,-14.158,-42.985,-6.655
232,1435994348450,-14.158,-42.985,-6.655
233,1435994348470,-14.158,-42.985,-6.655
234,1435994348490,-14.158,-42.985,-6.655
235,1435994348510,-14.158,-42.985,-6.655
236,1435994348530,-14.158,-42.985,-6.655
237,1435994348550,-14.158,-42.985,-6.655
238,1435994348570,-14.158,-42.985,-6.655
239,1435994348587,-14.158,-42.985,-6.655
240,1435994348607,-14.158,-42.985,-6.655
241,1435994348630,-14.158,-42.985,-6.655
242,1435994348650,-14.158,-42.985,-6.655
243,1435994348670,-14.158,-42.985,-6.655
244,1435994348686,-14.158,-42.985,-6.655
245,1435994348708,-14.158,-42.985,-6.655
246,1435994348729,-14.158,-42.985,-6.655
247,1435994348750,-14.158,-42.985,-6.294
248,1435994348770,-14.158,-42.985,-6.294
249,1435994348790,-14.158,-42.985,-6.294
250,1435994348807,-14.158,-42.985,-6.294
251,1435994348828,-14.158,-42.985,-6.294
252,1435994348847,-14.158,-42.985,-6.294
253,1435994348868,-14.158,-42.985,-6.294
254,1435994348914,-14.158,-42.985,-6.294
255,1435994348915,-14.158,-42.985,-6.294
256,1435994348936,-14.158,-42.985,-6.294
257,1435994348947,-14.158,-42.985,-6.294
258,1435994348967,-14.158,-42.985,-6.294
259,1435994348989,-14.158,-42.985,-6.294
260,1435994349008,-14.158,-42.985,-6.294
261,1435994349029,-14.158,-42.985,-6.294
262,1435994349048,-14.158,-42.985,-6.294
263,1435994349068,-14.158,-42.985,-6.294
264,1435994349090,-14.158,-42.985,-6.294
265,1435994349108,-14.158,-42.985,-6.294
266,1435994349127,-14.158,-42.985,-6.294
267,1435994349148,-14.158,-42.985,-6.637
268,1435994349170,-14.158,-42.985,-6.637
269,1435994349190,-14.158,-42.985,-6.637
270,1435994349208,-14.158,-42.985,-6.637
271,1435994349230,-14.158,-42.985,-6.637
272,1435994349250,-14.158,-42.985,-6.637
273,1435994349270,-14.158,-42.985,-6.637
274,1435994349290,-14.158,-42.985,-6.637
275,1435994349310,-14.158,-42.985,-6.637
276,1435994349333,-14.158,-42.985,-6.637
277,1435994349350,-14.158,-42.985,-6.637
278,1435994349368,-14.158,-42.985,-6.637
279,1435994349388,-14.158,-42.985,-6.637
280,1435994349413,-14.158,-42.985,-6.637
281,1435994349428,-14.158,-42.985,-6.637
282,1435994349447,-14.158,-42.985,-6.637
283,1435994349467,-14.158,-42.985,-6.637
284,1435994349487,-14.158,-42.985,-6.637
285,1435994349514,-14.158,-42.985,-6.637
286,1435994349528,-14.158,-42.985,-6.637
287,1435994349548,-14.158,-42.985,-6.637
288,1435994349568,-14.158,-42.985,-6.637
289,1435994349593,-14.158,-42.985,-6.637
290,1435994349649,-14.158,-42.985,-6.637
291,1435994349651,-14.158,-42.985,-6.637
292,1435994349652,-14.158,-42.985,-6.637
293,1435994349669,-14.158,-42.985,-6.637
294,1435994349688,-14.158,-42.985,-6.637
295,1435994349710,-14.158,-42.985,-6.637
296,1435994349727,-14.158,-42.985,-6.637
297,1435994349753,-14.158,-42.985,-6.637
298,1435994349768,-14.158,-42.985,-6.637
299,1435994349788,-14.158,-42.985,-6.965
300,1435994349810,-14.158,-42.985,-6.965
301,1435994349829,-14.158,-42.985,-6.965
302,1435994349848,-14.158,-42.985,-6.965
303,1435994349870,-14.158,-42.985,-6.965
304,1435994349891,-14.158,-42.985,-6.965
305,1435994349911,-14.158,-42.985,-6.965
306,1435994349928,-14.158,-42.985,-6.965
307,1435994349948,-14.158,-42.985,-6.965
308,1435994349968,-14.158,-42.985,-6.965
309,1435994349989,-14.158,-42.985,-6.965
310,1435994350009,-14.158,-42.985,-6.965
311,1435994350145,-14.158,-42.985,-6.965
312,1435994350146,-14.158,-42.985,-6.965
313,1435994350147,-14.158,-42.985,-6.965
314,1435994350153,-14.158,-42.985,-6.965
315,1435994350154,-14.158,-42.985,-6.965
316,1435994350155,-14.158,-42.985,-6.965
317,1435994350156,-14.158,-42.985,-6.965
318,1435994350168,-14.158,-42.985,-6.965
319,1435994350188,-14.158,-42.985,-6.965
320,1435994350208,-14.158,-42.985,-6.965
321,1435994350228,-14.158,-42.985,-6.965
322,1435994350248,-14.158,-42.985,-6.965
323,1435994350268,-14.158,-42.985,-6.965
324,1435994350288,-14.158,-42.985,-6.965
325,1435994350337,-14.158,-42.985,-6.965
326,1435994350338,-14.158,-42.985,-6.965
327,1435994350383,-14.158,-42.985,-6.965
328,1435994350384,-14.158,-42.985,-6.965
329,1435994350390,-14.158,-42.985,-6.965
330,1435994350408,-14.158,-42.985,-6.965
331,1435994350428,-14.158,-42.985,-6.965
332,1435994350448,-14.158,-42.985,-6.965
333,1435994350468,-14.158,-42.985,-6.965
334,1435994350492,-14.158,-42.985,-6.965
335,1435994350508,-14.158,-42.985,-6.965
336,1435994350528,-14.158,-42.985,-6.965
337,1435994350549,-14.158,-42.985,-6.965
338,1435994350568,-14.158,-42.985,-6.965
339,1435994350588,-14.158,-42.985,-6.965
340,1435994350608,-14.158,-42.985,-6.965
341,1435994350628,-14.158,-42.985,-6.965
342,1435994350650,-14.158,-42.985,-6.965
343,1435994350669,-14.158,-42.985,-6.965
344,1435994350688,-13.854,-42.985,-6.965
345,1435994350709,-13.854,-42.985,-6.965
346,1435994350732,-13.854,-42.985,-6.965
347,1435994350750,-13.854,-42.985,-6.965
348,1435994350769,-13.854,-42.985,-6.965
349,1435994350789,-13.854,-42.985,-6.965
350,1435994350810,-13.854,-42.985,-6.965
351,1435994350832,-13.854,-42.985,-6.965
352,1435994350852,-13.854,-42.985,-6.965
353,1435994350870,-13.854,-42.985,-6.965
354,1435994350889,-13.854,-42.985,-6.965
355,1435994350908,-13.854,-42.985,-6.965
356,1435994350930,-13.854,-42.985,-6.965
357,1435994350952,-13.854,-42.985,-6.965
358,1435994350972,-13.854,-42.985,-6.965
359,1435994350991,-13.854,-42.985,-6.965
360,1435994351010,-13.854,-42.985,-6.965
361,1435994351029,-13.854,-42.985,-6.965
362,1435994351059,-13.854,-42.985,-6.965
363,1435994351069,-13.854,-42.985,-6.965
364,1435994351088,-13.854,-42.985,-6.965
365,1435994351108,-13.854,-42.985,-6.965
366,1435994351128,-13.854,-42.985,-6.965
367,1435994351148,-13.854,-42.985,-6.965
368,1435994351168,-13.854,-42.985,-6.965
369,1435994351188,-13.854,-42.985,-6.965
370,1435994351208,-13.854,-42.985,-6.965
371,1435994351228,-13.854,-42.985,-6.965
372,1435994351251,-13.854,-42.985,-6.965
373,1435994351268,-13.854,-42.985,-6.965
374,1435994351292,-13.854,-42.985,-6.965
375,1435994351312,-13.854,-42.985,-6.965
376,1435994351328,-13.854,-42.985,-6.965
377,1435994351352,-13.854,-42.985,-6.965
378,1435994351373,-13.854,-42.985,-6.965
379,1435994351390,-13.854,-42.985,-6.965
380,1435994351413,-13.854,-42.985,-6.965
381,1435994351431,-13.854,-42.985,-6.965
382,1435994351449,-13.854,-42.985,-6.965
383,1435994351471,-13.854,-42.985,-6.965
384,1435994351493,-13.854,-42.985,-6.965
385,1435994351513,-13.854,-42.985,-6.965
386,1435994351537,-13.854,-42.985,-6.965
387,1435994351551,-13.543,-42.985,-6.965
388,1435994351572,-13.543,-42.985,-6.965
389,1435994351593,-13.543,-42.985,-6.965
390,1435994351609,-13.543,-42.985,-6.965
391,1435994351633,-13.543,-42.985,-6.965
392,1435994351649,-13.543,-42.985,-6.965
393,1435994351701,-13.543,-42.985,-6.965
394,1435994351702,-13.543,-42.985,-6.965
395,1435994351716,-13.543,-42.985,-6.965
396,1435994351729,-13.543,-42.985,-6.965
397,1435994351751,-13.543,-42.985,-6.965
398,1435994351769,-13.543,-42.985,-6.965
399,1435994351789,-13.543,-42.985,-6.965
400,1435994351811,-13.543,-42.985,-6.965
401,1435994351833,-13.543,-42.985,-6.965
402,1435994351851,-13.543,-42.985,-6.965
403,1435994351870,-13.543,-42.985,-6.965
404,1435994351893,-13.543,-42.985,-6.965
405,1435994351910,-13.543,-42.985,-6.965
406,1435994351933,-13.543,-42.985,-6.965
407,1435994351953,-13.543,-42.985,-6.965
408,1435994351972,-13.543,-42.985,-6.965
409,1435994351993,-13.543,-42.985,-6.965
410,1435994352013,-13.543,-42.985,-6.965
411,1435994352033,-13.543,-42.985,-6.965
412,1435994352053,-13.543,-42.985,-6.965
413,1435994352073,-13.543,-42.985,-6.965
414,1435994352093,-13.543,-42.985,-6.965
415,1435994352113,-13.543,-42.985,-6.965
416,1435994352130,-13.543,-42.985,-6.965
417,1435994352150,-13.543,-42.985,-6.965
418,1435994352170,-13.543,-42.985,-6.965
419,1435994352195,-13.543,-42.985,-6.965
420,1435994352215,-13.543,-42.985,-6.965
421,1435994352236,-13.543,-42.985,-6.965
422,1435994352253,-13.543,-42.985,-6.965
423,1435994352270,-13.543,-42.985,-6.965
424,1435994352291,-13.543,-42.985,-6.965
425,1435994352311,-13.845,-42.985,-6.965
426,1435994352332,-13.845,-42.985,-6.965
427,1435994352350,-13.845,-42.985,-6.965
428,1435994352403,-13.845,-42.985,-6.965
429,1435994352404,-13.845,-42.985,-6.965
430,1435994352419,-13.845,-42.985,-6.965
431,1435994352430,-13.845,-42.985,-6.965
432,1435994352451,-13.845,-42.985,-6.965
433,1435994352470,-13.845,-42.985,-6.965
434,1435994352490,-13.845,-42.985,-6.965
435,1435994352513,-13.845,-42.985,-6.965
436,1435994352535,-13.845,-42.985,-6.965
437,1435994352551,-13.845,-42.985,-6.965
438,1435994352573,-13.845,-42.985,-6.965
439,1435994352591,-13.845,-42.985,-6.965
440,1435994352611,-13.845,-42.985,-6.965
441,1435994352632,-13.845,-42.985,-6.965
442,1435994352653,-13.845,-42.985,-6.965
443,1435994352674,-13.845,-42.985,-6.965
444,1435994352690,-13.845,-42.985,-6.965
445,1435994352713,-13.845,-42.985,-6.965
446,1435994352734,-13.845,-42.985,-6.965
447,1435994352754,-13.845,-42.985,-6.965
448,1435994352773,-13.845,-42.985,-6.965
449,1435994352794,-13.845,-42.985,-6.965
450,1435994352812,-13.845,-42.985,-6.965
451,1435994352834,-13.845,-42.985,-6.965
452,1435994352854,-13.845,-42.985,-6.965
453,1435994352871,-13.845,-42.985,-6.965
454,1435994352891,-13.845,-42.985,-6.965
455,1435994352912,-13.845,-42.985,-6.965
456,1435994352936,-13.845,-42.985,-6.965
457,1435994352956,-13.845,-42.985,-6.965
458,1435994352976,-13.845,-42.985,-6.965
459,1435994352994,-13.845,-42.985,-6.965
460,1435994353010,-13.845,-42.985,-6.965
461,1435994353031,-13.845,-42.985,-6.965
462,1435994353053,-13.845,-42.985,-6.965
463,1435994353073,-13.845,-42.985,-6.965
464,1435994353091,-13.845,-42.985,-6.965
465,1435994353144,-13.845,-42.985,-6.965
466,1435994353145,-13.845,-42.985,-6.965
467,1435994353154,-13.845,-42.985,-6.965
468,1435994353186,-13.845,-42.985,-6.965
469,1435994353191,-13.845,-42.985,-6.965
470,1435994353211,-13.845,-42.985,-6.965
471,1435994353231,-13.845,-42.985,-6.965
472,1435994353253,-13.845,-42.985,-6.965
473,1435994353271,-13.845,-42.985,-6.965
474,1435994353291,-13.845,-42.985,-6.965
475,1435994353314,-13.845,-42.985,-6.965
476,1435994353331,-13.845,-42.985,-6.965
477,1435994353351,-13.845,-42.985,-6.965
478,1435994353374,-13.845,-42.985,-6.965
479,1435994353394,-13.845,-42.985,-6.965
480,1435994353414,-13.845,-42.985,-6.965
481,1435994353434,-13.845,-42.985,-6.965
482,1435994353454,-13.845,-42.985,-6.965
483,1435994353474,-13.845,-42.985,-6.965
484,1435994353494,-13.845,-42.985,-6.965
485,1435994353514,-13.845,-42.985,-6.965
486,1435994353534,-13.845,-42.985,-6.965
487,1435994353552,-13.845,-42.985,-6.965
488,1435994353574,-13.845,-42.985,-6.965
489,1435994353600,-13.845,-42.985,-6.965
490,1435994353612,-13.845,-42.985,-6.965
491,1435994353634,-13.845,-42.985,-6.965
492,1435994353653,-13.845,-42.985,-6.965
493,1435994353672,-13.845,-42.985,-6.965
494,1435994353691,-13.845,-42.985,-6.965
