id,attr_time,attr_db
1,1436543307668,28.9848615580499
2,1436543308135,32.5782702389331
3,1436543308683,30.3782801892681
4,1436543309068,29.94105178406
5,1436543309515,29.3596602779481
6,1436543309979,31.374054565431
7,1436543310477,31.4616463887457
8,1436543310959,29.4499231537099
9,1436543311457,32.5953136296111
10,1436543311939,32.0452189781653
11,1436543312438,32.7645598669109
12,1436543312934,38.1542451214075
13,1436543313424,29.4670531947277
14,1436543313916,28.5866693390379
15,1436543314431,44.130190692105
16,1436543314880,43.313207036724
17,1436543315254,62.7172030550151
18,1436543315709,47.5273466059887
19,1436543316186,49.1804946612233
20,1436543316655,41.1592201924453
21,1436543317137,59.9912736988659
22,1436543317665,66.8400953329161
23,1436543318191,69.2222698048877
24,1436543318637,56.7777725112699
25,1436543319133,64.9482482016887
26,1436543319579,53.981924806927
27,1436543319998,60.3713902382999
28,1436543320423,50.1352026824009
29,1436543320872,48.486378816971
30,1436543321315,41.9059153922992
31,1436543322827,57.5498358546195
32,1436543323244,52.3771236042023
33,1436543323737,45.8012528414048
34,1436543324218,71.9097502194377
35,1436543324708,52.4300439174172
36,1436543325212,52.3547091892076
37,1436543325697,49.0914499024495
38,1436543326087,44.5477712262189
39,1436543326513,60.0085965990095
40,1436543326966,52.8559611693569
41,1436543327447,68.8232357987557
42,1436543327922,42.7788056024323
43,1436543328392,69.1777539447683
44,1436543328858,60.95032653718
45,1436543329349,39.1974050430025
46,1436543329840,62.6962416492162
47,1436543331468,43.6843367962671
48,1436543331903,38.0392417440999
49,1436543332358,40.2472274330448
50,1436543332894,58.1589192373695
51,1436543333381,40.6421658313699
52,1436543333854,48.6845491686279
53,1436543334331,42.1842550951715
54,1436543334779,35.4753295447369
55,1436543335241,37.3289037297544
56,1436543335722,44.6783536880614
57,1436543336171,53.8583953535289
58,1436543336611,36.8837768123376
59,1436543337012,39.1345531121962
60,1436543337458,38.2901524627157
61,1436543337982,54.1317277759106
62,1436543338457,46.1235162137108
63,1436543338930,36.3974490345055
64,1436543339408,58.3509127801432
65,1436543339900,40.8233928595415
66,1436543340373,41.9922527174525
67,1436543340817,54.0713570583824
68,1436543341231,53.032122644738
69,1436543341708,45.8834856704624
70,1436543342185,39.7391258965224
71,1436543342652,59.0760960145403
72,1436543343135,46.9152521393169
73,1436543343757,39.5623674391821
74,1436543344120,56.0521473302298
75,1436543344554,45.9626251240824
76,1436543345015,36.9611854373669
77,1436543345504,52.0469255928587
78,1436543345994,45.351023255837
79,1436543346478,38.7211893137585
80,1436543346930,50.372556384995
81,1436543347363,60.3720536749848
82,1436543347822,53.6981251373298
83,1436543348347,40.0269016916965
84,1436543348826,62.827755765133
85,1436543349346,38.966242726497
86,1436543349800,38.3596836779954
87,1436543350266,59.7287138683875
88,1436543350747,47.313198728704
89,1436543351243,37.3556917692011
90,1436543351723,60.6358505509967
91,1436543352181,38.7584224728185
92,1436543352658,45.6188096896335
93,1436543353158,54.8326150095359
94,1436543353655,51.741573066779
95,1436543354133,39.8152374062913
96,1436543354714,52.6181036105173
97,1436543355086,36.5277356834505
98,1436543355523,35.9551921376423
99,1436543355976,32.6496427603078
100,1436543356427,47.6017125786976
101,1436543356852,62.1338056320079
102,1436543357333,50.1772953569682
103,1436543357806,59.8026488216859
104,1436543358275,49.3304684453464
105,1436543358755,59.1355285663497
106,1436543359235,43.5746867449578
107,1436543359719,43.5218759056981
108,1436543360226,53.6270880888327
109,1436543360715,62.8236290883309
110,1436543361209,56.6406940166096
111,1436543361617,64.1315868916
112,1436543362067,58.0414138893412
113,1436543362562,43.0364501890471
114,1436543363082,49.1440042487961
115,1436543363589,48.2902888834412
116,1436543364067,57.5377652769002
117,1436543364561,59.6261924458108
118,1436543365072,51.2237696457876
119,1436543365565,41.6314126800838
120,1436543366072,58.7110294789045
121,1436543366580,49.2015071464717
122,1436543367033,43.2328661510982
123,1436543367464,55.8066500421062
124,1436543367916,61.2163277913075
125,1436543368374,38.8928249266085
126,1436543368937,53.5202924844682
127,1436543369417,58.2476556834531
128,1436543369884,44.882071612037
129,1436543370344,39.1993964444178
130,1436543370780,70.1808859447332
131,1436543371205,56.3306441291232
132,1436543371676,61.18507443413
133,1436543372162,42.9985411160409
134,1436543372650,50.5570087454996
135,1436543373122,44.5514690468355
136,1436543373611,42.6117308189065
137,1436543374072,65.8016734204306
138,1436543374583,50.2072348679523
139,1436543375066,43.1785542460165
140,1436543375490,68.943287610711
141,1436543375902,70.2460729282615
142,1436543376375,71.5013851282924
143,1436543376856,52.3583474642267
144,1436543377344,59.2168445685651
145,1436543377747,53.8638133893018
146,1436543378195,46.8185862562055
147,1436543378643,51.1167529800679
148,1436543379118,63.2624799142242
149,1436543379617,63.1581662872322
150,1436543380111,64.0253135117217
151,1436543380608,63.6972137744144
152,1436543381089,45.0770027433887
153,1436543381593,53.8493017086054
154,1436543382033,68.2079009787237
155,1436543382518,41.0270398758056
156,1436543382997,40.9735113342934
157,1436543383507,43.3037490578903
158,1436543383868,44.5335062106611
159,1436543384294,43.5724919608817
160,1436543384752,41.4239058069176
161,1436543385230,58.7562252272832
162,1436543385723,44.142372891269
163,1436543386226,38.5301691349789
164,1436543386725,59.8008392876656
165,1436543387207,39.3164576210507
166,1436543387648,38.5596802057174
167,1436543388103,41.309766876773
168,1436543388646,48.58896416213
169,1436543389155,38.5170614223366
170,1436543389625,63.0504052931825
171,1436543390102,38.1995686988862
172,1436543390594,40.2019345870371
173,1436543391081,55.5498417495969
174,1436543391563,36.5052416771416
175,1436543391945,45.007164618004
176,1436543392384,41.2262138500318
177,1436543392844,62.0744929032218
178,1436543393330,50.5455566412846
179,1436543393831,37.0716193739035
180,1436543394339,59.6339617874393
181,1436543394819,41.8772928637906
182,1436543395295,37.9779162036238
183,1436543395754,55.4403537626728
184,1436543396261,39.4409954602374
185,1436543396734,40.9696676087963
186,1436543397214,52.5329353579208
187,1436543397653,40.7720327389326
188,1436543398048,39.8005515114516
189,1436543398473,37.9556614950494
190,1436543398970,56.8210923580676
191,1436543399435,39.6181472246612
192,1436543399914,38.889098902647
193,1436543400407,53.6711728740232
194,1436543400885,48.5975925099928
195,1436543401383,42.1389300772178
196,1436543401870,60.9728348686613
197,1436543402350,38.3129098305079
198,1436543402814,37.5633524381077
199,1436543403318,50.0135803538809
200,1436543403785,36.9193715918429
201,1436543404195,40.1634607818605
202,1436543404691,41.9497801671055
203,1436543405192,48.590729076692
204,1436543405685,36.7705339094875
205,1436543406209,56.9582856973665
206,1436543406710,38.0817884180699
207,1436543407204,55.5414483586085
208,1436543407672,40.796799573467
209,1436543408081,36.3499705059237
210,1436543408499,39.7882302084919
211,1436543408943,34.7357136880405
212,1436543409407,59.1627426140523
213,1436543409915,35.6787767121248
214,1436543410379,35.698574474735
215,1436543410839,57.5197438762729
216,1436543411296,44.4645123360489
217,1436543411746,43.9492864613776
218,1436543412221,47.1038637374035
219,1436543412721,45.5950980994691
220,1436543413151,38.2671678428843
221,1436543413623,41.5259143506864
222,1436543414106,59.1487529649988
223,1436543414622,39.0977780275953
224,1436543415112,53.6222472032957
225,1436543415579,47.1696396844422
226,1436543416037,34.8235643529946
227,1436543416485,47.7296606183442
228,1436543416998,56.0310411790517
229,1436543417494,37.5762805933191
230,1436543417985,56.773433452528
231,1436543418444,36.4208319376352
232,1436543418856,39.026434422955
233,1436543419336,36.0925597462468
234,1436543419835,59.2180856850129
235,1436543420333,40.563625113117
236,1436543420816,40.7004570525396
237,1436543421293,58.379806564617
238,1436543421679,46.8683322052474
239,1436543422125,43.4833605415299
240,1436543422593,35.191413509964
241,1436543423067,55.2924712648401
242,1436543423538,53.5789320584136
243,1436543424023,38.2066364468261
244,1436543424593,57.300696770078
245,1436543425069,49.0614470594075
246,1436543425571,53.4538874295001
247,1436543426053,37.4143179339265
248,1436543426533,42.2245709481083
249,1436543427028,54.568128290819
250,1436543427526,44.3258220772375
251,1436543428010,46.1550386746195
252,1436543428474,44.9598312483315
253,1436543428895,49.4136231937311
254,1436543429366,41.9747555411504
255,1436543429855,58.5398211680548
256,1436543430325,47.3407234350184
257,1436543430806,38.1953330421051
258,1436543431288,54.4224582017639
259,1436543431786,35.5745389662563
260,1436543432263,38.4502643382479
261,1436543432745,51.139699755364
262,1436543433181,48.8569210418446
263,1436543433644,43.0899898183534
264,1436543434122,53.5610083729552
265,1436543434629,48.2520026018189
266,1436543435131,40.9834045916451
267,1436543435626,55.302625779233
268,1436543436114,47.4225326204147
269,1436543436607,45.5565126977857
270,1436543437079,41.6955776295718
271,1436543437559,43.5419689545834
272,1436543438049,50.697008618676
273,1436543438476,55.7616628314667
274,1436543438860,43.9075482553073
275,1436543439262,41.0403929033567
276,1436543439717,38.9433305823086
277,1436543440196,50.8962624969898
278,1436543440678,46.722741946686
279,1436543441158,42.1632907091323
280,1436543441637,57.795776754265
281,1436543442116,50.3024245537172
282,1436543442600,41.9901164408233
283,1436543442993,51.7555445703414
284,1436543443547,60.101814321739
285,1436543444033,41.8726714079739
286,1436543444527,60.9344942305045
287,1436543445056,47.0041308471493
288,1436543445537,44.9487957424305
289,1436543445923,54.2061948507651
290,1436543446329,58.40601646969
291,1436543446824,42.6304877048639
292,1436543447284,40.0978612878682
293,1436543447720,49.8910467203939
294,1436543448137,60.707540138044
295,1436543448550,48.2672238936893
296,1436543449056,38.9407785261524
297,1436543449528,53.7518427826899
298,1436543450046,41.6242060762477
299,1436543450526,43.5303579544247
300,1436543450995,50.4106509830083
301,1436543451472,42.8349011665439
302,1436543451946,41.3353070716362
303,1436543452463,60.5779136487005
304,1436543452915,39.4355538157174
305,1436543453372,38.6448716974356
306,1436543453834,55.4283354572059
307,1436543454260,47.8435012198765
308,1436543454599,48.9706388058305
309,1436543455022,48.6599909758543
310,1436543455483,43.3509984697011
311,1436543455938,53.3181172546852
312,1436543456433,44.0596803815194
313,1436543456920,45.1325406441456
314,1436543457415,60.4604177619688
315,1436543457909,40.7618797866273
316,1436543458385,41.9031572627098
317,1436543458841,52.2946437484402
318,1436543459276,40.8829159394774
319,1436543459688,38.5558658061201
320,1436543460183,54.258199924662
321,1436543460657,48.8686296578602
322,1436543461142,43.0134791467691
323,1436543461631,56.4652388961389
324,1436543462014,44.4816702955509
325,1436543462439,41.4413914100108
326,1436543462896,39.2099707830422
327,1436543463336,47.7642131856292
328,1436543463818,57.8784554860073
329,1436543464328,40.217717685794
330,1436543464833,54.7519452710687
331,1436543465320,43.9391293383894
332,1436543465820,44.8492613636864
333,1436543466344,47.0393647820953
334,1436543466840,50.290146289738
335,1436543467318,57.0165459749381
336,1436543467798,50.0497511396878
337,1436543468269,41.4405120585131
338,1436543468780,49.2957989765527
339,1436543469207,49.2798044943188
340,1436543469635,43.3692287177924
341,1436543470119,42.5658490520909
342,1436543470597,56.2300407947698
343,1436543471073,42.5272293139972
344,1436543471579,52.547425848624
345,1436543472081,46.0322736379287
346,1436543472593,42.0709730142124
347,1436543473057,56.8032005975867
348,1436543473522,45.7492618489578
349,1436543474000,40.3226119603809
350,1436543474458,56.5800092631509
351,1436543474960,44.6449214529942
352,1436543475456,47.2833320866889
353,1436543475919,42.399362624164
354,1436543476301,48.4249554867784
355,1436543476719,39.1498407648348
356,1436543477183,42.8708741174767
357,1436543477654,64.001993409352
358,1436543478130,48.7232486015469
359,1436543478635,53.6364745118229
360,1436543479193,64.9033397953601
361,1436543479643,68.5269549995056
362,1436543480052,62.9703687683243
363,1436543480515,49.920745496647
364,1436543480997,56.9446260176691
365,1436543481518,48.2937500779148
366,1436543482005,40.9804247386062
367,1436543482527,63.2438593150026
368,1436543482999,41.7142160227765
369,1436543483529,57.6930006349063
370,1436543483886,58.1310086627588
371,1436543484241,55.4721408046636
372,1436543484705,43.5163853304824
373,1436543485176,56.1792892723621
374,1436543485646,50.2354959625703
375,1436543486148,48.8556064909416
376,1436543486627,39.757094332866
377,1436543487102,63.1256334465603
378,1436543487588,39.734155414338
379,1436543488104,49.5878252327669
380,1436543488613,52.2694172127745
381,1436543489154,57.6774278426801
382,1436543489556,65.1785902686723
383,1436543489979,66.5628145907676
384,1436543490384,66.613468904191
385,1436543490762,68.7901845612665
386,1436543491172,46.9153835449192
387,1436543491634,48.2962507604337
388,1436543492092,53.5485149366736
389,1436543492600,48.4509929930535
390,1436543492979,63.3212810789384
391,1436543493384,50.6358057029687
392,1436543493902,43.7396199946445
393,1436543494395,47.351162886123
394,1436543494885,41.4017462336524
395,1436543495349,50.2186310633769
396,1436543495852,50.6692806136241
397,1436543496340,57.208958902474
398,1436543496772,50.0245249500469
399,1436543497194,43.7744048985786
400,1436543497679,40.5479487976884
401,1436543498156,63.8119659808617
402,1436543498620,49.5849826967109
403,1436543499105,41.4024470465943
404,1436543499616,61.5757425618238
405,1436543500098,37.4716998018621
406,1436543500471,42.4158238428358
407,1436543501681,58.9484351918922
408,1436543502131,53.3759469075859
409,1436543502604,37.114067300232
410,1436543503075,42.1131578323705
411,1436543503572,39.9142374112206
412,1436543503951,67.45598014735
413,1436543504350,66.0650529678884
414,1436543504810,56.4232976134238
415,1436543505295,57.8972086791533
416,1436543505780,42.9562698893918
417,1436543506276,41.1985811233897
418,1436543506762,58.0911201563342
419,1436543507264,44.4367651872355
420,1436543507762,47.8284744132829
421,1436543508238,40.0350015218601
422,1436543508703,44.0438377127528
423,1436543509248,60.2114302955483
424,1436543509734,48.0527781830788
425,1436543510183,43.9540194905316
426,1436543510578,51.3942902375885
427,1436543510998,58.504586945497
428,1436543511475,45.7911220408695
429,1436543511942,65.0565924677081
430,1436543512447,48.97455340786
431,1436543512928,51.4247335861167
432,1436543513434,54.3435378247015
433,1436543513953,54.7514121861698
434,1436543514399,55.7845199608985
435,1436543515607,61.3416427448176
436,1436543516085,65.7110332918654
437,1436543516558,54.554269242556
438,1436543516969,42.7498363238458
439,1436543517422,64.6121388131364
440,1436543517902,54.1097125694818
441,1436543518385,44.5157715269622
442,1436543518860,46.7029520978849
443,1436543519440,36.9147498841679
444,1436543519934,55.8403050236759
445,1436543520420,48.2643234361948
446,1436543520862,43.6291642656055
447,1436543521310,51.3079642467709
448,1436543521776,58.3421148167795
449,1436543522282,52.1367063397242
450,1436543522745,54.8804751173785
451,1436543523214,54.4147822480305
452,1436543523687,41.8333839161441
453,1436543524153,48.142100213558
454,1436543524649,64.1663122497219
455,1436543525118,56.4934152940374
456,1436543525674,57.575833715914
457,1436543526030,50.8186934799406
458,1436543526363,47.5767796456671
459,1436543526807,51.3653976444921
460,1436543527280,44.1049918023604
461,1436543527758,65.2372067434721
462,1436543528250,59.5646798625215
463,1436543528727,41.8939544181678
464,1436543529211,60.7835691148909
465,1436543529698,55.1696018764366
466,1436543530208,53.9505154112552
467,1436543530678,49.75084112197
468,1436543531067,50.0253444306062
469,1436543531502,39.599349727588
470,1436543531946,41.6077178030663
471,1436543532475,54.0911877427667
472,1436543532949,39.2385809020617
473,1436543533444,47.106198525327
474,1436543533925,48.7804019589828
475,1436543534451,43.1305332338314
476,1436543534909,62.9783102762227
477,1436543535366,66.3106659171927
478,1436543535845,65.5182603645985
479,1436543536385,55.0138278224959
480,1436543536879,41.4710748353726
481,1436543537316,42.468481228814
482,1436543539151,52.6497537532303
483,1436543539595,57.2768893691327
484,1436543540045,38.1257923226963
485,1436543540526,52.96484291163
486,1436543541027,48.0566576425015
487,1436543541468,46.2424934938787
488,1436543541898,37.6518219010919
489,1436543542396,43.0119615416862
490,1436543542882,53.9483360438918
491,1436543543323,38.7694455192017
492,1436543543710,45.4796288320999
493,1436543544152,40.0464165258717
494,1436543544583,56.3900529349694
495,1436543545001,48.6743835503604
496,1436543545458,40.8653561476453
497,1436543545965,38.5568352948582
498,1436543546450,54.8074334861976
499,1436543546941,54.9361351079128
500,1436543547451,42.809701773676
501,1436543547919,37.4247029666493
502,1436543548397,44.2616609146664
503,1436543548875,49.4304197358862
504,1436543549356,42.8574427149413
505,1436543549858,45.552815339705
506,1436543550298,47.7304673689503
507,1436543551824,52.5801128904173
508,1436543552273,47.8225291834363
509,1436543552792,55.0030844226696
510,1436543553274,42.1370033080283
511,1436543553746,43.8272231818803
512,1436543554284,55.9027506223374
513,1436543554733,45.5296185336107
514,1436543555131,44.993951916783
515,1436543555603,51.8336479406484
516,1436543556081,58.2205720832587
517,1436543556562,50.1846915151771
518,1436543557041,37.8644486559108
519,1436543557472,54.9169389397775
520,1436543557933,45.4247848017353
521,1436543558404,42.3570998136249
522,1436543558885,54.4752988574545
523,1436543559392,39.1042762568313
524,1436543559886,42.6194633610799
525,1436543560366,47.8627719357954
526,1436543560825,45.9385863233949
527,1436543561259,37.9330895841619
528,1436543561713,60.699275065147
529,1436543562216,44.5791320464231
530,1436543562726,48.6108953265078
531,1436543563174,56.0122113908375
532,1436543563661,41.7471409575805
533,1436543564136,46.6588748567366
534,1436543564699,43.889166663113
535,1436543565168,43.5324479427965
536,1436543565640,50.5491838550994
537,1436543565999,42.4956703751417
538,1436543566443,44.6700111222117
539,1436543566886,41.9651166548795
540,1436543567386,64.1639868074033
541,1436543567869,51.0604950588424
542,1436543568358,42.7973242498794
543,1436543568836,55.9806881520677
544,1436543569302,49.1893943224827
545,1436543569841,58.4795785911469
546,1436543570275,52.1546894113899
547,1436543570751,44.254225944361
548,1436543571202,60.0748101861519
549,1436543571706,44.4785209339742
550,1436543572153,42.329204174904
551,1436543572623,57.0049241779854
552,1436543573111,43.9088631327533
553,1436543573583,42.7115783917912
554,1436543574066,55.9581481123593
555,1436543574548,43.1628375908602
556,1436543575044,45.4964248585266
557,1436543575554,51.0093332835645
558,1436543576038,42.4614789610195
559,1436543576568,60.968800469293
560,1436543577021,50.5822003396421
561,1436543577457,46.3214549279907
562,1436543577913,58.20471193112
563,1436543578399,49.5834321690069
564,1436543578902,51.947464643717
565,1436543579454,57.342741704931
566,1436543579960,46.5915005051886
567,1436543580435,55.2025954495064
568,1436543580939,47.0076856713823
569,1436543581430,48.9551569522506
570,1436543581927,57.0849693902584
571,1436543582389,48.2669003166357
572,1436543582830,49.6218955025755
573,1436543583317,59.689982971689
574,1436543583813,51.8955429255507
575,1436543584288,49.1473707384152
576,1436543584824,45.5348633050355
