id,attr_time,attr_db
1,1436543307619,30.886145792155
2,1436543308324,32.5503441806301
3,1436543309055,34.4031470499988
4,1436543309782,32.9005897257078
5,1436543310507,33.4584263620355
6,1436543311321,33.7535569347051
7,1436543312079,34.948705375685
8,1436543312818,56.5442706574854
9,1436543313535,33.9641840322866
10,1436543314254,32.1715196908317
11,1436543314979,36.6051337232905
12,1436543315675,42.5050243450611
13,1436543316413,40.290894532228
14,1436543317126,74.115090387514
15,1436543317904,74.7666318588667
16,1436543318637,74.4918034598121
17,1436543319375,43.4778249185532
18,1436543320094,43.777580778459
19,1436543320833,42.5970670648737
20,1436543321577,38.2549935788671
21,1436543322306,58.5883782969066
22,1436543323024,37.3581678590964
23,1436543323748,74.5324453832484
24,1436543324494,42.0865757697529
25,1436543325212,39.7777953169833
26,1436543325861,45.7437536393331
27,1436543326565,54.4234123367094
28,1436543327259,55.5860297029986
29,1436543327922,58.9402139359068
30,1436543328623,62.7319075319346
31,1436543329359,38.4144680316665
32,1436543330089,39.9491566205858
33,1436543330897,38.0855270481284
34,1436543331621,39.9046170920215
35,1436543332337,39.4601578764773
36,1436543333061,39.7548708265103
37,1436543333802,38.64402224293
38,1436543334535,38.4162222544284
39,1436543335249,39.6970337026803
40,1436543335894,40.2699971789086
41,1436543336625,36.4685289016649
42,1436543337344,36.6075269339678
43,1436543337998,43.1520774277463
44,1436543338731,42.5030741548719
45,1436543339463,42.9920667452005
46,1436543340196,45.1033790388723
47,1436543340964,42.3691713449037
48,1436543341689,42.1133971764598
49,1436543342375,40.0800861774716
50,1436543343031,43.2729818812006
51,1436543343773,40.509421044584
52,1436543344507,41.551589967413
53,1436543345208,42.2844379243039
54,1436543345863,39.3475344186171
55,1436543346687,43.2740086946176
56,1436543347442,41.8526929866487
57,1436543348164,39.5409019910809
58,1436543348812,40.1118742373247
59,1436543349387,37.0857752679601
60,1436543350056,34.4210094336972
61,1436543350870,36.7438323373094
62,1436543351607,38.2865821755916
63,1436543352336,38.1678516812865
64,1436543353049,37.6468152415226
65,1436543353788,36.8338767541356
66,1436543354520,37.028363660611
67,1436543355323,36.9365375929997
68,1436543356052,44.9094357747646
69,1436543356687,39.391721626923
70,1436543357441,47.8117589315412
71,1436543358180,44.1870723118623
72,1436543358847,57.1427210421072
73,1436543359594,40.0032194624896
74,1436543360365,68.3546984554059
75,1436543361093,52.0208627738465
76,1436543361847,60.2781050525641
77,1436543362577,38.3060575881769
78,1436543363309,38.4282353429897
79,1436543364038,57.3181309472006
80,1436543364765,62.836313975807
81,1436543365490,40.755632528313
82,1436543366206,39.9161442631568
83,1436543366850,42.1154368109561
84,1436543367567,51.9988519376426
85,1436543368288,59.8415947911228
86,1436543368998,55.5561695607781
87,1436543369714,55.2745825718282
88,1436543370447,71.1449010458974
89,1436543371183,46.4628463863048
90,1436543371906,45.0306887791139
91,1436543372633,43.694949739221
92,1436543373281,44.8765136731861
93,1436543373990,73.4058385372214
94,1436543374718,41.5662817531391
95,1436543375501,69.9834398905548
96,1436543376181,73.3322178646646
97,1436543376820,43.0220617611341
98,1436543377522,42.2765134674195
99,1436543378192,38.6716950172928
100,1436543378831,66.4758105839342
101,1436543379512,68.8749269926314
102,1436543380259,67.6591560263074
103,1436543380994,43.6158973540002
104,1436543381717,44.1237553484159
105,1436543382456,43.7196455697038
106,1436543383222,41.2533089045407
107,1436543383959,40.0477909273581
108,1436543384657,40.5801862964067
109,1436543385399,40.2453055922705
110,1436543386104,38.5705634303717
111,1436543386796,41.9401881351776
112,1436543387545,41.4652379744574
113,1436543388232,40.0420269321334
114,1436543388876,42.0595656938083
115,1436543389588,39.808655102197
116,1436543390326,45.27678516901
117,1436543391064,44.0011539352331
118,1436543391786,43.8626402840909
119,1436543392527,47.0333344912506
120,1436543393289,41.5035046682443
121,1436543394034,41.5906869206676
122,1436543394778,42.5665205561794
123,1436543395493,38.1728315419648
124,1436543396214,38.9702086650008
125,1436543396932,37.2295134132087
126,1436543397577,45.0105581162705
127,1436543398298,44.9902572853338
128,1436543399133,42.4702159155628
129,1436543399785,37.8903542402538
130,1436543400476,38.3499146777662
131,1436543401214,40.3986511430197
132,1436543401935,38.7359258971555
133,1436543402687,40.0254240925767
134,1436543403416,38.8732915454164
135,1436543404150,41.5682157536982
136,1436543404870,38.7909680831756
137,1436543405590,38.6728562070011
138,1436543406381,39.0063225206067
139,1436543407113,41.584972988082
140,1436543407764,39.0700224899451
141,1436543408466,37.307756693843
142,1436543409195,40.0431014037862
143,1436543409887,35.5830023389108
144,1436543410617,41.0071748408061
145,1436543411344,39.0422926570623
146,1436543412091,38.799047613838
147,1436543412803,38.5658491673404
148,1436543413567,40.1987555751
149,1436543414316,39.4520163261339
150,1436543415029,39.3540050323987
151,1436543415774,40.3341021977631
152,1436543416484,39.725290210809
153,1436543417234,39.1072539496743
154,1436543417874,36.0553124459604
155,1436543418594,37.8860037418024
156,1436543419296,34.4464556310736
157,1436543419947,38.0731426557261
158,1436543420693,40.3645452358908
159,1436543421424,37.7145952794744
160,1436543422156,36.2886480991042
161,1436543422880,35.7747778271404
162,1436543423619,34.2200515053875
163,1436543424376,37.1417799763213
164,1436543425139,43.641426508832
165,1436543425883,41.0377364413817
166,1436543426624,45.7472152037686
167,1436543427364,39.7308815633229
168,1436543427994,40.9626630955868
169,1436543428686,41.2558265137771
170,1436543429428,40.2078328730485
171,1436543430151,40.8843474256605
172,1436543430800,36.2984883560515
173,1436543431532,34.928286778994
174,1436543432260,37.536816416587
175,1436543432991,37.942507199229
176,1436543433694,39.5910132739241
177,1436543434350,36.8184354084581
178,1436543436356,39.1105967516235
179,1436543437039,43.3637741424245
180,1436543437767,42.2533765177539
181,1436543438424,38.4938784838521
182,1436543439134,42.7036170977063
183,1436543439856,41.4595516970412
184,1436543440618,45.3707434727412
185,1436543441255,40.3702914960791
186,1436543441977,43.2186260159012
187,1436543442707,40.9211400309857
188,1436543443449,41.2882826598969
189,1436543444193,43.6417048332111
190,1436543444909,47.4676338834714
191,1436543445640,44.4674736942272
192,1436543446440,41.0093409607631
193,1436543447190,40.606458756896
194,1436543447866,40.9933961178902
195,1436543448458,41.9565552837432
196,1436543449684,39.1874002104524
197,1436543450395,35.2466502516868
198,1436543451069,43.1663352344673
199,1436543451801,39.6180071763615
200,1436543452530,40.6427992089576
201,1436543453266,36.4872187714325
202,1436543453994,37.3673037291441
203,1436543454723,35.5958132205907
204,1436543455478,37.4852381728936
205,1436543456196,45.2504434924349
206,1436543456925,40.6386249074542
207,1436543457665,42.9693803010181
208,1436543458354,42.3601363921215
209,1436543459010,40.4466042798931
210,1436543459759,40.796759129103
211,1436543460512,43.6028076475438
212,1436543461215,41.4228341480895
213,1436543461949,39.1181175330902
214,1436543462674,40.1971168897638
215,1436543463398,43.6352911434444
216,1436543464135,43.4204796298007
217,1436543464880,45.8824860255221
218,1436543465614,45.8112035520851
219,1436543466348,44.9815922393952
220,1436543467150,38.6181224176167
221,1436543467870,37.5506668203141
222,1436543468565,38.1327586203828
223,1436543469222,40.9488797295111
224,1436543469942,41.4973878243189
225,1436543470675,40.5339867889117
226,1436543471239,47.5493093144175
227,1436543473082,58.5056242667946
228,1436543473765,42.7589860168951
229,1436543474552,36.8869774751204
230,1436543475292,36.4772317712847
231,1436543476043,43.4731951963217
232,1436543476777,45.0449112042031
233,1436543477508,72.8905857388911
234,1436543478195,45.3435613348032
235,1436543478834,74.5857499054625
236,1436543479538,70.4959222332576
237,1436543480276,63.3343738080678
238,1436543481062,52.245290514995
239,1436543481751,45.2301574404015
240,1436543482434,40.617754382809
241,1436543483158,41.6516250153222
242,1436543483900,47.4751393627933
243,1436543484617,44.1030827324626
244,1436543486153,41.1706112723408
245,1436543486882,38.8984637916817
246,1436543487619,41.4402560305909
247,1436543488356,52.6954847088539
248,1436543489069,73.3922774032784
249,1436543489742,71.2335826591045
250,1436543490516,75.2739963367111
251,1436543491169,49.9393256881746
252,1436543491746,43.2798154288576
253,1436543492327,64.3187144284856
254,1436543493018,63.0300419117253
255,1436543493779,42.0528216937941
256,1436543494506,41.3256965228908
257,1436543495221,40.5467738075306
258,1436543495959,42.1373849900354
259,1436543496677,42.4299282402696
260,1436543497399,55.2858188941225
261,1436543498124,43.7907347887729
262,1436543498823,41.3091824519716
263,1436543499474,43.0725153336057
264,1436543500236,42.4143604188625
265,1436543500964,43.1080567629141
266,1436543501684,44.1949286916799
267,1436543502410,44.0380343861293
268,1436543503157,42.8683739743678
269,1436543503875,69.7403667072527
270,1436543504594,69.8457960721737
271,1436543505313,61.3291222256121
272,1436543506040,44.7495053743758
273,1436543506789,43.0339607586101
274,1436543507528,54.5408210685647
275,1436543508265,43.0090043432395
276,1436543509032,40.9904602315593
277,1436543509780,37.4325413101059
278,1436543510540,38.5933575144543
279,1436543511214,68.2755245400762
280,1436543511805,72.2602381073312
281,1436543512510,45.1427320989992
282,1436543513230,46.021723313464
283,1436543513964,78.3273997205959
284,1436543514678,55.1241610955623
285,1436543515422,75.2381511610107
286,1436543516157,43.4658588638011
287,1436543516904,71.9092726415591
288,1436543517648,52.0853262727686
289,1436543518358,41.3698219183066
290,1436543519043,35.0733450623129
291,1436543519678,42.9183435447624
292,1436543520375,59.6986152902539
293,1436543521085,43.5022587027837
294,1436543521787,41.1250899021265
295,1436543522529,40.2149126316958
296,1436543523254,36.8129426121553
297,1436543523989,52.4323681688103
298,1436543524704,47.4643462035303
299,1436543525424,50.9624388781686
300,1436543526163,34.3783653822953
301,1436543526905,42.9703775710645
302,1436543527626,72.9232463291546
303,1436543528386,56.2559599984718
304,1436543529110,39.5666014880012
305,1436543529792,40.0574181052078
306,1436543530507,38.2652520212098
307,1436543531302,44.5485557011222
308,1436543531879,36.9424551181938
309,1436543532587,37.0267891581758
310,1436543533315,49.1711130121997
311,1436543534049,36.5055738722661
312,1436543534781,70.1042917802495
313,1436543535507,68.9950721262318
314,1436543536234,51.7545699544961
315,1436543536986,43.3140337859776
316,1436543537718,43.3874806207199
317,1436543538447,56.1157617271497
318,1436543539190,40.8633016006369
319,1436543539905,39.2641944545013
320,1436543540602,46.6995607498541
321,1436543541336,64.8027652503164
322,1436543542136,42.9584512912113
323,1436543542831,46.2416039213333
324,1436543543497,51.3990936311202
325,1436543544255,45.6441217068085
326,1436543545011,43.778583626951
327,1436543545764,38.8390617411357
328,1436543546496,36.7037135067856
329,1436543547195,39.8348514196462
330,1436543547917,39.1972826001576
331,1436543548654,41.2019457535546
332,1436543549346,38.9082809694422
333,1436543550015,45.543800097109
334,1436543550721,44.5628618519569
335,1436543551446,39.2645649497076
336,1436543552115,46.8913004726947
337,1436543552866,44.5796254771556
338,1436543553607,41.5648138521943
339,1436543554344,40.9563062576379
340,1436543555087,37.4290560929369
341,1436543555821,39.2278927464067
342,1436543556550,37.8765288547507
343,1436543557279,37.7374474395477
344,1436543558032,36.7555244974909
345,1436543558759,49.7689330542768
346,1436543559484,66.1700566252972
347,1436543560215,40.377066609639
348,1436543560883,47.4701005566528
349,1436543561562,38.5604385878465
350,1436543562269,41.7185542692065
351,1436543562939,40.6919939745166
352,1436543563663,51.6718700318665
353,1436543564415,40.9544854412073
354,1436543565155,52.3527207727951
355,1436543565877,42.5603097619951
356,1436543566616,42.8164443119646
357,1436543567335,45.4361826074361
358,1436543568094,48.0749668543362
359,1436543568819,50.330375442649
360,1436543569553,42.0913758335965
361,1436543570288,44.8607459025782
362,1436543571049,42.6147402284236
363,1436543571663,42.6957323784698
364,1436543572309,49.5487516088423
365,1436543573038,45.8885919327894
366,1436543573777,50.2479586339627
367,1436543574516,46.9033660108728
368,1436543575244,44.361917196556
369,1436543575988,43.0751022789107
370,1436543576691,41.5885281289277
371,1436543577428,42.4228943449511
372,1436543578168,45.0920341510145
373,1436543578898,44.3002075392928
374,1436543579620,46.4080183219503
375,1436543580346,52.03772104701
376,1436543581054,52.8533307525573
377,1436543581746,49.1427842144602
378,1436543582485,50.4888998739905
379,1436543583145,48.3688918337796
380,1436543583871,48.2852606811886
381,1436543584615,46.3989366279415
382,1436543585344,46.894164798458
383,1436543586090,49.4847851530366
384,1436543586830,63.0768376358623
385,1436543587555,47.6013295447151
386,1436543588318,47.262163518489
387,1436543589038,44.8514414975444
388,1436543589800,52.9472611893846
389,1436543590554,45.5646062533461
390,1436543591378,43.1997124388129
391,1436543591954,43.8771857084827
392,1436543592626,48.8111865747094
393,1436543593351,70.0919249903321
394,1436543594022,43.6671364669536
395,1436543594762,52.4300088623909
396,1436543595549,50.106512529796
397,1436543596305,39.5044050661134
398,1436543597029,40.1059831091072
399,1436543597748,40.0634377538401
400,1436543598475,40.6397187583141
401,1436543599200,41.679992706837
402,1436543599924,36.7635960723757
403,1436543600659,36.5534628478563
404,1436543601478,42.5356071285298
405,1436543602134,47.2553070846146
406,1436543602869,41.7210372514111
407,1436543603572,47.8971289908545
408,1436543604257,43.1913717104642
409,1436543604925,42.1722455068192
410,1436543605652,72.2368667590121
411,1436543606360,44.7949636907094
412,1436543607058,56.8471941484428
413,1436543607720,39.7038914449704
414,1436543608480,56.5915182942104
415,1436543609202,38.7076075581575
416,1436543609935,37.3370162582276
417,1436543610668,42.5589901910828
418,1436543611454,43.0454600707266
419,1436543612149,44.6491499618024
420,1436543612776,46.8280172379508
421,1436543613520,49.9278234944491
422,1436543614256,38.0943004761604
423,1436543614957,34.6865640450925
424,1436543615685,38.5854644057068
425,1436543616416,44.1846615175174
426,1436543617147,44.3127061309058
427,1436543617868,40.1406233159622
428,1436543618599,39.8532871033711
429,1436543619341,61.2155423120622
430,1436543620066,42.3100870987433
431,1436543620823,45.8907546663327
432,1436543621624,39.6277492440084
433,1436543622290,39.6279034096222
434,1436543622993,42.9430086708666
435,1436543623695,42.1288685594457
436,1436543624444,39.723419018002
437,1436543625169,38.1025697752759
438,1436543625899,36.0548180435121
439,1436543626524,41.1875142310264
440,1436543627270,46.7945860110921
441,1436543627995,48.8393240624995
442,1436543628728,56.7890628876205
443,1436543629449,39.1864286979609
444,1436543630207,38.6977537223747
445,1436543630935,36.973314703347
446,1436543631667,31.5499061407201
447,1436543632424,54.8793328967949
448,1436543633112,33.7637930624909
449,1436543633845,38.2676065212136
450,1436543634612,39.3696071958314
451,1436543635343,43.7044768363731
452,1436543636064,41.7161325961606
453,1436543636789,43.5900202967791
454,1436543637449,41.2367267834882
455,1436543638179,40.1037003602524
456,1436543638915,42.9159320304244
457,1436543640547,41.2748335163678
458,1436543641282,38.4425818203267
459,1436543641989,36.3310473559496
460,1436543642690,40.0269578443999
461,1436543643349,38.8526469732636
462,1436543644085,39.6919840287389
463,1436543644821,45.4121489980547
464,1436543645574,41.9710871781635
465,1436543646256,40.7153343079017
466,1436543646975,59.2834504019878
467,1436543647703,37.5717008720396
468,1436543648435,35.4770039734781
469,1436543649179,37.9636640119005
470,1436543649892,38.2457929935234
471,1436543650629,37.0017039941282
472,1436543651368,35.5147910070783
473,1436543652109,39.4552365324154
474,1436543652905,37.0403271862541
475,1436543653504,40.7271733274482
476,1436543654225,44.853242372899
477,1436543654944,41.6672785505737
478,1436543655670,48.924812788406
479,1436543656419,44.0259295128519
480,1436543658048,68.4271659169916
481,1436543658775,55.4908144385872
482,1436543659498,48.6039056644071
483,1436543660220,45.4322962324389
484,1436543661021,51.2257935257752
485,1436543661760,38.9311476492177
486,1436543662487,35.6570169205651
487,1436543663168,35.3873788043579
488,1436543663802,41.310092318055
489,1436543664507,44.6569631707381
490,1436543665198,47.4006870815314
491,1436543665865,44.9312583944827
492,1436543666570,44.3310189441324
493,1436543667313,46.993946138299
494,1436543668039,49.4299021346898
495,1436543668699,58.1163816354135
496,1436543669434,62.21414180636
497,1436543670160,39.4401404889579
498,1436543670916,43.2246834705709
499,1436543671664,44.6436093102371
500,1436543672394,41.2003004498933
501,1436543673129,36.8523623137442
502,1436543673730,44.6945163170345
503,1436543674425,42.7809585754392
504,1436543675144,41.5340877618047
505,1436543675891,44.5104146359202
506,1436543676637,46.0220812438518
507,1436543677363,40.5745444759053
508,1436543678093,38.115283264763
509,1436543678833,45.0703028595199
510,1436543679560,57.9305074733558
511,1436543680310,43.0562815097583
512,1436543681101,64.567485169506
513,1436543681843,49.1693102509409
514,1436543682590,59.4541556652046
515,1436543683324,42.0659611783023
516,1436543684000,48.7841493345474
517,1436543684756,43.8099121702589
518,1436543685493,46.6333546385849
519,1436543686138,47.672894670397
520,1436543686840,45.8767875244571
521,1436543687559,43.7684176528118
522,1436543689522,43.4371244216773
523,1436543690213,43.1186165232937
524,1436543690999,48.5312319598711
525,1436543691731,46.1451249540453
526,1436543692465,42.8912770116331
527,1436543693192,40.4850451640515
528,1436543693886,40.6004143030672
529,1436543694531,39.2121838162074
530,1436543695198,45.9750856319424
531,1436543695943,58.9954194737416
532,1436543696713,39.0927773046598
533,1436543697366,44.1204429548546
534,1436543698088,42.1731809316152
535,1436543698816,44.1259734110656
536,1436543699557,40.7779729216963
537,1436543700297,40.7840544405049
538,1436543701034,41.6886226081504
539,1436543701761,38.5120671770253
540,1436543702481,38.5133521446822
541,1436543703220,38.1680096085104
542,1436543703948,44.511480405675
543,1436543704638,43.3520100397618
544,1436543706401,41.3667252713847
545,1436543707073,38.9795220516006
546,1436543707798,50.6841331537757
547,1436543708529,51.3501953743337
548,1436543709270,54.2898930717986
549,1436543709985,34.8642960071632
550,1436543710752,37.3944725279987
551,1436543711491,36.042045965267
552,1436543712212,34.6821768595986
553,1436543712952,34.7399118737886
554,1436543713701,39.9830872891463
555,1436543714286,37.410403856342
556,1436543714944,32.0046599472326
557,1436543715665,33.9091584239428
558,1436543716551,35.0685902032975
559,1436543717290,35.3210844483427
560,1436543717981,36.2776779467766
561,1436543718694,44.0275021221685
562,1436543719415,35.154257915388
563,1436543720150,34.8540667061057
564,1436543720901,32.7110248006609
565,1436543721642,33.8190209337318
566,1436543722388,31.334938811298
567,1436543723107,35.0432181798747
568,1436543723819,44.1577864288714
569,1436543724417,69.2540257196295
570,1436543725136,37.1231579838858
571,1436543725895,63.9919013590327
572,1436543726631,35.6892062023269
573,1436543727326,33.2705018142327
574,1436543728045,37.6052395657848
575,1436543728775,37.1493086896819
