id,attr_time,attr_db
1,1436543307483,34.8764654681172
2,1436543308225,34.8960719554249
3,1436543308896,36.2276411845749
4,1436543310247,33.598992177774
5,1436543310898,35.5200334595096
6,1436543311603,48.2875740727711
7,1436543312333,34.7807749649511
8,1436543313033,57.4529238019611
9,1436543313693,51.2756646731111
10,1436543314433,45.8607080904017
11,1436543315165,62.1692881662303
12,1436543315922,60.084323772963
13,1436543316613,70.0227827231051
14,1436543317315,69.1729506181204
15,1436543318053,71.5359237782762
16,1436543318845,67.7747274526327
17,1436543319553,60.172260598447
18,1436543320306,61.8026432344005
19,1436543321014,65.5882483337193
20,1436543321744,65.4657087862568
21,1436543322480,64.1314414874951
22,1436543323231,62.8771959700369
23,1436543323917,62.9396447095541
24,1436543324583,66.7114841336147
25,1436543325286,66.535280888683
26,1436543326039,63.0495112425312
27,1436543326741,71.9600843361831
28,1436543327405,65.370465886026
29,1436543328152,62.7011904078156
30,1436543328893,62.1020073176822
31,1436543329623,60.759525429028
32,1436543330345,65.9175708530676
33,1436543331059,63.7206491214203
34,1436543331771,68.9828123266101
35,1436543332492,71.6600680446026
36,1436543333261,71.7457199176032
37,1436543333969,68.3077071798911
38,1436543334619,72.6415945877026
39,1436543335343,75.5531767210572
40,1436543336089,74.3319223190671
41,1436543336861,67.0994264259661
42,1436543337576,72.5686674615376
43,1436543338301,74.2811141305154
44,1436543339044,69.5149496869948
45,1436543339752,68.9821838917688
46,1436543340480,68.1424474296138
47,1436543341211,65.3324583710422
48,1436543341951,67.626735161276
49,1436543342691,70.8234168965667
50,1436543343427,68.8333571085486
51,1436543344126,67.126223384482
52,1436543344815,74.7316288003854
53,1436543345546,73.781283294702
54,1436543346280,70.1170501096641
55,1436543347025,65.5985619425363
56,1436543347761,69.0165215278481
57,1436543348541,66.9162492159697
58,1436543349259,69.6602035632181
59,1436543349970,73.1166884494888
60,1436543350631,73.5182671719626
61,1436543351221,75.7822835140993
62,1436543351898,63.9670113995581
63,1436543352640,65.0348907557651
64,1436543353370,59.7325905581844
65,1436543354042,62.5242011524132
66,1436543354670,59.1627210988785
67,1436543355354,61.3364613168026
68,1436543356100,63.4640697455031
69,1436543356813,61.3806333645036
70,1436543357553,64.4791864805636
71,1436543358165,62.4636629174021
72,1436543358869,65.4313090795964
73,1436543359607,65.70280533192
74,1436543360314,64.9147500573739
75,1436543360995,69.4466575828373
76,1436543361746,65.337745617905
77,1436543362512,60.9707219845493
78,1436543363242,63.9411453310885
79,1436543363968,65.2021319964814
80,1436543364628,71.5862060210358
81,1436543365286,74.3296348990814
82,1436543366019,76.6139702677446
83,1436543366748,74.6485797861892
84,1436543367450,75.0036559559372
85,1436543368099,69.7322213568563
86,1436543368830,66.8145357814145
87,1436543369554,67.2731562602972
88,1436543370261,65.1397981658564
89,1436543370984,67.840335652773
90,1436543371719,66.5939214763166
91,1436543372464,69.5638212807676
92,1436543373254,76.6043320744821
93,1436543373978,75.4468351562319
94,1436543374704,74.422187685318
95,1436543375461,75.2333405864758
96,1436543376199,76.3440013320499
97,1436543376915,73.6900879710838
98,1436543377639,75.2241558426246
99,1436543378386,65.4518111362349
100,1436543379041,76.0868567983901
101,1436543379762,73.8200790667053
102,1436543380501,75.1563721152249
103,1436543381242,74.0782105341262
104,1436543381997,72.6954942989161
105,1436543382720,67.8797508142848
106,1436543383455,66.1146375637079
107,1436543384170,68.3106943095401
108,1436543384860,69.078555708614
109,1436543385505,72.3301993641175
110,1436543386260,75.2177194378213
111,1436543387007,73.6459589216305
112,1436543387812,70.1102777180343
113,1436543388500,63.3158818912131
114,1436543389160,73.6078270645255
115,1436543389871,75.4632671995993
116,1436543390578,73.203869124
117,1436543391181,55.3963437099841
118,1436543391893,54.0108308844771
119,1436543392630,55.1395825627009
120,1436543393422,67.4132840048019
121,1436543394152,66.8893444297422
122,1436543394881,62.3055582680185
123,1436543395601,72.9067800692755
124,1436543396326,72.5222531081189
125,1436543397083,74.3737287506893
126,1436543397815,75.0287182039361
127,1436543398498,77.7138915204341
128,1436543399169,59.7729194913032
129,1436543399912,72.7510248440681
130,1436543400661,73.9229243616586
131,1436543401399,76.0504409232056
132,1436543402137,76.9301461463894
133,1436543402873,75.3860212693572
134,1436543403580,74.238568521972
135,1436543404348,68.3555360096235
136,1436543404964,75.8181179333991
137,1436543405655,60.502454918121
138,1436543406379,66.1114731897645
139,1436543407083,68.3958595982868
140,1436543407839,75.6159302115529
141,1436543408518,61.8876473174638
142,1436543409268,57.5765128860099
143,1436543409992,60.7605026710861
144,1436543410743,67.8529418912398
145,1436543411444,72.2033986276656
146,1436543412102,62.9464672299136
147,1436543412844,52.2962184939011
148,1436543413618,72.3338261314365
149,1436543414349,76.8560991613908
150,1436543415037,75.086983440004
151,1436543415671,62.8833997018663
152,1436543416362,60.5587283831923
153,1436543417097,57.8486785340866
154,1436543417810,55.0017253313306
155,1436543418534,49.7959334737632
156,1436543419190,53.7578757631046
157,1436543419921,61.5492077228297
158,1436543420642,60.32663560338
159,1436543421358,46.4983666014402
160,1436543422104,53.6122397887345
161,1436543422858,59.0720230569293
162,1436543423643,64.6128870589034
163,1436543424376,73.634115656064
164,1436543425106,73.3697134474335
165,1436543425835,75.7180917092381
166,1436543426545,75.3732213183154
167,1436543427301,74.1967940973713
168,1436543428080,74.3314168531742
169,1436543428824,68.8674388319344
170,1436543429521,70.6320644044382
171,1436543430175,75.621147777613
172,1436543430906,74.1222625370137
173,1436543431648,71.2206712757813
174,1436543432377,70.9211122487184
175,1436543433108,69.1299392107287
176,1436543433837,66.2188164841388
177,1436543434584,70.3191658675183
178,1436543435315,64.3055016356771
179,1436543436028,67.3625035938774
180,1436543436702,61.1209109584848
181,1436543437421,69.431068168977
182,1436543438197,68.9510881054726
183,1436543438935,62.2373084402778
184,1436543439671,61.4162759535103
185,1436543440374,63.7155429466345
186,1436543441107,66.2336439314439
187,1436543441847,66.5853447494551
188,1436543442578,66.231853824423
189,1436543443320,67.7080820385183
190,1436543444049,64.9884450607336
191,1436543444775,60.5804439848313
192,1436543445505,64.9984825509806
193,1436543446236,60.0589535751674
194,1436543446843,65.3939544584872
195,1436543447512,67.0597801374434
196,1436543448267,62.5515893216671
197,1436543448982,63.922490682674
198,1436543449651,67.4465418130093
199,1436543450384,65.4167794881233
200,1436543451117,61.358341031296
201,1436543451844,62.2779183544061
202,1436543452577,61.0864806840471
203,1436543453309,61.5754651995399
204,1436543454048,69.3749738812797
205,1436543454841,59.772885709295
206,1436543455579,57.1186605741515
207,1436543456317,59.5221836041716
208,1436543457012,59.4634524019316
209,1436543457738,56.1188337110697
210,1436543458472,55.282350911435
211,1436543459197,58.1795433528544
212,1436543459893,55.9075845405171
213,1436543460571,50.6226878340955
214,1436543461292,59.5722713158578
215,1436543462034,58.5071915608278
216,1436543462795,56.3213900222866
217,1436543463522,55.2511726176764
218,1436543464260,54.0128870942216
219,1436543464994,58.547499035523
220,1436543465720,58.7991888642724
221,1436543466420,58.7384276101502
222,1436543467072,62.4095048389084
223,1436543467797,59.424212797319
224,1436543468507,51.5014667327839
225,1436543469215,56.3028136565421
226,1436543469914,51.1677490064777
227,1436543470552,59.0786868997319
228,1436543471265,58.2252581760299
229,1436543471908,60.0570004604688
230,1436543472609,60.6218302273826
231,1436543473339,57.9179271902818
232,1436543474067,61.977080489213
233,1436543474804,57.3422504591764
234,1436543475534,59.8054573622923
235,1436543476258,56.292097310269
236,1436543476880,59.2791595428997
237,1436543477580,58.7296704008451
238,1436543478321,56.1585432096495
239,1436543479067,63.8835199459654
240,1436543479813,60.0166699238029
241,1436543480532,56.3804494386618
242,1436543481252,55.2220545375968
243,1436543481997,58.3574313516507
244,1436543482726,69.4962800131479
245,1436543483462,72.8078969792713
246,1436543484187,76.451171181288
247,1436543484937,73.6742602275444
248,1436543485669,72.7704775358134
249,1436543486401,66.9385026758621
250,1436543487143,64.4189929700489
251,1436543487797,72.0187655094393
252,1436543488511,71.4747390305401
253,1436543489241,68.4350865790851
254,1436543489950,71.3432254427398
255,1436543490690,70.0855018336863
256,1436543491381,66.9899494097633
257,1436543492068,73.9042883517106
258,1436543492784,76.9903909098552
259,1436543493512,76.4871066053974
260,1436543494258,72.8011612002186
261,1436543494922,70.9481187676553
262,1436543496416,65.0747542558453
263,1436543497175,67.1057864235441
264,1436543497864,60.3700309075522
265,1436543498592,63.6081923983976
266,1436543499316,61.7662484868762
267,1436543500029,59.5725172440985
268,1436543500739,64.0835295994368
269,1436543501538,68.1757822161282
270,1436543502280,68.9674773383918
271,1436543503075,58.5164452549765
272,1436543503801,59.912679275036
273,1436543504529,59.4558946410574
274,1436543505196,64.9460990587194
275,1436543506609,60.7708124579942
276,1436543507260,69.4122568016666
277,1436543507975,67.7672285541833
278,1436543508624,65.8765390631091
279,1436543509335,66.2565613521059
280,1436543510036,62.4657754695225
281,1436543510793,64.6818844151367
282,1436543511501,63.2047848285661
283,1436543512183,64.2569595080949
284,1436543512842,67.4569437506446
285,1436543513548,68.5764707810839
286,1436543514316,69.0731904628134
287,1436543515088,62.3170596447327
288,1436543515821,67.9944922456382
289,1436543516557,66.3694786180491
290,1436543517355,69.6066916561575
291,1436543518001,69.9790164297937
292,1436543518672,70.8713540353784
293,1436543519348,63.5682120590374
294,1436543520039,62.918863657841
295,1436543521670,60.1172693157792
296,1436543522391,59.1083117016104
297,1436543523194,52.0935037663707
298,1436543523935,54.5633501324579
299,1436543524661,61.4639758543244
300,1436543525401,70.4086537156966
301,1436543526131,67.7132053624236
302,1436543526874,67.5816563752032
303,1436543527670,63.0365419418534
304,1436543528389,76.7401028155806
305,1436543528967,69.4801834460907
306,1436543530000,61.9711660827409
307,1436543530684,64.2566344615581
308,1436543531387,64.7159825467692
309,1436543532006,74.6200622375978
310,1436543532653,73.8650791493446
311,1436543533318,64.2668198874454
312,1436543534046,62.8227543161232
313,1436543534784,61.1419203713744
314,1436543535552,73.3793075973737
315,1436543536286,73.15604473672
316,1436543537023,74.0815499094399
317,1436543537745,76.7975901526737
318,1436543538473,71.9579787129757
319,1436543539159,74.619927916905
320,1436543539869,76.9942176832783
321,1436543540552,68.5613875288645
322,1436543541269,65.2319662363455
323,1436543541978,66.9400264469074
324,1436543542693,62.9563502800796
325,1436543543468,73.5138047267548
326,1436543544168,76.8455192277108
327,1436543544900,71.6238533835475
328,1436543545586,71.3845361802218
329,1436543546309,74.7283362469984
330,1436543547044,75.2888514523528
331,1436543547780,74.1217087754129
332,1436543548505,73.9239735038594
333,1436543549185,72.2401454115986
334,1436543549866,73.3377475690494
335,1436543550610,74.7359377879822
336,1436543551326,75.717470953301
337,1436543552014,76.0280514903252
338,1436543552732,71.2271023244674
339,1436543553443,77.81530723261
340,1436543554170,77.1972047115973
341,1436543554900,74.2229263023575
342,1436543555626,76.2145316804697
343,1436543556359,74.2070318177367
344,1436543557083,68.8020387930628
345,1436543557849,68.7289406685846
346,1436543558570,63.0962236929182
347,1436543559244,70.4570368816045
348,1436543559965,64.6657925159281
349,1436543560708,64.2622571886715
350,1436543561407,63.3602187217436
351,1436543562035,76.1853898609066
352,1436543562759,73.5202222102262
353,1436543563405,75.0814661577104
354,1436543564113,74.6054551314348
355,1436543564839,76.9329499508515
356,1436543565566,71.9166172660082
357,1436543566321,68.7486911443065
358,1436543567052,66.6028277016561
359,1436543567826,62.188676578183
360,1436543568569,66.926510373598
361,1436543569315,67.8475829429919
362,1436543570050,65.2967160173451
363,1436543570791,61.9962098551851
364,1436543571515,61.218382578641
365,1436543572231,61.2370509604584
366,1436543572852,68.6911691091167
367,1436543573573,66.8727110760577
368,1436543574308,65.3064167488147
369,1436543575070,59.5829870721807
370,1436543575810,57.2313338046092
371,1436543576551,48.2294085507062
372,1436543577292,59.0401295161166
373,1436543578063,65.1743345774338
374,1436543578784,70.7833785137585
375,1436543579513,61.935002824708
376,1436543580160,54.0828330670652
377,1436543580867,50.5101718707815
378,1436543581596,56.4503436591832
379,1436543582341,56.5665582833658
380,1436543583057,59.5333949976291
381,1436543583754,64.8447930824602
382,1436543584435,53.5773576762665
383,1436543585154,48.7363989499005
384,1436543585848,54.5198541198087
385,1436543586543,54.3239528683711
386,1436543587285,58.9190802992949
387,1436543588054,58.1120549033562
388,1436543588781,63.9721948960837
389,1436543589478,48.4860688716261
390,1436543590133,59.2708246431612
391,1436543590841,54.9126566962633
392,1436543591562,54.1779068680872
393,1436543592300,58.635142643836
394,1436543592970,51.9458980187024
395,1436543593642,60.8936148370102
396,1436543594351,61.6944327264245
397,1436543595084,62.2791336976263
398,1436543595815,59.7137406207519
399,1436543596552,57.8324214368477
400,1436543597285,53.0434210803571
401,1436543598068,54.5359439154333
402,1436543598804,57.8659229232079
403,1436543599517,58.2563772120659
404,1436543600205,56.8291515292702
405,1436543600941,52.1360383806218
406,1436543601694,67.2647283174855
407,1436543602398,70.1159808848592
408,1436543603141,63.8343491038166
409,1436543603871,71.6206257195633
410,1436543604623,76.6689178007363
411,1436543605340,74.0705564001637
412,1436543606066,73.062236372828
413,1436543606809,68.4036101942683
414,1436543607555,59.1082234949005
415,1436543608325,62.1036493284792
416,1436543609076,67.096586899661
417,1436543609815,69.8777858452687
418,1436543610537,68.5295614163964
419,1436543611265,69.7847086746795
420,1436543612017,69.9275239614457
421,1436543612782,65.5279639842657
422,1436543613481,63.70378767722
423,1436543614145,64.4666586251154
424,1436543614843,60.8431671991087
425,1436543615581,62.4740448928151
426,1436543616300,62.2035448893598
427,1436543617010,60.3141041167862
428,1436543617743,65.019812295775
429,1436543618463,66.5914610812752
430,1436543619204,63.8140541296774
431,1436543619938,70.9161688093306
432,1436543620635,70.6661058545452
433,1436543621314,67.640495446581
434,1436543622056,70.0969220202793
435,1436543622804,62.3478794580524
436,1436543623489,64.2864670747985
437,1436543624175,69.1103001431059
438,1436543624895,67.2760894009706
439,1436543625633,71.7296345541752
440,1436543626348,72.3377983331116
441,1436543627114,68.8218644655903
442,1436543627809,61.5982302574795
443,1436543628493,69.0168027575476
444,1436543629220,68.4319218226972
445,1436543629933,67.8611180651303
446,1436543630669,66.6002406769871
447,1436543631340,67.2232408945737
448,1436543632062,65.1501886299612
449,1436543632771,68.0680761486558
450,1436543633540,60.4243359543016
451,1436543634217,63.4424312430981
452,1436543634924,65.6384734325701
453,1436543635683,61.0955167496787
454,1436543636426,57.6604563406928
455,1436543637171,59.5850916454853
456,1436543637910,56.2319277393334
457,1436543638641,62.3753663723207
458,1436543639340,62.621193653273
459,1436543640034,54.7776820335672
460,1436543640782,65.3049068783026
461,1436543641535,64.2625251133507
462,1436543642251,53.8899382189893
463,1436543643057,73.7532540243607
464,1436543643813,64.6252047644892
465,1436543644491,64.607457308145
466,1436543645214,66.6843083822513
467,1436543645954,63.8712886732294
468,1436543646697,68.9238000581762
469,1436543647413,70.1983964959808
470,1436543648193,60.4002535375492
471,1436543648926,60.7933586543749
472,1436543649662,61.2105154959546
473,1436543650382,61.17887977566
474,1436543651071,61.6111994827105
475,1436543651758,65.7537243719663
476,1436543652514,57.7950978884802
477,1436543653353,56.8167091791055
478,1436543653934,55.4397218481393
479,1436543654601,58.4491121883722
480,1436543655295,52.0314914721886
481,1436543655937,63.2160802581895
482,1436543656664,63.059062776098
483,1436543657406,58.3385732897171
484,1436543658146,63.661900830273
485,1436543658847,54.0306162620132
486,1436543659570,51.5172095141647
487,1436543660284,56.35212987608
488,1436543660998,53.7406490406675
489,1436543661711,57.2190632556311
490,1436543662443,62.6860512517415
491,1436543663137,68.6843823410137
492,1436543663855,60.978317459571
493,1436543664570,60.1050645113683
494,1436543665256,61.0579627780609
495,1436543665977,56.9643906095767
496,1436543666707,61.515008473642
497,1436543667435,68.3143641336646
498,1436543668163,62.4333996592509
499,1436543668904,72.5653418767825
500,1436543669615,54.4287158298478
501,1436543670351,62.0187352726592
502,1436543671087,71.124810599397
503,1436543671824,73.7620280922555
504,1436543672515,61.4241221919009
505,1436543673242,69.2521313683449
506,1436543673947,67.0954018774432
507,1436543674688,63.3207246563196
508,1436543675427,71.6173214925676
509,1436543676148,75.7672450642514
510,1436543676860,77.4044168010045
511,1436543677598,75.8800769229795
512,1436543678339,72.9333166219546
513,1436543679070,71.1922852343473
514,1436543679802,61.5115981148824
515,1436543680511,61.083460277082
516,1436543681234,64.8675625911712
517,1436543681905,60.3336407185321
518,1436543682600,69.3859359648806
519,1436543683322,60.9553531864204
520,1436543684037,63.3165232239293
521,1436543684820,70.4843806276495
522,1436543685495,66.0460880816901
523,1436543686232,63.9511867309174
524,1436543686966,68.3102187225057
525,1436543687709,71.5995878510478
526,1436543688439,67.9262580510887
527,1436543689155,67.3933644043878
528,1436543689896,62.5670488636948
529,1436543690634,57.6920375142361
530,1436543691372,58.0595580998501
531,1436543692084,53.5668446149903
532,1436543692754,55.898243216506
533,1436543693426,56.4199264978736
534,1436543694138,56.7888247378004
535,1436543694876,55.4653566062314
536,1436543695601,56.016204407081
537,1436543696324,48.9305782504035
538,1436543697092,57.0573597168517
539,1436543697830,63.8984408914174
540,1436543698531,69.0213351395283
541,1436543700441,65.0661669962353
542,1436543701100,71.5786978082839
543,1436543701839,68.4188913287787
544,1436543702553,66.1122584412078
545,1436543703213,68.946243384317
546,1436543703934,66.189444751662
547,1436543704679,66.7015583831602
548,1436543705384,69.8000302633733
549,1436543706117,66.2519207383688
550,1436543706844,67.8589001929529
551,1436543707567,49.5524650458987
552,1436543708285,57.2155206745916
553,1436543709001,63.4413375936827
554,1436543709737,54.3427869821182
555,1436543710474,47.2929973494257
556,1436543711221,45.2373283041596
557,1436543711951,39.0059839369491
558,1436543712696,39.0150813982095
559,1436543713318,35.2403860966187
560,1436543715020,34.6389857629328
561,1436543715652,35.3572614309121
562,1436543716346,42.1854646381669
563,1436543717066,47.3446245915389
564,1436543717804,42.3286715762362
565,1436543718545,46.1956285601971
566,1436543719285,39.2348328110233
567,1436543720031,35.5256647878922
568,1436543720771,44.1808218667788
569,1436543721510,32.9860758390019
570,1436543722217,43.1901340904857
571,1436543722924,30.4738781670327
572,1436543723647,40.4215102526258
573,1436543724400,43.2494781262822
574,1436543725113,42.5379736491078
575,1436543725831,55.5398143044272
