id,attr_time,attr_db
1,1436543307404,34.0650487563676
2,1436543308054,33.0632570709448
3,1436543308782,35.1190256549026
4,1436543309533,35.7821330302276
5,1436543310256,35.2455223232273
6,1436543311008,32.6340811775045
7,1436543311731,33.3516427720831
8,1436543312407,34.814523026019
9,1436543313136,39.3899159249273
10,1436543313865,33.2269499445287
11,1436543314592,34.0126193858757
12,1436543315325,39.2779275298059
13,1436543316066,49.3766363621584
14,1436543316800,37.3869817787665
15,1436543317460,73.0114613616433
16,1436543318148,69.306390927749
17,1436543318894,66.2395568299906
18,1436543319643,45.111343567976
19,1436543320387,41.4949396683929
20,1436543321053,41.2172148882903
21,1436543321796,43.8092766556048
22,1436543322539,51.7128342849437
23,1436543323266,51.3112789902158
24,1436543323999,62.3673868302861
25,1436543324738,45.4622844357583
26,1436543325481,43.629763998539
27,1436543326216,53.9654679698629
28,1436543326970,65.84199914259
29,1436543327690,69.5043650625915
30,1436543328300,62.2686865733055
31,1436543328975,47.6517468099513
32,1436543329725,54.9685420137778
33,1436543330461,45.8235168119813
34,1436543331205,47.2114387310064
35,1436543331970,46.0426422886121
36,1436543332730,43.6281336863496
37,1436543333345,47.2242036577957
38,1436543334053,53.17145265499
39,1436543334794,64.4986541190985
40,1436543335527,43.1179634911988
41,1436543336258,39.5607649680281
42,1436543337034,46.0422066463022
43,1436543337697,69.7644059402793
44,1436543338276,46.4012160239419
45,1436543338939,43.771119172796
46,1436543339683,51.5835125064975
47,1436543340413,42.1269249398348
48,1436543341155,45.7588081190344
49,1436543341896,46.484361383066
50,1436543342578,42.4814208536404
51,1436543343196,44.9938811844585
52,1436543343882,38.5116564322565
53,1436543344709,44.7865206530927
54,1436543345440,42.9323040669403
55,1436543346134,48.0946032077487
56,1436543346865,43.6146950541673
57,1436543347590,43.2254411521747
58,1436543348302,45.6094103040454
59,1436543348945,44.3930029598919
60,1436543349637,38.7531662945875
61,1436543350372,36.0792118532007
62,1436543351034,43.3732622910726
63,1436543351775,46.3500111287159
64,1436543352545,37.4453152073068
65,1436543353296,38.3456836003788
66,1436543354025,42.2639705006756
67,1436543354769,38.0380331205907
68,1436543355516,37.4364377168484
69,1436543356254,45.4208554438191
70,1436543356975,39.2021654001048
71,1436543357688,68.2309337891832
72,1436543358386,63.5883500781289
73,1436543359070,58.9371690549133
74,1436543359784,43.830610978342
75,1436543360547,67.4922014339209
76,1436543361430,56.4936247243344
77,1436543362174,49.0203538490296
78,1436543362841,44.3341848093795
79,1436543363436,41.1462060408827
80,1436543364127,64.6249872245424
81,1436543364861,47.5837095999618
82,1436543365631,45.4352131092002
83,1436543366355,53.8673802891
84,1436543367150,44.6453892338721
85,1436543367902,45.1634499833151
86,1436543368611,46.6675288939377
87,1436543369353,49.7107318111885
88,1436543370094,43.2207033732556
89,1436543370836,47.526964190304
90,1436543371594,50.7253007874674
91,1436543372316,54.756915384847
92,1436543372983,43.9592327069822
93,1436543373739,68.5556536166238
94,1436543374466,44.7784562089716
95,1436543375208,71.9213516115574
96,1436543375943,67.6457078724546
97,1436543376722,60.9237095539022
98,1436543377455,46.809061347323
99,1436543378184,42.6836315723562
100,1436543378928,60.2054936778103
101,1436543379529,54.7995458751088
102,1436543380802,47.0648441299039
103,1436543381486,47.0132603502165
104,1436543382223,44.1684180462119
105,1436543382954,45.814593055026
106,1436543383702,47.1761727288134
107,1436543384441,45.4168725088998
108,1436543385178,46.7144223117393
109,1436543385925,45.5781699867523
110,1436543386668,42.357496514519
111,1436543387395,43.0860820366094
112,1436543388106,42.6399341396505
113,1436543388723,58.7545880616303
114,1436543389398,45.5257418103099
115,1436543390095,60.4538691832462
116,1436543391738,42.7041392617095
117,1436543392413,45.2356417497811
118,1436543393147,46.262689716407
119,1436543393896,43.4899119836761
120,1436543394636,42.6291713893841
121,1436543395383,44.0117342750595
122,1436543396019,42.5747114937012
123,1436543396622,47.3550154475888
124,1436543397363,46.6451424393383
125,1436543398075,46.6233513607347
126,1436543398807,44.646902926234
127,1436543399555,59.3392411200561
128,1436543400225,45.7001244919716
129,1436543400951,47.3063394520079
130,1436543401762,43.2522753710715
131,1436543402415,45.2273419182564
132,1436543403147,47.3429525696728
133,1436543403857,47.1914594323649
134,1436543404543,46.273557837648
135,1436543406275,42.920186633356
136,1436543406945,43.1197764782201
137,1436543407675,40.2179493341702
138,1436543408402,42.0922610525565
139,1436543409133,64.3235639575947
140,1436543409904,45.1755414120285
141,1436543410574,41.4145453450942
142,1436543411292,40.3866961766981
143,1436543412003,39.1947775060775
144,1436543412728,42.1364792843736
145,1436543413429,41.74642740976
146,1436543414096,40.0927070132784
147,1436543415336,49.6364316377413
148,1436543416031,47.0075027769966
149,1436543416764,47.8458631812217
150,1436543417488,46.2462041583169
151,1436543418214,43.2672976337047
152,1436543418858,48.136415287815
153,1436543419564,44.6220214455187
154,1436543420306,68.355505980839
155,1436543420976,44.505938280075
156,1436543421833,52.5522068385876
157,1436543422521,43.6479527256999
158,1436543423248,44.0655143281016
159,1436543423988,65.6734954730525
160,1436543424732,46.1076388889994
161,1436543425391,49.981690076244
162,1436543426123,57.8390338485261
163,1436543426835,46.6685602594156
164,1436543427572,46.1012999198157
165,1436543428302,44.4130098974795
166,1436543429037,45.0424588693248
167,1436543429767,45.4259982056642
168,1436543430489,45.4131229193121
169,1436543431254,44.6905283602263
170,1436543431992,43.9474847271587
171,1436543432715,43.5926163171793
172,1436543433422,40.4092257994012
173,1436543434090,45.2986583597766
174,1436543434791,44.0985714049953
175,1436543435528,52.6272517850979
176,1436543436272,59.967230654009
177,1436543437061,41.9035456450955
178,1436543437802,56.5125749619122
179,1436543438545,38.489969470095
180,1436543439283,40.1927322751202
181,1436543440018,46.2549313627349
182,1436543440698,39.9892277102743
183,1436543441372,41.0420859104951
184,1436543442105,42.0660245747153
185,1436543442827,43.3741891430086
186,1436543443599,42.3124852261687
187,1436543444342,46.0060672347471
188,1436543445080,49.6139590623942
189,1436543445813,45.4652949677588
190,1436543446555,42.6758456145606
191,1436543447266,44.1936154623142
192,1436543448004,49.803679666442
193,1436543448734,42.8179147110698
194,1436543449491,48.4845766190249
195,1436543450212,49.8642792157862
196,1436543450928,41.6120801969132
197,1436543451604,43.4548625794274
198,1436543452328,47.2378401508309
199,1436543453117,43.8602048088207
200,1436543453849,44.4277464664333
201,1436543454638,46.6686581846128
202,1436543455353,45.1663113131516
203,1436543456084,46.0221212971141
204,1436543456833,62.167948780531
205,1436543457565,44.4607894591093
206,1436543458318,47.1021601623228
207,1436543458994,44.9897666193885
208,1436543459695,47.7958524122089
209,1436543460396,43.4264371180844
210,1436543461044,66.2686924949924
211,1436543461780,56.177161027382
212,1436543462513,64.05609131247
213,1436543463234,45.1973329770347
214,1436543463967,47.6609214340265
215,1436543464703,46.8108145651962
216,1436543465447,46.9394112502411
217,1436543466100,45.8993642035472
218,1436543466819,51.6856892755076
219,1436543467558,43.775838122614
220,1436543468273,49.7330327925224
221,1436543468991,46.7439743876993
222,1436543469694,50.7234011638712
223,1436543470427,59.3565406772629
224,1436543471121,47.6817853801223
225,1436543471720,45.1310042205212
226,1436543472369,43.4447202449914
227,1436543473089,57.3885059047458
228,1436543473814,50.1369775317224
229,1436543474488,44.4291670448403
230,1436543475072,46.9072900973578
231,1436543475767,44.2422657909329
232,1436543476492,46.0379968908204
233,1436543477278,51.9642244692779
234,1436543478009,43.9399658218048
235,1436543478670,71.1046206036183
236,1436543479305,68.6219288849873
237,1436543480001,49.3126039874451
238,1436543480744,45.204879360631
239,1436543481512,49.0571012110104
240,1436543482207,42.3996998170768
241,1436543482916,45.7167289564372
242,1436543483654,46.164372450762
243,1436543484384,47.4179282010633
244,1436543485118,46.5079085053377
245,1436543485811,51.3012121259033
246,1436543486490,43.4753245061739
247,1436543487240,47.6398750580283
248,1436543487984,58.7585202158108
249,1436543488797,56.3720109972069
250,1436543489535,71.7720380474213
251,1436543490253,66.6918067424457
252,1436543491021,47.9770148061889
253,1436543491749,44.5261942401813
254,1436543492391,70.5602229676625
255,1436543493122,63.4504616583168
256,1436543493857,41.6559269347053
257,1436543494627,43.6822985183114
258,1436543495359,57.3165868812253
259,1436543496095,41.4448147807305
260,1436543496809,43.12074625629
261,1436543497532,46.3478015288836
262,1436543498268,42.3067655479267
263,1436543498969,41.9941024829261
264,1436543499757,44.2676659748116
265,1436543500481,45.9837660794331
266,1436543501224,46.759539550313
267,1436543501901,42.7589047891627
268,1436543502555,46.2246242707199
269,1436543503268,46.2123914009285
270,1436543504014,54.9408445579795
271,1436543504774,64.4933695888044
272,1436543505498,64.4044442260961
273,1436543506214,51.0720730400334
274,1436543506946,46.5116730875289
275,1436543507668,53.4777467065298
276,1436543508367,49.0473061367117
277,1436543509075,48.4218554603517
278,1436543509835,43.9811401017269
279,1436543510560,43.1510833403763
280,1436543511299,38.9798669955618
281,1436543511974,64.7706104785795
282,1436543512610,43.3796144746119
283,1436543513346,58.1337950358542
284,1436543514077,60.219031259456
285,1436543514818,56.4101239044729
286,1436543515561,66.6220280326147
287,1436543516223,54.5148324204131
288,1436543516962,49.0265527996735
289,1436543517686,59.5673062649312
290,1436543518410,45.4473937414875
291,1436543519197,41.8924103674743
292,1436543519868,44.6958798555301
293,1436543520573,47.2329495211797
294,1436543521293,44.1923095999046
295,1436543522019,47.2622147134109
296,1436543522713,50.1712579232009
297,1436543523379,43.6535864462261
298,1436543524106,44.6345673073795
299,1436543524839,46.2362160779932
300,1436543525625,49.0239662642024
301,1436543526356,41.423022935399
302,1436543527024,49.800310297485
303,1436543527762,67.7094124039772
304,1436543528484,48.2944622860272
305,1436543529195,42.699132966576
306,1436543529919,40.4897953375865
307,1436543530660,47.2606532988435
308,1436543531402,44.0215333449175
309,1436543532142,58.9315423584632
310,1436543532834,49.7671338444163
311,1436543533525,49.4875663559381
312,1436543534264,52.0828272468672
313,1436543535007,67.3477819298879
314,1436543535746,67.0431628103449
315,1436543536405,44.1017274236358
316,1436543537144,40.8838610720952
317,1436543537871,48.0315925782527
318,1436543538607,62.2781353544623
319,1436543539319,53.0867984177923
320,1436543539959,44.9912600174619
321,1436543540692,42.8370107266554
322,1436543541418,51.5197013524365
323,1436543542142,46.4827718881912
324,1436543542916,53.3894608485771
325,1436543543504,48.3374698932225
326,1436543544149,43.0632433049459
327,1436543544823,60.2302241045632
328,1436543545558,46.1321500313923
329,1436543546273,45.1204968418063
330,1436543547029,45.512234386724
331,1436543547860,45.5677941760769
332,1436543548545,44.1930632022949
333,1436543549336,51.1433917394814
334,1436543550077,40.7573202934069
335,1436543550795,55.5472012740159
336,1436543551524,59.1268235467623
337,1436543552249,54.5301909597131
338,1436543553002,53.5586607897594
339,1436543553686,53.7951809143304
340,1436543554388,52.1443186666339
341,1436543555066,53.3499559138416
342,1436543555796,45.8091271312246
343,1436543556511,65.3054714508649
344,1436543557219,49.6827792165116
345,1436543557960,59.9139805828783
346,1436543558707,58.5238821063076
347,1436543559409,48.7772331770095
348,1436543560078,50.986446115564
349,1436543560796,46.6036218242356
350,1436543561513,57.9927545145678
351,1436543562252,55.8018566323006
352,1436543562985,50.0214880546968
353,1436543563700,50.6043852896643
354,1436543564413,58.0298986164155
355,1436543565106,55.0080546865257
356,1436543565849,53.3665344142318
357,1436543566604,50.5068446579791
358,1436543567334,44.16124119656
359,1436543568086,51.698408731685
360,1436543568827,61.5866883393883
361,1436543569559,48.5592632384179
362,1436543570306,44.4550953295633
363,1436543571027,45.7086291675327
364,1436543571828,50.074071466087
365,1436543572549,47.8367551783722
366,1436543573284,46.886757041719
367,1436543573982,46.126291538947
368,1436543574640,51.3444552185021
369,1436543575369,48.5185412405395
370,1436543576090,46.8357088314874
371,1436543576823,48.6607135216476
372,1436543577524,46.4369788365925
373,1436543578138,46.5917964179616
374,1436543578825,51.4444966862072
375,1436543579544,52.5549241131289
376,1436543580264,56.7921641671764
377,1436543581000,49.195361755137
378,1436543581601,51.8946335356395
379,1436543582278,50.6014738218596
380,1436543583011,55.5826783817786
381,1436543583676,53.5285504170739
382,1436543585163,60.9702291597919
383,1436543585834,49.662108793966
384,1436543586614,66.2371907307299
385,1436543587347,42.8011748171213
386,1436543587994,45.4634553398381
387,1436543588688,47.7001611269185
388,1436543589413,43.8785361516659
389,1436543590148,46.3695646414884
390,1436543590878,44.156626600718
391,1436543591625,43.3867494372807
392,1436543592362,56.1133483830435
393,1436543593105,45.8870681906583
394,1436543593807,42.638264329324
395,1436543594442,53.0853499204301
396,1436543595154,48.3840635443334
397,1436543595890,39.8896484737661
398,1436543596643,48.3610052312792
399,1436543597375,46.7867577100139
400,1436543598089,57.8533868858311
401,1436543599746,45.359527809597
402,1436543600454,40.6254953041696
403,1436543601193,59.2625442851949
404,1436543602001,44.4081901245229
405,1436543602730,52.6710307235044
406,1436543603437,68.8560932559629
407,1436543604168,58.7077341991514
408,1436543604865,51.3493045037195
409,1436543605652,56.01877782499
410,1436543606373,44.9843499142521
411,1436543607108,55.2292106021147
412,1436543607889,44.1752765723299
413,1436543608627,63.4580178264872
414,1436543609364,41.14010835685
415,1436543610086,56.2219528448594
416,1436543610825,53.5043971942524
417,1436543611588,48.7982280031286
418,1436543612336,49.655597201291
419,1436543613085,57.7531661508303
420,1436543613786,50.0264230074128
421,1436543614418,46.8625584259039
422,1436543615123,40.1676913486886
423,1436543615850,41.070974884326
424,1436543616612,59.0463294939302
425,1436543617284,44.472643716137
426,1436543617994,45.8327375109388
427,1436543618755,42.8079020062408
428,1436543619476,55.1218441998643
429,1436543620215,47.5615444677964
430,1436543620858,43.3219124127953
431,1436543622499,43.9450420093598
432,1436543623233,45.2231523374738
433,1436543623968,44.863321590983
434,1436543624681,44.8601092232152
435,1436543625320,45.6439449217692
436,1436543626033,43.5231023151089
437,1436543626756,42.0166627841067
438,1436543627489,45.6696974180166
439,1436543628236,61.4185205988414
440,1436543628956,49.1742408080248
441,1436543629692,41.6366390763948
442,1436543630425,44.7117646701739
443,1436543631176,47.4147091255167
444,1436543631925,54.461587389795
445,1436543632673,48.6421031253499
446,1436543633408,53.1775204277412
447,1436543634129,54.2906415731076
448,1436543636037,38.0252585250951
449,1436543636703,40.3792260609578
450,1436543637436,40.9363426530114
451,1436543638148,43.351097623286
452,1436543638823,42.952829911972
453,1436543639500,42.5558350245807
454,1436543640234,41.870256952801
455,1436543640969,42.2528546293527
456,1436543641793,43.86550412721
457,1436543642454,46.7965386654555
458,1436543643190,45.8305605757547
459,1436543643924,41.7301592408428
460,1436543644650,49.0688058671716
461,1436543645351,47.5062513030466
462,1436543646032,51.6630255339646
463,1436543646764,45.5391149653553
464,1436543647488,46.7642216040673
465,1436543648218,50.867500124594
466,1436543648932,48.0621318425053
467,1436543649679,44.8386124770169
468,1436543650426,41.6109683954661
469,1436543651161,53.6139454415337
470,1436543651893,63.869600159899
471,1436543652643,48.2056505058832
472,1436543653388,49.2148558732182
473,1436543654114,48.8527498684793
474,1436543654841,46.422328103763
475,1436543655580,42.9312626285297
476,1436543656260,42.7342306427117
477,1436543657005,42.7628337031878
478,1436543657756,49.3996015929347
479,1436543658463,41.6800493221515
480,1436543659201,41.1684308220913
481,1436543659928,42.5817009174279
482,1436543660665,51.7306033934234
483,1436543661392,52.1704832461626
484,1436543662176,55.540159077496
485,1436543662891,61.8511292765376
486,1436543663619,47.7822756828977
487,1436543664356,49.1527449894749
488,1436543665115,48.1449235657003
489,1436543665844,42.4804493868621
490,1436543666433,60.9080576142817
491,1436543667137,68.7111228616848
492,1436543667872,54.9114188474235
493,1436543668648,42.9647116592854
494,1436543669344,43.8273140806685
495,1436543669986,51.7576107921405
496,1436543670711,55.9629948808388
497,1436543671451,63.8127366532967
498,1436543672204,47.8358560824221
499,1436543672930,48.1373845804412
500,1436543673665,45.2967539405492
501,1436543674393,51.5232449976513
502,1436543675113,44.3925256181457
503,1436543675808,43.9946743544566
504,1436543676470,51.3170917267234
505,1436543677204,45.6078500153347
506,1436543677954,46.411761217877
507,1436543678703,56.3138555961762
508,1436543679427,44.186555301397
509,1436543680132,68.2155694348613
510,1436543680819,53.5857166748724
511,1436543681492,44.6405772210169
512,1436543682201,41.456388744766
513,1436543682872,43.8849330573335
514,1436543683620,41.6186969769383
515,1436543684355,64.576949765684
516,1436543685094,56.483341260708
517,1436543685795,62.8402544153591
518,1436543686428,44.6194979227094
519,1436543687141,48.9159520473367
520,1436543687864,45.5990644761418
521,1436543688627,50.4294302484063
522,1436543689311,56.866625409194
523,1436543689985,44.1527714203035
524,1436543690716,63.724773832563
525,1436543691414,64.4777614968422
526,1436543692086,50.015082388947
527,1436543692805,66.6643445450393
528,1436543693547,67.2393514645388
529,1436543694287,53.6147416581097
530,1436543695032,58.7935775748139
531,1436543695748,46.6280877848091
532,1436543696423,51.9776004256534
533,1436543697036,63.8227388476792
534,1436543697719,47.8285343965746
535,1436543698438,52.9243808601213
536,1436543699165,55.5495983484564
537,1436543699909,62.1737143346587
538,1436543700676,47.4937931808654
539,1436543701264,47.89327269684
540,1436543701915,42.304523770488
541,1436543702578,47.0931100562645
542,1436543703272,57.4822897567404
543,1436543704009,61.0520899150416
544,1436543704727,49.441479460674
545,1436543705475,44.4619913202213
546,1436543706206,52.5979056721994
547,1436543706925,40.4160821755979
548,1436543707536,56.8263752158645
549,1436543708221,48.4988533440947
550,1436543708956,41.6156737920584
551,1436543709740,46.8354416113941
552,1436543710481,37.6498861532732
553,1436543711207,34.730202065027
554,1436543711947,36.2680156878248
555,1436543712704,35.8510995627163
556,1436543713434,35.7144301292588
557,1436543714157,35.0487207405371
558,1436543714886,37.2240953334053
559,1436543715632,35.0959674223458
560,1436543716362,38.2259501699948
561,1436543717080,35.0694850545629
562,1436543717746,33.5569028506628
563,1436543718475,55.9030676333259
564,1436543719194,37.7990416709897
565,1436543719949,33.677425299926
566,1436543720696,32.289769037974
567,1436543721408,34.6919391236268
568,1436543722129,33.5353137912178
569,1436543722893,32.9646617454839
570,1436543723582,48.9151371706206
571,1436543724320,40.0512767905491
572,1436543725041,38.3443366560492
573,1436543725776,37.8071869535134
574,1436543726547,36.6639106686177
575,1436543727231,38.1792609162511
576,1436543727917,37.1314269459826
