id,attr_time,attr_light
1,1436982010016,97.0
2,1436982010036,97.0
3,1436982010056,97.0
4,1436982010076,97.0
5,1436982010096,97.0
6,1436982010116,97.0
7,1436982010137,97.0
8,1436982010156,97.0
9,1436982010177,97.0
10,1436982010196,97.0
11,1436982010217,97.0
12,1436982010236,97.0
13,1436982010257,97.0
14,1436982010277,97.0
15,1436982010297,97.0
16,1436982010316,97.0
17,1436982010340,97.0
18,1436982010357,97.0
19,1436982010377,97.0
20,1436982010395,98.0
21,1436982010420,98.0
22,1436982010440,98.0
23,1436982010457,98.0
24,1436982010477,98.0
25,1436982010504,98.0
26,1436982010515,98.0
27,1436982010536,97.0
28,1436982010555,97.0
29,1436982010576,97.0
30,1436982010601,97.0
31,1436982010616,97.0
32,1436982010640,97.0
33,1436982010660,97.0
34,1436982010678,97.0
35,1436982010701,97.0
36,1436982010716,97.0
37,1436982010737,97.0
38,1436982010761,97.0
39,1436982010777,98.0
40,1436982010802,98.0
41,1436982010819,98.0
42,1436982010838,98.0
43,1436982010857,98.0
44,1436982010880,98.0
45,1436982010899,98.0
46,1436982010948,98.0
47,1436982010949,98.0
48,1436982010962,98.0
49,1436982010979,98.0
50,1436982011001,98.0
51,1436982011021,98.0
52,1436982011038,98.0
53,1436982011060,98.0
54,1436982011077,98.0
55,1436982011101,98.0
56,1436982011117,98.0
57,1436982011155,98.0
58,1436982011171,98.0
59,1436982011178,98.0
60,1436982011198,98.0
61,1436982011221,98.0
62,1436982011237,98.0
63,1436982011261,98.0
64,1436982011279,98.0
65,1436982011300,98.0
66,1436982011321,98.0
67,1436982011341,98.0
68,1436982011358,98.0
69,1436982011381,98.0
70,1436982011402,98.0
71,1436982011422,98.0
72,1436982011441,98.0
73,1436982011462,98.0
74,1436982011481,98.0
75,1436982011501,98.0
76,1436982011523,98.0
77,1436982011538,97.0
78,1436982011561,97.0
79,1436982011578,97.0
80,1436982011599,97.0
81,1436982011619,97.0
82,1436982011643,97.0
83,1436982011663,97.0
84,1436982011684,97.0
85,1436982011701,97.0
86,1436982011718,97.0
87,1436982011738,97.0
88,1436982011758,96.0
89,1436982011780,96.0
90,1436982011902,96.0
91,1436982011903,96.0
92,1436982011904,96.0
93,1436982011905,96.0
94,1436982011906,96.0
95,1436982011907,96.0
96,1436982011919,96.0
97,1436982011938,96.0
98,1436982011958,96.0
99,1436982011978,96.0
100,1436982012011,96.0
101,1436982012019,95.0
102,1436982012039,95.0
103,1436982012060,95.0
104,1436982012079,95.0
105,1436982012102,95.0
106,1436982012121,95.0
107,1436982012141,95.0
108,1436982012162,95.0
109,1436982012182,95.0
110,1436982012202,95.0
111,1436982012221,95.0
112,1436982012242,95.0
113,1436982012264,95.0
114,1436982012278,95.0
115,1436982012302,95.0
116,1436982012322,95.0
117,1436982012341,95.0
118,1436982012361,94.0
119,1436982012382,94.0
120,1436982012403,94.0
121,1436982012421,94.0
122,1436982012442,94.0
123,1436982012462,94.0
124,1436982012482,95.0
125,1436982012502,95.0
126,1436982012523,95.0
127,1436982012541,95.0
128,1436982012611,95.0
129,1436982012612,95.0
130,1436982012613,95.0
131,1436982012620,95.0
132,1436982012647,95.0
133,1436982012660,95.0
134,1436982012681,94.0
135,1436982012715,94.0
136,1436982012719,94.0
137,1436982012742,94.0
138,1436982012760,94.0
139,1436982012781,94.0
140,1436982012802,94.0
141,1436982012821,94.0
142,1436982012842,94.0
143,1436982012862,94.0
144,1436982012881,94.0
145,1436982012902,94.0
146,1436982012922,94.0
147,1436982012942,94.0
148,1436982012962,94.0
149,1436982012981,94.0
150,1436982013003,94.0
151,1436982013023,94.0
152,1436982013042,94.0
153,1436982013063,94.0
154,1436982013083,94.0
155,1436982013122,94.0
156,1436982013123,94.0
157,1436982013157,95.0
158,1436982013159,95.0
159,1436982013181,95.0
160,1436982013200,95.0
161,1436982013221,95.0
162,1436982013249,95.0
163,1436982013303,95.0
164,1436982013304,95.0
165,1436982013305,95.0
166,1436982013322,95.0
167,1436982013348,95.0
168,1436982013363,95.0
169,1436982013379,95.0
170,1436982013402,95.0
171,1436982013420,95.0
172,1436982013445,95.0
173,1436982013464,95.0
174,1436982013481,95.0
175,1436982013499,95.0
176,1436982013523,95.0
177,1436982013543,94.0
178,1436982013563,94.0
179,1436982013583,94.0
180,1436982013603,94.0
181,1436982013622,94.0
182,1436982013643,94.0
183,1436982013663,94.0
184,1436982013684,94.0
185,1436982013699,94.0
186,1436982013723,94.0
187,1436982013743,94.0
188,1436982013763,94.0
189,1436982013786,94.0
190,1436982013930,94.0
191,1436982013931,94.0
192,1436982013932,94.0
193,1436982013933,94.0
194,1436982013934,94.0
195,1436982013935,94.0
196,1436982013936,94.0
197,1436982013942,94.0
198,1436982013960,94.0
199,1436982013986,94.0
200,1436982014015,94.0
201,1436982014020,94.0
202,1436982014041,94.0
203,1436982014061,94.0
204,1436982014082,94.0
205,1436982014113,94.0
206,1436982014121,94.0
207,1436982014143,94.0
208,1436982014163,94.0
209,1436982014182,94.0
210,1436982014204,94.0
211,1436982014220,94.0
212,1436982014244,94.0
213,1436982014264,94.0
214,1436982014284,94.0
215,1436982014304,94.0
216,1436982014323,94.0
217,1436982014344,94.0
218,1436982014364,94.0
219,1436982014384,94.0
220,1436982014404,94.0
221,1436982014424,94.0
222,1436982014444,94.0
223,1436982014464,94.0
224,1436982014484,94.0
225,1436982014504,94.0
226,1436982014523,94.0
227,1436982014544,94.0
228,1436982014564,94.0
229,1436982014584,94.0
230,1436982014603,94.0
231,1436982014623,94.0
232,1436982014643,94.0
233,1436982014670,94.0
234,1436982014742,94.0
235,1436982014743,94.0
236,1436982014744,94.0
237,1436982014745,94.0
238,1436982014761,94.0
239,1436982014782,94.0
240,1436982014802,94.0
241,1436982014821,94.0
242,1436982014842,95.0
243,1436982014862,95.0
244,1436982014882,95.0
245,1436982014902,95.0
246,1436982014921,96.0
247,1436982015056,96.0
248,1436982015057,97.0
249,1436982015058,97.0
250,1436982015059,99.0
251,1436982015060,99.0
252,1436982015061,105.0
253,1436982015414,119.0
254,1436982015415,119.0
255,1436982015416,139.0
256,1436982015417,139.0
257,1436982015418,178.0
258,1436982015419,178.0
259,1436982015420,234.0
260,1436982015421,234.0
261,1436982015422,305.0
262,1436982015423,305.0
263,1436982015424,307.0
264,1436982015425,307.0
265,1436982015426,234.0
266,1436982015427,234.0
267,1436982015428,184.0
268,1436982015429,184.0
269,1436982015430,167.0
270,1436982015431,167.0
271,1436982015432,309.0
272,1436982015440,1458.0
273,1436982015460,1458.0
274,1436982015480,2376.0
275,1436982015500,2376.0
276,1436982015520,1205.0
277,1436982015540,1205.0
278,1436982015560,785.0
279,1436982015580,785.0
280,1436982015600,635.0
281,1436982015620,635.0
282,1436982015640,487.0
283,1436982015660,487.0
284,1436982015680,313.0
285,1436982015700,313.0
286,1436982015721,575.0
287,1436982015744,575.0
288,1436982015763,1363.0
289,1436982015781,1363.0
290,1436982015803,961.0
291,1436982015822,1212.0
292,1436982015846,1212.0
293,1436982015866,1606.0
294,1436982015885,1606.0
295,1436982015902,1620.0
296,1436982015923,1620.0
297,1436982015943,401.0
298,1436982015964,401.0
299,1436982015983,162.0
300,1436982016009,162.0
301,1436982016021,159.0
302,1436982016043,159.0
303,1436982016062,130.0
304,1436982016084,130.0
305,1436982016105,135.0
306,1436982016123,135.0
307,1436982016143,143.0
308,1436982016166,143.0
309,1436982016186,154.0
310,1436982016206,176.0
311,1436982016222,176.0
312,1436982016246,422.0
313,1436982016266,422.0
314,1436982016286,474.0
315,1436982016306,474.0
316,1436982016326,366.0
317,1436982016346,366.0
318,1436982016368,736.0
319,1436982016383,736.0
320,1436982016404,2204.0
321,1436982016423,2204.0
322,1436982016443,10659.0
323,1436982016463,10659.0
324,1436982016488,16559.0
325,1436982016508,16559.0
326,1436982016529,13146.0
327,1436982016546,13146.0
328,1436982016562,3310.0
329,1436982016583,8776.0
330,1436982016603,1286.0
331,1436982016624,230.0
332,1436982016648,230.0
333,1436982016698,266.0
334,1436982016701,266.0
335,1436982016715,149.0
336,1436982016723,149.0
337,1436982016744,142.0
338,1436982016765,142.0
339,1436982016783,152.0
340,1436982016806,152.0
341,1436982016823,169.0
342,1436982016844,169.0
343,1436982016864,220.0
344,1436982016885,220.0
345,1436982016906,194.0
346,1436982016926,194.0
347,1436982016947,182.0
348,1436982016966,213.0
349,1436982016987,213.0
350,1436982017006,237.0
351,1436982017027,237.0
352,1436982017047,240.0
353,1436982017067,240.0
354,1436982017086,238.0
355,1436982017105,238.0
356,1436982017127,223.0
357,1436982017147,223.0
358,1436982017167,201.0
359,1436982017187,201.0
360,1436982017207,202.0
361,1436982017225,202.0
362,1436982017245,197.0
363,1436982017265,197.0
364,1436982017287,182.0
365,1436982017307,182.0
366,1436982017327,169.0
367,1436982017345,171.0
368,1436982017370,171.0
369,1436982017438,138.0
370,1436982017439,138.0
371,1436982017440,209.0
372,1436982017448,209.0
373,1436982017464,222.0
374,1436982017486,222.0
375,1436982017504,118.0
376,1436982017525,118.0
377,1436982017545,118.0
378,1436982017569,118.0
379,1436982017588,117.0
380,1436982017605,117.0
381,1436982017626,119.0
382,1436982017647,119.0
383,1436982017667,120.0
384,1436982017687,120.0
385,1436982017707,125.0
386,1436982017727,132.0
387,1436982017747,132.0
388,1436982017767,139.0
389,1436982017787,139.0
390,1436982017808,147.0
391,1436982017826,147.0
392,1436982017847,155.0
393,1436982017867,155.0
394,1436982017886,165.0
395,1436982017905,165.0
396,1436982017930,178.0
397,1436982017946,178.0
398,1436982017970,189.0
399,1436982017987,189.0
400,1436982018005,191.0
401,1436982018026,191.0
402,1436982018046,180.0
403,1436982018206,180.0
404,1436982018207,168.0
405,1436982018208,240.0
406,1436982018209,240.0
407,1436982018210,270.0
408,1436982018211,270.0
409,1436982018212,159.0
410,1436982018213,159.0
411,1436982018233,137.0
412,1436982018258,137.0
413,1436982018264,123.0
414,1436982018297,123.0
415,1436982018304,125.0
416,1436982018325,125.0
417,1436982018345,118.0
418,1436982018365,118.0
419,1436982018388,114.0
420,1436982018405,114.0
421,1436982018425,124.0
422,1436982018444,124.0
423,1436982018465,130.0
424,1436982018485,130.0
425,1436982018505,126.0
426,1436982018525,128.0
427,1436982018545,128.0
428,1436982018565,136.0
429,1436982018585,136.0
430,1436982018605,145.0
431,1436982018625,145.0
432,1436982018645,156.0
433,1436982018665,156.0
434,1436982018687,172.0
435,1436982018717,172.0
436,1436982018725,183.0
437,1436982018747,183.0
438,1436982018793,182.0
439,1436982018794,182.0
440,1436982018825,178.0
441,1436982018826,178.0
442,1436982018853,151.0
443,1436982018864,151.0
444,1436982018884,126.0
445,1436982018904,119.0
446,1436982018924,119.0
447,1436982018944,117.0
448,1436982018969,117.0
449,1436982018995,117.0
450,1436982019005,117.0
451,1436982019024,129.0
452,1436982019044,129.0
453,1436982019064,119.0
454,1436982019084,119.0
455,1436982019104,113.0
456,1436982019124,113.0
457,1436982019144,118.0
458,1436982019164,118.0
459,1436982019184,118.0
460,1436982019204,118.0
461,1436982019224,119.0
462,1436982019244,119.0
463,1436982019264,125.0
464,1436982019286,129.0
465,1436982019305,129.0
466,1436982019327,142.0
467,1436982019345,142.0
468,1436982019365,174.0
469,1436982019387,174.0
470,1436982019409,307.0
471,1436982019429,307.0
472,1436982019447,388.0
473,1436982019465,388.0
474,1436982019508,280.0
475,1436982019509,280.0
476,1436982019525,193.0
477,1436982019546,193.0
478,1436982019568,188.0
479,1436982019585,188.0
480,1436982019608,197.0
481,1436982019626,197.0
482,1436982019646,146.0
483,1436982019669,120.0
484,1436982019686,120.0
485,1436982019705,110.0
486,1436982019730,110.0
487,1436982019746,105.0
488,1436982019770,105.0
489,1436982019786,107.0
490,1436982019807,107.0
491,1436982019830,236.0
492,1436982019847,236.0
493,1436982019867,202.0
494,1436982019886,202.0
495,1436982019907,111.0
496,1436982019929,111.0
497,1436982019949,108.0
498,1436982019966,108.0
499,1436982019988,125.0
500,1436982020009,125.0
501,1436982020029,338.0
502,1436982020047,192.0
503,1436982020069,192.0
504,1436982020088,148.0
505,1436982020109,148.0
506,1436982020127,142.0
507,1436982020193,142.0
508,1436982020194,142.0
509,1436982020195,142.0
510,1436982020213,154.0
511,1436982020226,154.0
512,1436982020246,176.0
513,1436982020268,176.0
514,1436982020286,207.0
515,1436982020309,207.0
516,1436982020327,218.0
517,1436982020348,218.0
518,1436982020370,197.0
519,1436982020387,197.0
520,1436982020407,144.0
521,1436982020430,151.0
522,1436982020447,151.0
523,1436982020470,145.0
524,1436982020491,145.0
525,1436982020509,138.0
526,1436982020530,138.0
527,1436982020551,115.0
528,1436982020569,115.0
529,1436982020590,110.0
530,1436982020611,110.0
531,1436982020628,107.0
532,1436982020652,107.0
533,1436982020672,107.0
534,1436982020694,107.0
535,1436982020709,109.0
536,1436982020728,109.0
537,1436982020747,110.0
538,1436982020767,110.0
539,1436982020795,151.0
540,1436982020808,534.0
541,1436982020839,534.0
542,1436982020847,1358.0
543,1436982020867,1358.0
544,1436982020920,379.0
545,1436982020921,379.0
546,1436982020952,131.0
547,1436982020953,131.0
548,1436982020967,135.0
549,1436982020987,135.0
550,1436982021007,137.0
551,1436982021027,137.0
552,1436982021059,139.0
553,1436982021067,139.0
554,1436982021087,139.0
555,1436982021107,139.0
556,1436982021127,169.0
557,1436982021147,169.0
558,1436982021170,450.0
559,1436982021191,741.0
560,1436982021209,741.0
561,1436982021231,307.0
562,1436982021251,307.0
563,1436982021270,196.0
564,1436982021291,196.0
565,1436982021308,233.0
566,1436982021329,233.0
567,1436982021351,145.0
568,1436982021370,145.0
569,1436982021387,173.0
570,1436982021408,173.0
571,1436982021427,136.0
572,1436982021453,136.0
573,1436982021473,133.0
574,1436982021493,133.0
575,1436982021508,105.0
576,1436982021528,105.0
577,1436982021547,109.0
578,1436982021567,110.0
579,1436982021590,110.0
580,1436982021609,113.0
581,1436982021678,113.0
582,1436982021679,118.0
583,1436982021680,118.0
584,1436982021688,123.0
585,1436982021709,123.0
586,1436982021728,128.0
587,1436982021748,128.0
588,1436982021772,129.0
589,1436982021788,129.0
590,1436982021811,128.0
591,1436982021840,128.0
592,1436982021851,126.0
593,1436982021868,126.0
594,1436982021892,121.0
595,1436982021910,121.0
596,1436982021931,114.0
597,1436982021952,111.0
598,1436982021971,111.0
599,1436982021991,137.0
600,1436982022010,137.0
601,1436982022031,121.0
602,1436982022053,121.0
603,1436982022070,176.0
604,1436982022091,176.0
605,1436982022110,189.0
606,1436982022131,189.0
607,1436982022151,158.0
608,1436982022171,158.0
609,1436982022192,158.0
610,1436982022211,158.0
611,1436982022232,239.0
612,1436982022252,239.0
613,1436982022272,236.0
614,1436982022292,236.0
615,1436982022309,150.0
616,1436982022330,128.0
617,1436982022386,128.0
618,1436982022388,140.0
619,1436982022389,140.0
620,1436982022408,238.0
621,1436982022430,238.0
622,1436982022452,172.0
623,1436982022468,172.0
624,1436982022494,129.0
625,1436982022509,129.0
626,1436982022530,132.0
627,1436982022550,132.0
628,1436982022570,125.0
629,1436982022594,125.0
630,1436982022611,121.0
631,1436982022632,121.0
632,1436982022652,112.0
633,1436982022672,112.0
634,1436982022692,109.0
635,1436982022711,105.0
636,1436982022732,105.0
637,1436982022752,106.0
638,1436982022774,106.0
639,1436982022791,121.0
640,1436982022815,121.0
641,1436982022834,114.0
642,1436982022859,114.0
643,1436982022877,114.0
644,1436982022895,114.0
645,1436982022912,98.0
646,1436982022932,98.0
647,1436982022963,95.0
648,1436982023024,95.0
649,1436982023027,97.0
650,1436982023029,97.0
651,1436982023030,105.0
652,1436982023118,105.0
653,1436982023119,108.0
654,1436982023120,108.0
655,1436982023121,108.0
656,1436982023136,114.0
657,1436982023149,114.0
658,1436982023169,130.0
659,1436982023189,130.0
660,1436982023209,131.0
661,1436982023229,131.0
662,1436982023250,128.0
663,1436982023269,128.0
664,1436982023289,127.0
665,1436982023311,127.0
666,1436982023329,124.0
667,1436982023351,124.0
668,1436982023372,110.0
669,1436982023389,110.0
670,1436982023412,98.0
671,1436982023432,98.0
672,1436982023452,93.0
673,1436982023472,90.0
674,1436982023491,90.0
675,1436982023510,88.0
676,1436982023530,88.0
677,1436982023550,102.0
678,1436982023572,102.0
679,1436982023592,102.0
680,1436982023612,102.0
681,1436982023632,88.0
682,1436982023652,88.0
683,1436982023671,89.0
684,1436982023692,89.0
685,1436982023712,116.0
686,1436982023733,116.0
687,1436982023752,122.0
688,1436982023776,122.0
689,1436982023792,179.0
690,1436982023809,179.0
691,1436982023829,157.0
692,1436982023849,123.0
693,1436982023869,123.0
694,1436982023891,125.0
695,1436982023910,125.0
696,1436982023933,211.0
697,1436982023954,211.0
698,1436982023973,204.0
699,1436982023990,204.0
700,1436982024013,134.0
701,1436982024033,134.0
702,1436982024053,114.0
703,1436982024073,114.0
704,1436982024093,110.0
705,1436982024114,110.0
706,1436982024130,113.0
707,1436982024154,113.0
708,1436982024174,158.0
709,1436982024193,158.0
710,1436982024214,111.0
711,1436982024234,91.0
712,1436982024254,91.0
713,1436982024274,97.0
714,1436982024294,97.0
715,1436982024314,127.0
716,1436982024334,127.0
717,1436982024354,96.0
718,1436982024373,96.0
719,1436982024392,96.0
720,1436982024465,96.0
721,1436982024466,95.0
722,1436982024467,95.0
723,1436982024473,99.0
724,1436982024492,99.0
725,1436982024514,100.0
726,1436982024531,100.0
727,1436982024556,116.0
728,1436982024573,116.0
729,1436982024592,112.0
730,1436982024612,113.0
731,1436982024632,113.0
732,1436982024654,112.0
733,1436982024674,112.0
734,1436982024694,118.0
735,1436982024714,118.0
736,1436982024734,117.0
737,1436982024754,117.0
738,1436982024774,113.0
739,1436982024792,113.0
740,1436982024814,110.0
741,1436982024834,110.0
742,1436982024852,104.0
743,1436982024874,104.0
744,1436982024894,99.0
745,1436982024914,99.0
746,1436982024934,97.0
747,1436982024954,97.0
748,1436982024974,97.0
749,1436982024994,98.0
750,1436982025014,98.0
751,1436982025034,101.0
752,1436982025054,101.0
753,1436982025073,102.0
754,1436982025092,102.0
755,1436982025121,105.0
756,1436982025192,105.0
757,1436982025193,104.0
758,1436982025194,104.0
759,1436982025195,103.0
760,1436982025212,103.0
761,1436982025234,100.0
762,1436982025252,100.0
763,1436982025272,98.0
764,1436982025293,98.0
765,1436982025314,102.0
766,1436982025333,102.0
767,1436982025353,105.0
768,1436982025375,107.0
769,1436982025395,107.0
770,1436982025415,109.0
771,1436982025434,109.0
772,1436982025456,112.0
773,1436982025475,112.0
774,1436982025495,115.0
775,1436982025515,115.0
776,1436982025535,115.0
777,1436982025555,115.0
778,1436982025576,108.0
779,1436982025593,108.0
780,1436982025615,95.0
781,1436982025634,95.0
782,1436982025654,86.0
783,1436982025673,86.0
784,1436982025695,84.0
785,1436982025715,84.0
786,1436982025736,84.0
787,1436982025755,84.0
788,1436982025777,83.0
789,1436982025792,104.0
790,1436982025814,104.0
791,1436982025833,86.0
792,1436982025901,86.0
793,1436982025902,82.0
794,1436982025903,82.0
795,1436982025921,80.0
796,1436982025933,80.0
797,1436982025958,89.0
798,1436982025972,89.0
799,1436982025993,96.0
800,1436982026012,96.0
801,1436982026035,97.0
802,1436982026059,97.0
803,1436982026073,114.0
804,1436982026095,114.0
805,1436982026113,110.0
806,1436982026135,110.0
807,1436982026157,107.0
808,1436982026176,112.0
809,1436982026195,112.0
810,1436982026216,112.0
811,1436982026235,112.0
812,1436982026256,153.0
813,1436982026275,153.0
814,1436982026293,130.0
815,1436982026316,130.0
816,1436982026336,100.0
817,1436982026356,100.0
818,1436982026376,97.0
819,1436982026394,97.0
820,1436982026415,87.0
821,1436982026435,87.0
822,1436982026456,82.0
823,1436982026476,82.0
824,1436982026496,83.0
825,1436982026514,83.0
826,1436982026534,84.0
827,1436982026554,85.0
828,1436982026573,85.0
829,1436982026624,92.0
830,1436982026625,92.0
831,1436982026663,158.0
832,1436982026664,158.0
833,1436982026673,256.0
834,1436982026693,256.0
835,1436982026713,281.0
836,1436982026733,281.0
837,1436982026755,163.0
838,1436982026773,163.0
839,1436982026793,129.0
840,1436982026817,129.0
841,1436982026835,103.0
842,1436982026857,103.0
843,1436982026876,98.0
844,1436982026896,98.0
845,1436982026916,98.0
846,1436982026936,99.0
847,1436982026956,99.0
848,1436982026976,98.0
849,1436982026996,98.0
