id,attr_time,attr_light
1,1436982010027,31.0
2,1436982010046,31.0
3,1436982010065,31.0
4,1436982010088,31.0
5,1436982010105,31.0
6,1436982010127,31.0
7,1436982010148,31.0
8,1436982010167,31.0
9,1436982010188,31.0
10,1436982010209,31.0
11,1436982010226,31.0
12,1436982010249,31.0
13,1436982010270,30.0
14,1436982010290,30.0
15,1436982010307,30.0
16,1436982010326,30.0
17,1436982010345,30.0
18,1436982010365,30.0
19,1436982010390,30.0
20,1436982010408,30.0
21,1436982010430,30.0
22,1436982010448,30.0
23,1436982010470,30.0
24,1436982010547,30.0
25,1436982010548,30.0
26,1436982010549,30.0
27,1436982010550,30.0
28,1436982010566,30.0
29,1436982010588,30.0
30,1436982010605,30.0
31,1436982010625,30.0
32,1436982010647,30.0
33,1436982010666,29.0
34,1436982010686,29.0
35,1436982010705,29.0
36,1436982010726,29.0
37,1436982010748,29.0
38,1436982010768,29.0
39,1436982010786,29.0
40,1436982010807,29.0
41,1436982010827,29.0
42,1436982010847,29.0
43,1436982010868,29.0
44,1436982010887,29.0
45,1436982010907,29.0
46,1436982010929,29.0
47,1436982010946,29.0
48,1436982010968,29.0
49,1436982010988,29.0
50,1436982011007,29.0
51,1436982011025,29.0
52,1436982011047,29.0
53,1436982011071,29.0
54,1436982011087,29.0
55,1436982011107,29.0
56,1436982011125,29.0
57,1436982011147,29.0
58,1436982011166,29.0
59,1436982011186,29.0
60,1436982011206,30.0
61,1436982011299,30.0
62,1436982011300,30.0
63,1436982011301,30.0
64,1436982011302,30.0
65,1436982011317,30.0
66,1436982011326,30.0
67,1436982011346,30.0
68,1436982011366,30.0
69,1436982011386,30.0
70,1436982011406,30.0
71,1436982011427,30.0
72,1436982011446,30.0
73,1436982011467,30.0
74,1436982011487,29.0
75,1436982011509,29.0
76,1436982011531,29.0
77,1436982011546,29.0
78,1436982011567,29.0
79,1436982011589,29.0
80,1436982011609,29.0
81,1436982011629,29.0
82,1436982011646,29.0
83,1436982011667,29.0
84,1436982011689,29.0
85,1436982011709,29.0
86,1436982011727,29.0
87,1436982011747,29.0
88,1436982011766,29.0
89,1436982011789,29.0
90,1436982011807,29.0
91,1436982011827,29.0
92,1436982011848,29.0
93,1436982011867,28.0
94,1436982011889,28.0
95,1436982011909,28.0
96,1436982011929,28.0
97,1436982011948,28.0
98,1436982011969,28.0
99,1436982011995,28.0
100,1436982012060,28.0
101,1436982012061,29.0
102,1436982012062,29.0
103,1436982012069,29.0
104,1436982012086,29.0
105,1436982012107,29.0
106,1436982012126,29.0
107,1436982012147,29.0
108,1436982012167,29.0
109,1436982012188,29.0
110,1436982012207,29.0
111,1436982012229,29.0
112,1436982012249,29.0
113,1436982012269,29.0
114,1436982012286,29.0
115,1436982012314,29.0
116,1436982012326,29.0
117,1436982012347,29.0
118,1436982012367,29.0
119,1436982012388,29.0
120,1436982012410,29.0
121,1436982012427,29.0
122,1436982012454,29.0
123,1436982012467,29.0
124,1436982012487,29.0
125,1436982012509,29.0
126,1436982012527,29.0
127,1436982012547,29.0
128,1436982012570,29.0
129,1436982012587,30.0
130,1436982012607,30.0
131,1436982012627,30.0
132,1436982012650,30.0
133,1436982012668,30.0
134,1436982012688,30.0
135,1436982012714,30.0
136,1436982012772,30.0
137,1436982012773,30.0
138,1436982012774,31.0
139,1436982012791,31.0
140,1436982012812,31.0
141,1436982012835,31.0
142,1436982012847,31.0
143,1436982012868,31.0
144,1436982012890,31.0
145,1436982012908,31.0
146,1436982012929,31.0
147,1436982012948,31.0
148,1436982012968,31.0
149,1436982012990,31.0
150,1436982013012,31.0
151,1436982013029,31.0
152,1436982013050,31.0
153,1436982013067,31.0
154,1436982013089,31.0
155,1436982013111,31.0
156,1436982013131,31.0
157,1436982013149,31.0
158,1436982013170,31.0
159,1436982013191,31.0
160,1436982013209,31.0
161,1436982013232,31.0
162,1436982013251,31.0
163,1436982014814,31.0
164,1436982014815,31.0
165,1436982014816,31.0
166,1436982014817,31.0
167,1436982014818,31.0
168,1436982014819,31.0
169,1436982014820,31.0
170,1436982014821,31.0
171,1436982014822,31.0
172,1436982014823,31.0
173,1436982014824,31.0
174,1436982014825,31.0
175,1436982014826,31.0
176,1436982014827,31.0
177,1436982014828,31.0
178,1436982014829,31.0
179,1436982014830,31.0
180,1436982014831,31.0
181,1436982014832,31.0
182,1436982014833,31.0
183,1436982014834,31.0
184,1436982014835,31.0
185,1436982014836,32.0
186,1436982014837,32.0
187,1436982014838,32.0
188,1436982014839,32.0
189,1436982014840,32.0
190,1436982014841,32.0
191,1436982014842,32.0
192,1436982014843,32.0
193,1436982014844,32.0
194,1436982014845,32.0
195,1436982014846,32.0
196,1436982014847,32.0
197,1436982014848,32.0
198,1436982014849,32.0
199,1436982014850,32.0
200,1436982014851,32.0
201,1436982014852,32.0
202,1436982014853,32.0
203,1436982014854,32.0
204,1436982014855,32.0
205,1436982014856,32.0
206,1436982014857,32.0
207,1436982014858,32.0
208,1436982014859,32.0
209,1436982014860,33.0
210,1436982014861,33.0
211,1436982014862,33.0
212,1436982014863,33.0
213,1436982014864,34.0
214,1436982014865,34.0
215,1436982014866,34.0
216,1436982014867,34.0
217,1436982014868,34.0
218,1436982014869,35.0
219,1436982014870,35.0
220,1436982014871,35.0
221,1436982014872,35.0
222,1436982014873,35.0
223,1436982014874,35.0
224,1436982014875,35.0
225,1436982014876,35.0
226,1436982014877,36.0
227,1436982014878,36.0
228,1436982014879,36.0
229,1436982014880,36.0
230,1436982014881,36.0
231,1436982014882,36.0
232,1436982014883,36.0
233,1436982014884,36.0
234,1436982014885,36.0
235,1436982014886,36.0
236,1436982014887,36.0
237,1436982014888,36.0
238,1436982014889,36.0
239,1436982014890,36.0
240,1436982014891,37.0
241,1436982014892,37.0
242,1436982014893,37.0
243,1436982014894,37.0
244,1436982014895,37.0
245,1436982014907,37.0
246,1436982014927,37.0
247,1436982014947,37.0
248,1436982014967,38.0
249,1436982014989,38.0
250,1436982015007,38.0
251,1436982015027,38.0
252,1436982015047,37.0
253,1436982015067,37.0
254,1436982015089,37.0
255,1436982015109,37.0
256,1436982015131,36.0
257,1436982015149,35.0
258,1436982015171,35.0
259,1436982015192,33.0
260,1436982015212,33.0
261,1436982015232,32.0
262,1436982015251,32.0
263,1436982015273,30.0
264,1436982015293,30.0
265,1436982015313,29.0
266,1436982015333,29.0
267,1436982015352,28.0
268,1436982015372,28.0
269,1436982015444,27.0
270,1436982015455,27.0
271,1436982015456,27.0
272,1436982015457,27.0
273,1436982015480,28.0
274,1436982015493,28.0
275,1436982015509,30.0
276,1436982015530,30.0
277,1436982015549,32.0
278,1436982015571,32.0
279,1436982015597,34.0
280,1436982015611,34.0
281,1436982015632,36.0
282,1436982015653,36.0
283,1436982015673,38.0
284,1436982015693,38.0
285,1436982015711,40.0
286,1436982015733,40.0
287,1436982015753,40.0
288,1436982015773,40.0
289,1436982015793,35.0
290,1436982015815,35.0
291,1436982015832,15.0
292,1436982015853,15.0
293,1436982015870,4.0
294,1436982015892,4.0
295,1436982015910,4.0
296,1436982015935,4.0
297,1436982015955,5.0
298,1436982015976,9.0
299,1436982015993,9.0
300,1436982016010,31.0
301,1436982016030,31.0
302,1436982016052,29.0
303,1436982016073,29.0
304,1436982016090,20.0
305,1436982016147,20.0
306,1436982016150,14.0
307,1436982016160,14.0
308,1436982016171,8.0
309,1436982016199,8.0
310,1436982016213,6.0
311,1436982016230,6.0
312,1436982016251,4.0
313,1436982016271,4.0
314,1436982016293,4.0
315,1436982016311,4.0
316,1436982016332,6.0
317,1436982016355,6.0
318,1436982016374,5.0
319,1436982016394,5.0
320,1436982016414,5.0
321,1436982016434,5.0
322,1436982016454,4.0
323,1436982016474,4.0
324,1436982016494,4.0
325,1436982016514,4.0
326,1436982016534,4.0
327,1436982016591,4.0
328,1436982016592,4.0
329,1436982016593,4.0
330,1436982016614,4.0
331,1436982016635,4.0
332,1436982016654,4.0
333,1436982016674,4.0
334,1436982016694,4.0
335,1436982016714,4.0
336,1436982016733,4.0
337,1436982016754,4.0
338,1436982016775,4.0
339,1436982016795,4.0
340,1436982016813,4.0
341,1436982016842,5.0
342,1436982016914,5.0
343,1436982016915,5.0
344,1436982016916,5.0
345,1436982016917,5.0
346,1436982016932,5.0
347,1436982016954,8.0
348,1436982016971,8.0
349,1436982016996,20.0
350,1436982017013,20.0
351,1436982017033,35.0
352,1436982017059,35.0
353,1436982017073,126.0
354,1436982017095,126.0
355,1436982017114,173.0
356,1436982017135,173.0
357,1436982017152,148.0
358,1436982017174,148.0
359,1436982017195,100.0
360,1436982017215,100.0
361,1436982017234,56.0
362,1436982017255,56.0
363,1436982017274,19.0
364,1436982017292,19.0
365,1436982017315,9.0
366,1436982017335,9.0
367,1436982017355,5.0
368,1436982017374,5.0
369,1436982017395,5.0
370,1436982017414,5.0
371,1436982017435,6.0
372,1436982017455,6.0
373,1436982017471,4.0
374,1436982017494,4.0
375,1436982017514,5.0
376,1436982017533,5.0
377,1436982017561,10.0
378,1436982017634,10.0
379,1436982017635,12.0
380,1436982017636,12.0
381,1436982017637,12.0
382,1436982017652,21.0
383,1436982017673,21.0
384,1436982017693,24.0
385,1436982017712,24.0
386,1436982017733,34.0
387,1436982017753,34.0
388,1436982017772,15.0
389,1436982017793,15.0
390,1436982017815,7.0
391,1436982017835,7.0
392,1436982017855,14.0
393,1436982017875,14.0
394,1436982017893,8.0
395,1436982017915,8.0
396,1436982017935,9.0
397,1436982017955,9.0
398,1436982017975,28.0
399,1436982017992,28.0
400,1436982018013,34.0
401,1436982018033,34.0
402,1436982018055,18.0
403,1436982018075,18.0
404,1436982018094,13.0
405,1436982018114,13.0
406,1436982018135,15.0
407,1436982018154,15.0
408,1436982018176,5.0
409,1436982018196,5.0
410,1436982018214,4.0
411,1436982018235,4.0
412,1436982018256,4.0
413,1436982018273,4.0
414,1436982018347,4.0
415,1436982018348,4.0
416,1436982018349,6.0
417,1436982018353,6.0
418,1436982018372,19.0
419,1436982018393,19.0
420,1436982018417,8.0
421,1436982018433,4.0
422,1436982018455,4.0
423,1436982018482,4.0
424,1436982018515,4.0
425,1436982018516,4.0
426,1436982018540,4.0
427,1436982018561,4.0
428,1436982018572,4.0
429,1436982018592,4.0
430,1436982018613,4.0
431,1436982018632,5.0
432,1436982018653,5.0
433,1436982018673,5.0
434,1436982018692,5.0
435,1436982018713,7.0
436,1436982018733,7.0
437,1436982018753,9.0
438,1436982018775,9.0
439,1436982018791,9.0
440,1436982018812,9.0
441,1436982018832,6.0
442,1436982018852,6.0
443,1436982018872,5.0
444,1436982018893,5.0
445,1436982018911,4.0
446,1436982018933,4.0
447,1436982018955,4.0
448,1436982018974,4.0
449,1436982018992,4.0
450,1436982019012,4.0
451,1436982019035,4.0
452,1436982019061,4.0
453,1436982019072,4.0
454,1436982019092,4.0
455,1436982019115,5.0
456,1436982019134,5.0
457,1436982019153,5.0
458,1436982019172,5.0
459,1436982019196,4.0
460,1436982019213,4.0
461,1436982019236,4.0
462,1436982019255,5.0
463,1436982019277,5.0
464,1436982019295,5.0
465,1436982019315,5.0
466,1436982019335,7.0
467,1436982019357,7.0
468,1436982019377,7.0
469,1436982019394,7.0
470,1436982019417,5.0
471,1436982019435,5.0
472,1436982019457,6.0
473,1436982019477,6.0
474,1436982019496,5.0
475,1436982019514,5.0
476,1436982019534,5.0
477,1436982019553,5.0
478,1436982019574,5.0
479,1436982019596,5.0
480,1436982019615,4.0
481,1436982019634,4.0
482,1436982019660,4.0
483,1436982019705,4.0
484,1436982019706,4.0
485,1436982019713,4.0
486,1436982019734,4.0
487,1436982019755,4.0
488,1436982019773,4.0
489,1436982019796,4.0
490,1436982019813,4.0
491,1436982019835,4.0
492,1436982019857,5.0
493,1436982019878,5.0
494,1436982019896,5.0
495,1436982019916,5.0
496,1436982019936,4.0
497,1436982019954,4.0
498,1436982019977,4.0
499,1436982019997,4.0
500,1436982020017,5.0
501,1436982020035,5.0
502,1436982020058,5.0
503,1436982020075,5.0
504,1436982020097,5.0
505,1436982020114,5.0
506,1436982020134,5.0
507,1436982020154,5.0
508,1436982020179,5.0
509,1436982020200,8.0
510,1436982020221,8.0
511,1436982020237,8.0
512,1436982020254,8.0
513,1436982020275,6.0
514,1436982020294,6.0
515,1436982020316,5.0
516,1436982020340,5.0
517,1436982020384,5.0
518,1436982020385,5.0
519,1436982020423,4.0
520,1436982020424,4.0
521,1436982020435,4.0
522,1436982020454,4.0
523,1436982020474,3.0
524,1436982020495,3.0
525,1436982020524,3.0
526,1436982020583,3.0
527,1436982020584,4.0
528,1436982020585,4.0
529,1436982020608,4.0
530,1436982020626,4.0
531,1436982020635,5.0
532,1436982020655,5.0
533,1436982020675,6.0
534,1436982020695,6.0
535,1436982020715,5.0
536,1436982020735,5.0
537,1436982020761,5.0
538,1436982020775,5.0
539,1436982020795,5.0
540,1436982020814,5.0
541,1436982020835,5.0
542,1436982020855,5.0
543,1436982020874,5.0
544,1436982020895,6.0
545,1436982020915,6.0
546,1436982020935,6.0
547,1436982020954,6.0
548,1436982020976,9.0
549,1436982020996,9.0
550,1436982021015,20.0
551,1436982021035,20.0
552,1436982021055,49.0
553,1436982021075,49.0
554,1436982021095,95.0
555,1436982021113,95.0
556,1436982021134,120.0
557,1436982021154,120.0
558,1436982021175,121.0
559,1436982021195,121.0
560,1436982021215,79.0
561,1436982021234,79.0
562,1436982021254,35.0
563,1436982021276,35.0
564,1436982021299,6.0
565,1436982021315,6.0
566,1436982021337,4.0
567,1436982021357,4.0
568,1436982021377,5.0
569,1436982021398,5.0
570,1436982021418,5.0
571,1436982021439,5.0
572,1436982021459,4.0
573,1436982021477,4.0
574,1436982021505,4.0
575,1436982021519,4.0
576,1436982021536,5.0
577,1436982021565,5.0
578,1436982021576,4.0
579,1436982021598,4.0
580,1436982021642,4.0
581,1436982021643,4.0
582,1436982021878,4.0
583,1436982021879,4.0
584,1436982021880,5.0
585,1436982021881,8.0
586,1436982021882,8.0
587,1436982021883,14.0
588,1436982021884,14.0
589,1436982021885,13.0
590,1436982021886,13.0
591,1436982021918,30.0
592,1436982021919,30.0
593,1436982021920,48.0
594,1436982021921,48.0
595,1436982021922,29.0
596,1436982021969,29.0
597,1436982021970,8.0
598,1436982021992,8.0
599,1436982021996,19.0
600,1436982022022,19.0
601,1436982022036,23.0
602,1436982022085,23.0
603,1436982022086,15.0
604,1436982022096,15.0
605,1436982022116,21.0
606,1436982022136,21.0
607,1436982022156,8.0
608,1436982022178,8.0
609,1436982022198,5.0
610,1436982022216,5.0
611,1436982022244,4.0
612,1436982022256,4.0
613,1436982022276,4.0
614,1436982022298,4.0
615,1436982022317,5.0
616,1436982022336,5.0
617,1436982022357,5.0
618,1436982022377,5.0
619,1436982022395,15.0
620,1436982022419,15.0
621,1436982022436,5.0
622,1436982022456,5.0
623,1436982022476,5.0
624,1436982022496,5.0
625,1436982022543,6.0
626,1436982022544,5.0
627,1436982022555,5.0
628,1436982022577,5.0
629,1436982022595,5.0
630,1436982022617,5.0
631,1436982022638,5.0
632,1436982022658,4.0
633,1436982022677,4.0
634,1436982022699,4.0
635,1436982022718,4.0
636,1436982022740,5.0
637,1436982022760,5.0
638,1436982022777,20.0
639,1436982022800,20.0
640,1436982022820,10.0
641,1436982022836,10.0
642,1436982022857,19.0
643,1436982022880,19.0
644,1436982022902,31.0
645,1436982022917,31.0
646,1436982022937,39.0
647,1436982022957,39.0
648,1436982022977,8.0
649,1436982023001,8.0
650,1436982023017,5.0
651,1436982023042,5.0
652,1436982023058,5.0
653,1436982023078,5.0
654,1436982023101,6.0
655,1436982023119,6.0
656,1436982023138,5.0
657,1436982023166,5.0
658,1436982023226,6.0
659,1436982023227,6.0
660,1436982023228,5.0
661,1436982023248,5.0
662,1436982023257,6.0
663,1436982023279,6.0
664,1436982023298,7.0
665,1436982023317,7.0
666,1436982023338,6.0
667,1436982023357,6.0
668,1436982023380,5.0
669,1436982023403,4.0
670,1436982023418,4.0
671,1436982023438,4.0
672,1436982023460,4.0
673,1436982023481,3.0
674,1436982023501,3.0
675,1436982023519,3.0
676,1436982023541,3.0
677,1436982023560,3.0
678,1436982023579,3.0
679,1436982023601,4.0
680,1436982023619,4.0
681,1436982023643,5.0
682,1436982023658,5.0
683,1436982023679,4.0
684,1436982023701,4.0
685,1436982023722,4.0
686,1436982023740,4.0
687,1436982023762,4.0
688,1436982023778,4.0
689,1436982023799,5.0
690,1436982023822,5.0
691,1436982023840,8.0
692,1436982023865,8.0
693,1436982023879,8.0
694,1436982023926,8.0
695,1436982024054,6.0
696,1436982024066,6.0
697,1436982024067,7.0
698,1436982024069,7.0
699,1436982024070,6.0
700,1436982024071,6.0
701,1436982024072,5.0
702,1436982024073,5.0
703,1436982024111,4.0
704,1436982024112,4.0
705,1436982024152,4.0
706,1436982024153,4.0
707,1436982024159,4.0
708,1436982024179,4.0
709,1436982024200,3.0
710,1436982024219,3.0
711,1436982024241,3.0
712,1436982024259,3.0
713,1436982024281,3.0
714,1436982024300,5.0
715,1436982024322,5.0
716,1436982024342,4.0
717,1436982024362,4.0
718,1436982024378,5.0
719,1436982024401,5.0
720,1436982024422,6.0
721,1436982024444,6.0
722,1436982024460,5.0
723,1436982024480,5.0
724,1436982024502,5.0
725,1436982024523,5.0
726,1436982024543,5.0
727,1436982024564,5.0
728,1436982024581,4.0
729,1436982024598,4.0
730,1436982024622,4.0
731,1436982024642,4.0
732,1436982024661,4.0
733,1436982024683,4.0
734,1436982024704,5.0
735,1436982024721,5.0
736,1436982024789,5.0
737,1436982024790,5.0
738,1436982024791,6.0
739,1436982024804,6.0
740,1436982024819,17.0
741,1436982024839,17.0
742,1436982024859,9.0
743,1436982024885,9.0
744,1436982024901,6.0
745,1436982024921,6.0
746,1436982024941,4.0
747,1436982024960,4.0
748,1436982024982,3.0
749,1436982024999,3.0
750,1436982025022,9.0
751,1436982025042,15.0
752,1436982025062,15.0
753,1436982025082,7.0
754,1436982025102,7.0
755,1436982025122,5.0
756,1436982025142,5.0
757,1436982025161,5.0
758,1436982025184,5.0
759,1436982025203,11.0
760,1436982025222,11.0
761,1436982025242,26.0
762,1436982025263,26.0
763,1436982025282,43.0
764,1436982025304,43.0
765,1436982025322,43.0
766,1436982025343,43.0
767,1436982025363,11.0
768,1436982025383,11.0
769,1436982025403,6.0
770,1436982025423,6.0
771,1436982025442,6.0
772,1436982025462,6.0
773,1436982025517,6.0
774,1436982025519,6.0
775,1436982025520,6.0
776,1436982025542,6.0
777,1436982025562,5.0
778,1436982025584,5.0
779,1436982025599,5.0
780,1436982025619,5.0
781,1436982025643,4.0
782,1436982025661,4.0
783,1436982025696,4.0
784,1436982025701,4.0
785,1436982025719,3.0
786,1436982025739,3.0
787,1436982025759,3.0
788,1436982025779,3.0
789,1436982025800,4.0
790,1436982025823,4.0
791,1436982025843,4.0
792,1436982025863,5.0
793,1436982025883,5.0
794,1436982025903,6.0
795,1436982025924,6.0
796,1436982025941,5.0
797,1436982025963,5.0
798,1436982025980,5.0
799,1436982026001,5.0
800,1436982026022,4.0
801,1436982026045,4.0
802,1436982026065,4.0
803,1436982026086,4.0
804,1436982026103,4.0
805,1436982026119,4.0
806,1436982026141,4.0
807,1436982026160,4.0
808,1436982026183,4.0
809,1436982026271,4.0
810,1436982026272,4.0
811,1436982026273,4.0
812,1436982026274,4.0
813,1436982026283,4.0
814,1436982026303,4.0
815,1436982026325,4.0
816,1436982026340,4.0
817,1436982026366,4.0
818,1436982026383,4.0
819,1436982026402,4.0
820,1436982026423,3.0
821,1436982026442,3.0
822,1436982026465,3.0
823,1436982026484,3.0
824,1436982026503,3.0
825,1436982026524,3.0
826,1436982026543,3.0
827,1436982026587,3.0
828,1436982026588,4.0
829,1436982026603,4.0
830,1436982026624,4.0
831,1436982026644,4.0
832,1436982026662,4.0
833,1436982026684,7.0
834,1436982026704,7.0
835,1436982026722,8.0
836,1436982026740,8.0
837,1436982026761,5.0
838,1436982026786,5.0
839,1436982026806,5.0
840,1436982026827,5.0
841,1436982026841,6.0
842,1436982026862,6.0
843,1436982026882,5.0
844,1436982026901,5.0
845,1436982026923,5.0
846,1436982026942,5.0
847,1436982027015,5.0
848,1436982027016,5.0
849,1436982027017,5.0
850,1436982027023,5.0
851,1436982027043,6.0
852,1436982027065,6.0
853,1436982027081,14.0
854,1436982027107,14.0
855,1436982027122,15.0
856,1436982027144,15.0
857,1436982027162,6.0
858,1436982027183,6.0
859,1436982027208,3.0
860,1436982027223,3.0
861,1436982027245,3.0
862,1436982027264,3.0
863,1436982027284,3.0
864,1436982027304,3.0
865,1436982027324,4.0
866,1436982027346,4.0
867,1436982027364,11.0
868,1436982027382,11.0
869,1436982027402,9.0
870,1436982027422,9.0
871,1436982027444,6.0
872,1436982027463,6.0
873,1436982027484,7.0
874,1436982027505,4.0
875,1436982027526,4.0
876,1436982027546,4.0
877,1436982027566,4.0
878,1436982027584,5.0
879,1436982027602,5.0
880,1436982027624,11.0
881,1436982027644,11.0
882,1436982027662,7.0
883,1436982027682,7.0
884,1436982027754,4.0
885,1436982027755,4.0
886,1436982027756,4.0
887,1436982027761,4.0
888,1436982027783,4.0
889,1436982027803,4.0
890,1436982027822,6.0
891,1436982027846,6.0
892,1436982027862,3.0
893,1436982027882,3.0
