id,attr_time,attr_light
1,1436982010023,22.0
2,1436982010039,22.0
3,1436982010136,22.0
4,1436982010137,22.0
5,1436982010138,22.0
6,1436982010139,22.0
7,1436982010140,22.0
8,1436982010158,22.0
9,1436982010178,22.0
10,1436982010198,22.0
11,1436982010218,22.0
12,1436982010238,22.0
13,1436982010258,22.0
14,1436982010278,22.0
15,1436982010298,22.0
16,1436982010318,22.0
17,1436982010338,22.0
18,1436982010359,22.0
19,1436982010379,22.0
20,1436982010400,22.0
21,1436982010419,22.0
22,1436982010439,22.0
23,1436982010459,22.0
24,1436982010479,22.0
25,1436982010499,22.0
26,1436982010519,22.0
27,1436982010539,22.0
28,1436982010559,22.0
29,1436982010579,22.0
30,1436982010599,22.0
31,1436982010734,22.0
32,1436982010735,22.0
33,1436982010736,22.0
34,1436982010737,22.0
35,1436982010738,22.0
36,1436982010739,22.0
37,1436982010740,22.0
38,1436982010785,22.0
39,1436982010786,22.0
40,1436982010802,22.0
41,1436982010818,22.0
42,1436982010838,22.0
43,1436982010858,22.0
44,1436982010878,22.0
45,1436982010899,22.0
46,1436982010918,22.0
47,1436982010938,22.0
48,1436982010958,22.0
49,1436982010978,22.0
50,1436982010998,22.0
51,1436982011018,22.0
52,1436982011039,22.0
53,1436982011059,22.0
54,1436982011079,22.0
55,1436982011101,22.0
56,1436982011122,22.0
57,1436982011140,22.0
58,1436982011164,22.0
59,1436982011179,22.0
60,1436982011280,22.0
61,1436982011281,22.0
62,1436982011282,22.0
63,1436982011283,22.0
64,1436982011284,22.0
65,1436982011300,22.0
66,1436982011320,22.0
67,1436982011342,22.0
68,1436982011360,22.0
69,1436982011381,22.0
70,1436982011400,22.0
71,1436982011421,22.0
72,1436982011440,22.0
73,1436982011465,22.0
74,1436982011480,22.0
75,1436982011505,22.0
76,1436982011520,22.0
77,1436982011540,22.0
78,1436982011560,22.0
79,1436982011580,22.0
80,1436982011641,22.0
81,1436982011642,22.0
82,1436982011643,22.0
83,1436982011660,22.0
84,1436982011680,22.0
85,1436982011700,22.0
86,1436982011719,22.0
87,1436982011739,22.0
88,1436982011804,22.0
89,1436982011805,22.0
90,1436982011806,22.0
91,1436982011819,22.0
92,1436982011839,22.0
93,1436982011859,22.0
94,1436982011879,22.0
95,1436982011900,22.0
96,1436982011920,22.0
97,1436982011939,22.0
98,1436982011960,22.0
99,1436982011980,22.0
100,1436982012000,22.0
101,1436982012020,22.0
102,1436982012040,22.0
103,1436982012059,22.0
104,1436982012080,22.0
105,1436982012100,22.0
106,1436982012120,22.0
107,1436982012140,22.0
108,1436982012160,22.0
109,1436982012180,22.0
110,1436982012200,22.0
111,1436982012220,22.0
112,1436982012240,22.0
113,1436982012260,22.0
114,1436982012280,22.0
115,1436982012304,22.0
116,1436982012324,22.0
117,1436982012344,22.0
118,1436982012365,22.0
119,1436982012386,22.0
120,1436982012494,22.0
121,1436982012495,22.0
122,1436982012496,22.0
123,1436982012497,22.0
124,1436982012498,22.0
125,1436982012500,22.0
126,1436982012520,22.0
127,1436982012540,22.0
128,1436982012560,22.0
129,1436982012580,22.0
130,1436982012600,22.0
131,1436982012620,22.0
132,1436982012640,22.0
133,1436982012660,22.0
134,1436982012680,22.0
135,1436982012704,22.0
136,1436982012722,22.0
137,1436982012741,22.0
138,1436982012761,22.0
139,1436982012781,22.0
140,1436982012801,22.0
141,1436982012821,22.0
142,1436982012841,22.0
143,1436982012861,22.0
144,1436982012881,22.0
145,1436982012901,22.0
146,1436982012921,22.0
147,1436982012941,22.0
148,1436982012961,22.0
149,1436982012981,22.0
150,1436982013005,22.0
151,1436982013033,22.0
152,1436982013136,22.0
153,1436982013137,22.0
154,1436982013138,22.0
155,1436982013139,22.0
156,1436982013140,22.0
157,1436982013143,22.0
158,1436982013162,22.0
159,1436982013181,22.0
160,1436982013201,22.0
161,1436982013221,22.0
162,1436982013241,22.0
163,1436982013261,22.0
164,1436982013281,22.0
165,1436982013301,22.0
166,1436982013321,22.0
167,1436982013341,22.0
168,1436982013361,22.0
169,1436982013381,22.0
170,1436982013405,22.0
171,1436982013424,22.0
172,1436982013443,22.0
173,1436982013464,22.0
174,1436982013486,22.0
175,1436982013505,22.0
176,1436982013569,22.0
177,1436982013570,22.0
178,1436982013571,22.0
179,1436982013581,22.0
180,1436982013601,22.0
181,1436982013621,22.0
182,1436982013641,22.0
183,1436982013661,22.0
184,1436982013681,22.0
185,1436982013702,22.0
186,1436982013722,22.0
187,1436982013742,22.0
188,1436982013762,22.0
189,1436982013782,22.0
190,1436982013802,22.0
191,1436982013822,22.0
192,1436982013842,22.0
193,1436982013862,22.0
194,1436982013882,22.0
195,1436982013902,22.0
196,1436982013922,22.0
197,1436982013942,22.0
198,1436982013992,22.0
199,1436982013993,22.0
200,1436982014047,22.0
201,1436982014048,22.0
202,1436982014049,22.0
203,1436982014237,22.0
204,1436982014238,22.0
205,1436982014239,22.0
206,1436982014240,22.0
207,1436982014241,22.0
208,1436982014242,22.0
209,1436982014243,22.0
210,1436982014244,22.0
211,1436982014245,22.0
212,1436982014246,22.0
213,1436982014262,22.0
214,1436982014282,22.0
215,1436982014302,22.0
216,1436982014322,22.0
217,1436982014342,22.0
218,1436982014362,22.0
219,1436982014382,22.0
220,1436982014402,22.0
221,1436982014422,22.0
222,1436982014445,22.0
223,1436982014465,22.0
224,1436982014488,22.0
225,1436982014504,22.0
226,1436982014522,22.0
227,1436982014590,22.0
228,1436982014591,22.0
229,1436982014592,22.0
230,1436982014602,22.0
231,1436982014622,22.0
232,1436982014642,22.0
233,1436982014662,22.0
234,1436982014682,22.0
235,1436982014702,22.0
236,1436982014722,22.0
237,1436982014742,22.0
238,1436982014763,22.0
239,1436982014783,22.0
240,1436982014803,22.0
241,1436982014823,22.0
242,1436982014843,22.0
243,1436982014863,22.0
244,1436982014883,22.0
245,1436982014903,22.0
246,1436982014923,22.0
247,1436982014943,22.0
248,1436982014963,22.0
249,1436982014997,22.0
250,1436982015003,22.0
251,1436982015025,22.0
252,1436982015043,22.0
253,1436982015063,22.0
254,1436982015083,22.0
255,1436982015103,22.0
256,1436982015123,23.0
257,1436982015143,23.0
258,1436982015163,23.0
259,1436982015183,23.0
260,1436982015203,24.0
261,1436982015223,24.0
262,1436982015243,24.0
263,1436982015263,24.0
264,1436982015283,25.0
265,1436982015303,25.0
266,1436982015323,26.0
267,1436982015343,26.0
268,1436982015363,26.0
269,1436982015383,26.0
270,1436982015409,27.0
271,1436982015431,28.0
272,1436982015450,28.0
273,1436982015469,29.0
274,1436982015494,29.0
275,1436982015705,30.0
276,1436982015706,30.0
277,1436982015707,30.0
278,1436982015708,30.0
279,1436982015709,30.0
280,1436982015710,30.0
281,1436982015711,32.0
282,1436982015712,32.0
283,1436982015713,34.0
284,1436982015714,34.0
285,1436982015715,35.0
286,1436982015725,37.0
287,1436982015745,37.0
288,1436982015764,38.0
289,1436982015785,38.0
290,1436982015805,40.0
291,1436982015825,40.0
292,1436982015845,45.0
293,1436982015865,45.0
294,1436982015887,47.0
295,1436982015905,47.0
296,1436982015925,50.0
297,1436982015945,50.0
298,1436982015965,54.0
299,1436982015985,59.0
300,1436982016005,59.0
301,1436982016025,63.0
302,1436982016045,63.0
303,1436982016065,59.0
304,1436982016085,59.0
305,1436982016105,47.0
306,1436982016125,47.0
307,1436982016147,67.0
308,1436982016165,67.0
309,1436982016185,80.0
310,1436982016205,80.0
311,1436982016224,60.0
312,1436982016244,60.0
313,1436982016264,51.0
314,1436982016284,42.0
315,1436982016304,42.0
316,1436982016324,37.0
317,1436982016344,37.0
318,1436982016364,35.0
319,1436982016386,35.0
320,1436982016404,33.0
321,1436982016424,33.0
322,1436982016444,33.0
323,1436982016464,33.0
324,1436982016484,31.0
325,1436982016504,31.0
326,1436982016524,30.0
327,1436982016544,30.0
328,1436982016565,30.0
329,1436982016586,30.0
330,1436982016608,30.0
331,1436982016629,30.0
332,1436982016647,30.0
333,1436982016667,32.0
334,1436982016687,32.0
335,1436982016709,34.0
336,1436982016725,34.0
337,1436982016746,32.0
338,1436982016765,32.0
339,1436982016787,31.0
340,1436982016810,31.0
341,1436982016828,31.0
342,1436982016847,31.0
343,1436982016866,32.0
344,1436982016973,31.0
345,1436982016974,31.0
346,1436982016975,32.0
347,1436982016976,32.0
348,1436982016977,33.0
349,1436982016985,33.0
350,1436982017005,34.0
351,1436982017026,34.0
352,1436982017045,33.0
353,1436982017065,33.0
354,1436982017211,31.0
355,1436982017212,31.0
356,1436982017213,31.0
357,1436982017214,31.0
358,1436982017215,33.0
359,1436982017216,31.0
360,1436982017217,31.0
361,1436982017225,30.0
362,1436982017252,30.0
363,1436982017265,30.0
364,1436982017285,30.0
365,1436982017305,32.0
366,1436982017325,32.0
367,1436982017345,48.0
368,1436982017365,48.0
369,1436982017385,56.0
370,1436982017405,56.0
371,1436982017425,38.0
372,1436982017445,32.0
373,1436982017465,32.0
374,1436982017485,31.0
375,1436982017505,31.0
376,1436982017525,32.0
377,1436982017545,32.0
378,1436982017565,33.0
379,1436982017585,33.0
380,1436982017605,33.0
381,1436982017625,33.0
382,1436982017645,33.0
383,1436982017665,33.0
384,1436982017685,34.0
385,1436982017705,34.0
386,1436982017725,34.0
387,1436982017745,35.0
388,1436982017768,35.0
389,1436982017788,36.0
390,1436982017808,36.0
391,1436982017826,36.0
392,1436982017847,36.0
393,1436982017869,37.0
394,1436982017935,37.0
395,1436982017936,37.0
396,1436982017937,37.0
397,1436982017945,37.0
398,1436982017965,37.0
399,1436982017985,37.0
400,1436982018005,37.0
401,1436982018025,37.0
402,1436982018045,36.0
403,1436982018065,36.0
404,1436982018086,35.0
405,1436982018106,35.0
406,1436982018125,40.0
407,1436982018145,40.0
408,1436982018166,36.0
409,1436982018186,36.0
410,1436982018206,32.0
411,1436982018226,32.0
412,1436982018246,30.0
413,1436982018266,30.0
414,1436982018286,29.0
415,1436982018306,29.0
416,1436982018333,28.0
417,1436982018346,28.0
418,1436982018366,28.0
419,1436982018416,28.0
420,1436982018417,28.0
421,1436982018428,28.0
422,1436982018452,28.0
423,1436982018466,28.0
424,1436982018486,28.0
425,1436982018506,28.0
426,1436982018526,28.0
427,1436982018546,27.0
428,1436982018566,27.0
429,1436982018586,27.0
430,1436982018606,27.0
431,1436982018626,26.0
432,1436982018646,26.0
433,1436982018666,26.0
434,1436982018686,25.0
435,1436982018706,25.0
436,1436982018726,25.0
437,1436982018747,25.0
438,1436982018767,25.0
439,1436982018787,25.0
440,1436982018806,24.0
441,1436982018877,24.0
442,1436982018878,24.0
443,1436982018879,24.0
444,1436982018887,23.0
445,1436982018906,23.0
446,1436982018926,23.0
447,1436982018946,22.0
448,1436982018966,22.0
449,1436982018987,22.0
450,1436982019007,22.0
451,1436982019028,21.0
452,1436982019046,21.0
453,1436982019066,21.0
454,1436982019086,21.0
455,1436982019106,22.0
456,1436982019126,22.0
457,1436982019146,22.0
458,1436982019166,22.0
459,1436982019186,22.0
460,1436982019208,22.0
461,1436982019226,22.0
462,1436982019246,22.0
463,1436982019266,22.0
464,1436982019286,22.0
465,1436982019307,22.0
466,1436982019327,21.0
467,1436982019349,21.0
468,1436982019369,21.0
469,1436982019388,21.0
470,1436982019409,21.0
471,1436982019430,21.0
472,1436982019451,21.0
473,1436982019469,21.0
474,1436982019487,21.0
475,1436982019508,22.0
476,1436982019530,22.0
477,1436982019548,22.0
478,1436982019572,22.0
479,1436982019588,22.0
480,1436982019607,22.0
481,1436982019630,22.0
482,1436982019648,22.0
483,1436982019723,22.0
484,1436982019724,22.0
485,1436982019725,22.0
486,1436982019727,22.0
487,1436982019747,22.0
488,1436982019767,22.0
489,1436982019787,22.0
490,1436982019807,23.0
491,1436982019827,23.0
492,1436982019848,24.0
493,1436982019868,24.0
494,1436982019888,24.0
495,1436982019908,24.0
496,1436982019928,24.0
497,1436982019948,24.0
498,1436982019968,25.0
499,1436982019991,25.0
500,1436982020010,25.0
501,1436982020028,25.0
502,1436982020048,26.0
503,1436982020068,26.0
504,1436982020088,25.0
505,1436982020108,25.0
506,1436982020128,25.0
507,1436982020148,24.0
508,1436982020168,24.0
509,1436982020188,23.0
510,1436982020208,23.0
511,1436982020227,23.0
512,1436982020247,23.0
513,1436982020272,24.0
514,1436982020287,24.0
515,1436982020308,23.0
516,1436982020332,23.0
517,1436982020364,23.0
518,1436982020399,24.0
519,1436982020400,24.0
520,1436982020409,25.0
521,1436982020431,25.0
522,1436982020449,23.0
523,1436982020468,23.0
524,1436982020493,22.0
525,1436982020510,22.0
526,1436982020528,22.0
527,1436982020549,22.0
528,1436982020570,21.0
529,1436982020592,21.0
530,1436982020612,21.0
531,1436982020631,21.0
532,1436982020652,22.0
533,1436982020668,22.0
534,1436982020689,22.0
535,1436982020714,22.0
536,1436982020733,22.0
537,1436982020829,22.0
538,1436982020830,22.0
539,1436982020831,24.0
540,1436982020832,24.0
541,1436982020833,26.0
542,1436982020849,26.0
543,1436982020869,33.0
544,1436982020888,33.0
545,1436982020909,28.0
546,1436982020929,28.0
547,1436982020949,22.0
548,1436982020969,22.0
549,1436982020989,22.0
550,1436982021009,22.0
551,1436982021029,22.0
552,1436982021049,22.0
553,1436982021070,22.0
554,1436982021089,22.0
555,1436982021109,22.0
556,1436982021129,21.0
557,1436982021149,21.0
558,1436982021169,21.0
559,1436982021189,21.0
560,1436982021209,20.0
561,1436982021228,20.0
562,1436982021248,19.0
563,1436982021268,18.0
564,1436982021288,18.0
565,1436982021310,17.0
566,1436982021328,17.0
567,1436982021349,17.0
568,1436982021369,17.0
569,1436982021389,17.0
570,1436982021409,17.0
571,1436982021429,17.0
572,1436982021449,17.0
573,1436982021474,17.0
574,1436982021497,17.0
575,1436982021509,17.0
576,1436982021529,17.0
577,1436982021549,17.0
578,1436982021571,17.0
579,1436982021594,17.0
580,1436982021610,17.0
581,1436982021632,17.0
582,1436982021651,17.0
583,1436982021670,17.0
584,1436982021693,17.0
585,1436982021711,17.0
586,1436982021734,17.0
587,1436982021751,17.0
588,1436982021769,18.0
589,1436982021837,18.0
590,1436982021838,21.0
591,1436982021839,23.0
592,1436982021853,23.0
593,1436982021869,28.0
594,1436982021889,28.0
595,1436982021910,30.0
596,1436982021929,30.0
597,1436982021949,23.0
598,1436982021969,23.0
599,1436982021991,22.0
600,1436982022009,22.0
601,1436982022029,18.0
602,1436982022049,18.0
603,1436982022069,16.0
604,1436982022103,16.0
605,1436982022109,18.0
606,1436982022129,16.0
607,1436982022149,16.0
608,1436982022169,16.0
609,1436982022189,16.0
610,1436982022211,16.0
611,1436982022229,16.0
612,1436982022249,16.0
613,1436982022269,16.0
614,1436982022289,16.0
615,1436982022309,16.0
616,1436982022329,16.0
617,1436982022352,16.0
618,1436982022371,16.0
619,1436982022391,16.0
620,1436982022411,15.0
621,1436982022432,15.0
622,1436982022455,15.0
623,1436982022473,15.0
624,1436982022493,15.0
625,1436982022512,16.0
626,1436982022534,16.0
627,1436982022554,16.0
628,1436982022576,16.0
629,1436982022595,20.0
630,1436982022610,20.0
631,1436982022631,48.0
632,1436982022655,48.0
633,1436982022672,50.0
634,1436982022737,50.0
635,1436982022738,23.0
636,1436982022739,18.0
637,1436982022762,18.0
638,1436982022770,19.0
639,1436982022790,19.0
640,1436982022811,17.0
641,1436982022831,17.0
642,1436982022851,15.0
643,1436982022871,15.0
644,1436982022891,15.0
645,1436982022911,15.0
646,1436982022931,16.0
647,1436982022951,16.0
648,1436982022971,16.0
649,1436982022995,16.0
650,1436982023012,17.0
651,1436982023031,16.0
652,1436982023051,16.0
653,1436982023071,15.0
654,1436982023091,15.0
655,1436982023111,15.0
656,1436982023131,15.0
657,1436982023151,15.0
658,1436982023171,15.0
659,1436982023191,15.0
660,1436982023211,15.0
661,1436982023230,15.0
662,1436982023250,15.0
663,1436982023270,15.0
664,1436982023322,16.0
665,1436982023323,16.0
666,1436982023403,16.0
667,1436982023404,16.0
668,1436982023405,16.0
669,1436982023406,16.0
670,1436982023411,16.0
671,1436982023434,16.0
672,1436982023455,16.0
673,1436982023472,16.0
674,1436982023492,15.0
675,1436982023516,15.0
676,1436982023535,14.0
677,1436982023555,14.0
678,1436982023575,15.0
679,1436982023596,14.0
680,1436982023616,14.0
681,1436982023637,15.0
682,1436982023656,15.0
683,1436982023675,17.0
684,1436982023696,17.0
685,1436982023716,18.0
686,1436982023735,18.0
687,1436982023758,19.0
688,1436982023863,19.0
689,1436982023864,21.0
690,1436982023865,21.0
691,1436982023866,16.0
692,1436982023867,16.0
693,1436982023883,14.0
694,1436982023892,14.0
695,1436982023912,14.0
696,1436982023932,14.0
697,1436982023952,14.0
698,1436982023972,14.0
699,1436982023992,14.0
700,1436982024012,15.0
701,1436982024032,15.0
702,1436982024052,15.0
703,1436982024072,15.0
704,1436982024092,15.0
705,1436982024114,15.0
706,1436982024133,15.0
707,1436982024152,15.0
708,1436982024172,14.0
709,1436982024192,14.0
710,1436982024212,14.0
711,1436982024232,14.0
712,1436982024252,14.0
713,1436982024272,13.0
714,1436982024292,13.0
715,1436982024312,13.0
716,1436982024332,13.0
717,1436982024353,13.0
718,1436982024389,13.0
719,1436982024403,14.0
720,1436982024416,14.0
721,1436982024527,14.0
722,1436982024528,14.0
723,1436982024529,15.0
724,1436982024530,15.0
725,1436982024531,15.0
726,1436982024607,14.0
727,1436982024608,14.0
728,1436982024609,14.0
729,1436982024610,14.0
730,1436982024613,15.0
731,1436982024632,15.0
732,1436982024653,15.0
733,1436982024672,15.0
734,1436982024692,16.0
735,1436982024712,16.0
736,1436982024732,16.0
737,1436982024752,16.0
738,1436982024772,16.0
739,1436982024792,16.0
740,1436982024812,16.0
741,1436982024832,16.0
742,1436982024856,16.0
743,1436982024874,16.0
744,1436982024894,16.0
745,1436982024917,16.0
746,1436982024988,16.0
747,1436982024989,15.0
748,1436982024990,15.0
749,1436982025006,15.0
750,1436982025012,15.0
751,1436982025032,14.0
752,1436982025052,14.0
753,1436982025072,14.0
754,1436982025092,14.0
755,1436982025113,14.0
756,1436982025132,14.0
757,1436982025153,14.0
758,1436982025173,15.0
759,1436982025195,15.0
760,1436982025213,14.0
761,1436982025233,14.0
762,1436982025253,14.0
763,1436982025273,14.0
764,1436982025293,14.0
765,1436982025313,14.0
766,1436982025333,14.0
767,1436982025353,14.0
768,1436982025373,14.0
769,1436982025393,13.0
770,1436982025415,13.0
771,1436982025433,13.0
772,1436982025454,13.0
773,1436982025473,14.0
774,1436982025493,14.0
775,1436982025525,14.0
776,1436982025603,14.0
777,1436982025604,14.0
778,1436982025605,14.0
779,1436982025606,14.0
780,1436982025614,14.0
781,1436982025639,14.0
782,1436982025656,14.0
783,1436982025674,14.0
784,1436982025694,14.0
785,1436982025717,14.0
786,1436982025735,13.0
787,1436982025756,13.0
788,1436982025775,13.0
789,1436982025799,13.0
790,1436982025819,13.0
791,1436982025839,13.0
792,1436982025858,13.0
793,1436982025875,13.0
794,1436982025895,13.0
795,1436982025916,13.0
796,1436982025934,13.0
797,1436982025957,12.0
798,1436982026018,12.0
799,1436982026019,12.0
800,1436982026020,12.0
801,1436982026042,12.0
802,1436982026053,12.0
803,1436982026073,12.0
804,1436982026093,12.0
805,1436982026113,12.0
806,1436982026133,12.0
807,1436982026153,12.0
808,1436982026176,12.0
809,1436982026196,12.0
810,1436982026214,12.0
811,1436982026234,12.0
812,1436982026254,12.0
813,1436982026274,12.0
814,1436982026294,12.0
815,1436982026314,12.0
816,1436982026334,12.0
817,1436982026354,12.0
818,1436982026374,12.0
819,1436982026394,12.0
820,1436982026414,11.0
821,1436982026434,11.0
822,1436982026454,11.0
823,1436982026475,11.0
824,1436982026564,14.0
825,1436982026565,13.0
826,1436982026566,13.0
827,1436982026567,11.0
828,1436982026690,11.0
829,1436982026691,11.0
830,1436982026692,11.0
831,1436982026693,11.0
832,1436982026694,11.0
833,1436982026695,11.0
834,1436982026696,11.0
835,1436982026715,11.0
836,1436982026734,11.0
837,1436982026755,11.0
838,1436982026775,11.0
839,1436982026797,11.0
840,1436982026820,11.0
841,1436982026840,11.0
842,1436982026857,11.0
843,1436982026876,11.0
844,1436982026896,12.0
845,1436982026916,12.0
846,1436982026940,13.0
847,1436982026960,13.0
848,1436982026977,11.0
849,1436982026995,11.0
850,1436982027015,11.0
851,1436982027079,11.0
852,1436982027080,11.0
853,1436982027081,11.0
854,1436982027094,11.0
855,1436982027130,11.0
856,1436982027134,11.0
857,1436982027154,11.0
858,1436982027174,11.0
859,1436982027194,10.0
860,1436982027215,10.0
861,1436982027235,10.0
862,1436982027257,10.0
863,1436982027276,10.0
864,1436982027295,10.0
865,1436982027315,10.0
866,1436982027335,10.0
867,1436982027355,10.0
868,1436982027375,10.0
869,1436982027395,12.0
870,1436982027415,14.0
871,1436982027435,14.0
872,1436982027455,14.0
873,1436982027475,14.0
