id,attr_time,attr_light
1,1436982010022,54.0
2,1436982010042,54.0
3,1436982010063,54.0
4,1436982010112,54.0
5,1436982010113,53.0
6,1436982010123,53.0
7,1436982010151,53.0
8,1436982010162,53.0
9,1436982010188,53.0
10,1436982010202,52.0
11,1436982010223,52.0
12,1436982010246,52.0
13,1436982010264,52.0
14,1436982010284,52.0
15,1436982010304,52.0
16,1436982010323,51.0
17,1436982010344,51.0
18,1436982010364,51.0
19,1436982010385,51.0
20,1436982010404,51.0
21,1436982010426,50.0
22,1436982010446,50.0
23,1436982010464,50.0
24,1436982010483,50.0
25,1436982010505,50.0
26,1436982010527,50.0
27,1436982010579,49.0
28,1436982010580,49.0
29,1436982010583,48.0
30,1436982010603,48.0
31,1436982010623,48.0
32,1436982010644,48.0
33,1436982010663,48.0
34,1436982010683,48.0
35,1436982010705,48.0
36,1436982010723,48.0
37,1436982010744,48.0
38,1436982010767,47.0
39,1436982010787,47.0
40,1436982010808,47.0
41,1436982010829,47.0
42,1436982010844,47.0
43,1436982010864,47.0
44,1436982010884,47.0
45,1436982010904,47.0
46,1436982010924,47.0
47,1436982010948,46.0
48,1436982010969,46.0
49,1436982010987,46.0
50,1436982011041,46.0
51,1436982011042,47.0
52,1436982011043,47.0
53,1436982011063,47.0
54,1436982011084,47.0
55,1436982011104,47.0
56,1436982011125,47.0
57,1436982011144,47.0
58,1436982011164,47.0
59,1436982011186,47.0
60,1436982011205,48.0
61,1436982011224,48.0
62,1436982011251,48.0
63,1436982011267,48.0
64,1436982011286,48.0
65,1436982011305,48.0
66,1436982011325,48.0
67,1436982011345,48.0
68,1436982011365,48.0
69,1436982011386,49.0
70,1436982011409,49.0
71,1436982011429,49.0
72,1436982011449,49.0
73,1436982011465,49.0
74,1436982011485,50.0
75,1436982011509,50.0
76,1436982011527,50.0
77,1436982011625,50.0
78,1436982011626,51.0
79,1436982011627,51.0
80,1436982011628,51.0
81,1436982011629,51.0
82,1436982011645,52.0
83,1436982011665,52.0
84,1436982011685,52.0
85,1436982011705,53.0
86,1436982011724,53.0
87,1436982011746,54.0
88,1436982011764,54.0
89,1436982011787,54.0
90,1436982011811,54.0
91,1436982011895,55.0
92,1436982011896,55.0
93,1436982011897,56.0
94,1436982011898,57.0
95,1436982011928,57.0
96,1436982011929,58.0
97,1436982011947,58.0
98,1436982011968,59.0
99,1436982011988,59.0
100,1436982012008,60.0
101,1436982012029,60.0
102,1436982012047,61.0
103,1436982012066,61.0
104,1436982012085,62.0
105,1436982012105,63.0
106,1436982012134,63.0
107,1436982012214,64.0
108,1436982012215,64.0
109,1436982012216,65.0
110,1436982012217,65.0
111,1436982012226,66.0
112,1436982012245,66.0
113,1436982012265,67.0
114,1436982012285,67.0
115,1436982012305,69.0
116,1436982012325,70.0
117,1436982012347,70.0
118,1436982012365,71.0
119,1436982012387,71.0
120,1436982012409,72.0
121,1436982012427,72.0
122,1436982012446,73.0
123,1436982012466,73.0
124,1436982012486,74.0
125,1436982012506,74.0
126,1436982012525,75.0
127,1436982012549,76.0
128,1436982012569,76.0
129,1436982012591,77.0
130,1436982012608,77.0
131,1436982012626,78.0
132,1436982012646,78.0
133,1436982012666,79.0
134,1436982012695,79.0
135,1436982012767,80.0
136,1436982012768,80.0
137,1436982012769,81.0
138,1436982012770,82.0
139,1436982012785,82.0
140,1436982012805,82.0
141,1436982012828,82.0
142,1436982012845,82.0
143,1436982012866,82.0
144,1436982012891,83.0
145,1436982012907,83.0
146,1436982012927,83.0
147,1436982012947,84.0
148,1436982012970,84.0
149,1436982012986,84.0
150,1436982013006,84.0
151,1436982013026,84.0
152,1436982013047,84.0
153,1436982013067,85.0
154,1436982013087,85.0
155,1436982013110,85.0
156,1436982013141,85.0
157,1436982013146,85.0
158,1436982013166,86.0
159,1436982013186,86.0
160,1436982013206,86.0
161,1436982013227,86.0
162,1436982013246,86.0
163,1436982013266,86.0
164,1436982013298,86.0
165,1436982013309,86.0
166,1436982013328,87.0
167,1436982013346,87.0
168,1436982013366,87.0
169,1436982013386,87.0
170,1436982013406,87.0
171,1436982013428,87.0
172,1436982013446,87.0
173,1436982013470,87.0
174,1436982013487,87.0
175,1436982013508,88.0
176,1436982013527,88.0
177,1436982013548,88.0
178,1436982013570,88.0
179,1436982013587,88.0
180,1436982013607,89.0
181,1436982013627,89.0
182,1436982013647,90.0
183,1436982013666,90.0
184,1436982013688,91.0
185,1436982013708,91.0
186,1436982013728,92.0
187,1436982013748,92.0
188,1436982013768,93.0
189,1436982013788,93.0
190,1436982013806,95.0
191,1436982013826,96.0
192,1436982013849,96.0
193,1436982013866,97.0
194,1436982013886,97.0
195,1436982013906,97.0
196,1436982013928,97.0
197,1436982013945,98.0
198,1436982013968,98.0
199,1436982013987,98.0
200,1436982014006,98.0
201,1436982014027,98.0
202,1436982014046,98.0
203,1436982014066,98.0
204,1436982014088,98.0
205,1436982014120,98.0
206,1436982014150,98.0
207,1436982014151,98.0
208,1436982014179,98.0
209,1436982014187,98.0
210,1436982014207,99.0
211,1436982014227,98.0
212,1436982014247,98.0
213,1436982014272,98.0
214,1436982014288,98.0
215,1436982014312,98.0
216,1436982014340,98.0
217,1436982014361,98.0
218,1436982014368,98.0
219,1436982014387,98.0
220,1436982014407,98.0
221,1436982014428,98.0
222,1436982014447,98.0
223,1436982014467,98.0
224,1436982014501,98.0
225,1436982014507,98.0
226,1436982014534,98.0
227,1436982014548,98.0
228,1436982014572,98.0
229,1436982014586,98.0
230,1436982014606,97.0
231,1436982014626,97.0
232,1436982014646,96.0
233,1436982014668,96.0
234,1436982014690,96.0
235,1436982014708,95.0
236,1436982014728,95.0
237,1436982014748,93.0
238,1436982014767,93.0
239,1436982014787,91.0
240,1436982014809,91.0
241,1436982014830,88.0
242,1436982014850,88.0
243,1436982014866,84.0
244,1436982014902,80.0
245,1436982014907,80.0
246,1436982014929,73.0
247,1436982014948,73.0
248,1436982014968,66.0
249,1436982014987,66.0
250,1436982015007,59.0
251,1436982015027,59.0
252,1436982015050,51.0
253,1436982015068,51.0
254,1436982015090,41.0
255,1436982015109,34.0
256,1436982015129,34.0
257,1436982015148,27.0
258,1436982015170,27.0
259,1436982015189,24.0
260,1436982015211,24.0
261,1436982015267,20.0
262,1436982015268,20.0
263,1436982015269,17.0
264,1436982015289,14.0
265,1436982015307,14.0
266,1436982015327,14.0
267,1436982015347,14.0
268,1436982015368,15.0
269,1436982015389,15.0
270,1436982015407,16.0
271,1436982015427,16.0
272,1436982015448,18.0
273,1436982015471,18.0
274,1436982015489,20.0
275,1436982015510,21.0
276,1436982015530,21.0
277,1436982015547,25.0
278,1436982015568,25.0
279,1436982015589,38.0
280,1436982015612,38.0
281,1436982015632,48.0
282,1436982015656,48.0
283,1436982015672,80.0
284,1436982015691,80.0
285,1436982015760,107.0
286,1436982015761,81.0
287,1436982015762,81.0
288,1436982015768,54.0
289,1436982015788,54.0
290,1436982015811,81.0
291,1436982015828,81.0
292,1436982015850,99.0
293,1436982015868,99.0
294,1436982015891,48.0
295,1436982015909,48.0
296,1436982015929,36.0
297,1436982015953,47.0
298,1436982015974,47.0
299,1436982015997,16.0
300,1436982016009,16.0
301,1436982016038,9.0
302,1436982016054,9.0
303,1436982016073,10.0
304,1436982016094,10.0
305,1436982016112,8.0
306,1436982016130,8.0
307,1436982016149,7.0
308,1436982016169,7.0
309,1436982016209,7.0
310,1436982016210,8.0
311,1436982016232,8.0
312,1436982016249,10.0
313,1436982016274,10.0
314,1436982016312,10.0
315,1436982016313,10.0
316,1436982016329,8.0
317,1436982016351,9.0
318,1436982016369,9.0
319,1436982016394,43.0
320,1436982016409,43.0
321,1436982016432,100.0
322,1436982016450,100.0
323,1436982016469,472.0
324,1436982016489,472.0
325,1436982016509,573.0
326,1436982016529,573.0
327,1436982016549,484.0
328,1436982016572,328.0
329,1436982016590,328.0
330,1436982016608,180.0
331,1436982016628,180.0
332,1436982016661,93.0
333,1436982016669,93.0
334,1436982016688,42.0
335,1436982016711,42.0
336,1436982016731,10.0
337,1436982016751,10.0
338,1436982016770,10.0
339,1436982016789,9.0
340,1436982016835,9.0
341,1436982016836,7.0
342,1436982016848,7.0
343,1436982016868,7.0
344,1436982016888,7.0
345,1436982016909,7.0
346,1436982016928,7.0
347,1436982016961,8.0
348,1436982016974,8.0
349,1436982016989,8.0
350,1436982017010,8.0
351,1436982017036,8.0
352,1436982017049,10.0
353,1436982017070,10.0
354,1436982017089,9.0
355,1436982017111,9.0
356,1436982017132,8.0
357,1436982017151,8.0
358,1436982017172,8.0
359,1436982017193,8.0
360,1436982017211,8.0
361,1436982017229,8.0
362,1436982017249,8.0
363,1436982017276,8.0
364,1436982017321,8.0
365,1436982017322,9.0
366,1436982017331,9.0
367,1436982017351,9.0
368,1436982017369,9.0
369,1436982017390,11.0
370,1436982017411,11.0
371,1436982017431,11.0
372,1436982017450,10.0
373,1436982017470,10.0
374,1436982017492,9.0
375,1436982017509,9.0
376,1436982017531,11.0
377,1436982017553,11.0
378,1436982017573,12.0
379,1436982017592,12.0
380,1436982017613,7.0
381,1436982017632,6.0
382,1436982017651,6.0
383,1436982017675,5.0
384,1436982017690,5.0
385,1436982017711,5.0
386,1436982017737,5.0
387,1436982017813,5.0
388,1436982017814,5.0
389,1436982017815,6.0
390,1436982017816,6.0
391,1436982017830,6.0
392,1436982017851,7.0
393,1436982017872,7.0
394,1436982017891,7.0
395,1436982017912,7.0
396,1436982017936,7.0
397,1436982017952,7.0
398,1436982017976,7.0
399,1436982017997,7.0
400,1436982018026,7.0
401,1436982018037,7.0
402,1436982018056,8.0
403,1436982018074,8.0
404,1436982018093,8.0
405,1436982018112,8.0
406,1436982018131,8.0
407,1436982018151,8.0
408,1436982018171,8.0
409,1436982018191,11.0
410,1436982018211,11.0
411,1436982018232,16.0
412,1436982018252,16.0
413,1436982018273,14.0
414,1436982018292,11.0
415,1436982018413,11.0
416,1436982018414,9.0
417,1436982018415,9.0
418,1436982018416,8.0
419,1436982018417,8.0
420,1436982018418,7.0
421,1436982018432,7.0
422,1436982018451,7.0
423,1436982018473,7.0
424,1436982018492,7.0
425,1436982018541,7.0
426,1436982018542,7.0
427,1436982018567,7.0
428,1436982018572,7.0
429,1436982018597,7.0
430,1436982018614,7.0
431,1436982018631,7.0
432,1436982018651,7.0
433,1436982018677,7.0
434,1436982018697,7.0
435,1436982018715,7.0
436,1436982018733,7.0
437,1436982018752,7.0
438,1436982018772,8.0
439,1436982018792,8.0
440,1436982018817,9.0
441,1436982018837,9.0
442,1436982018853,9.0
443,1436982018947,9.0
444,1436982018953,9.0
445,1436982018954,9.0
446,1436982018955,9.0
447,1436982018956,8.0
448,1436982018974,8.0
449,1436982018992,8.0
450,1436982019013,8.0
451,1436982019032,7.0
452,1436982019052,7.0
453,1436982019106,7.0
454,1436982019107,7.0
455,1436982019142,7.0
456,1436982019143,7.0
457,1436982019244,7.0
458,1436982019245,7.0
459,1436982019246,7.0
460,1436982019247,6.0
461,1436982019248,6.0
462,1436982019273,6.0
463,1436982019274,6.0
464,1436982019292,6.0
465,1436982019313,6.0
466,1436982019332,7.0
467,1436982019544,7.0
468,1436982019545,7.0
469,1436982019546,7.0
470,1436982019547,7.0
471,1436982019548,10.0
472,1436982019549,10.0
473,1436982019550,29.0
474,1436982019551,29.0
475,1436982019552,50.0
476,1436982019553,50.0
477,1436982019575,61.0
478,1436982019576,25.0
479,1436982019591,25.0
480,1436982019611,10.0
481,1436982019631,10.0
482,1436982019653,11.0
483,1436982019672,11.0
484,1436982019691,11.0
485,1436982019713,11.0
486,1436982019732,10.0
487,1436982019756,9.0
488,1436982019773,9.0
489,1436982019795,8.0
490,1436982019811,8.0
491,1436982019833,8.0
492,1436982019853,8.0
493,1436982019873,7.0
494,1436982019895,7.0
495,1436982019915,7.0
496,1436982019932,7.0
497,1436982019951,6.0
498,1436982019980,7.0
499,1436982019992,7.0
500,1436982020012,7.0
501,1436982020032,7.0
502,1436982020052,7.0
503,1436982020073,7.0
504,1436982020093,7.0
505,1436982020112,7.0
506,1436982020150,9.0
507,1436982020152,9.0
508,1436982020172,8.0
509,1436982020192,7.0
510,1436982020212,7.0
511,1436982020232,7.0
512,1436982020253,7.0
513,1436982020272,8.0
514,1436982020294,8.0
515,1436982020315,12.0
516,1436982020334,12.0
517,1436982020352,21.0
518,1436982020377,21.0
519,1436982020423,18.0
520,1436982020424,20.0
521,1436982020433,20.0
522,1436982020453,21.0
523,1436982020472,21.0
524,1436982020494,12.0
525,1436982020513,12.0
526,1436982020534,9.0
527,1436982020552,9.0
528,1436982020573,9.0
529,1436982020596,9.0
530,1436982020613,10.0
531,1436982020637,8.0
532,1436982020653,8.0
533,1436982020673,7.0
534,1436982020693,7.0
535,1436982020714,6.0
536,1436982020734,6.0
537,1436982020757,5.0
538,1436982020777,5.0
539,1436982020798,5.0
540,1436982020814,6.0
541,1436982020833,6.0
542,1436982020866,7.0
543,1436982020888,7.0
544,1436982020892,12.0
545,1436982020913,12.0
546,1436982020933,27.0
547,1436982020954,27.0
548,1436982020975,7.0
549,1436982020993,7.0
550,1436982021013,6.0
551,1436982021033,7.0
552,1436982021056,7.0
553,1436982021088,8.0
554,1436982021099,8.0
555,1436982021117,9.0
556,1436982021137,9.0
557,1436982021155,10.0
558,1436982021175,10.0
559,1436982021195,10.0
560,1436982021218,10.0
561,1436982021239,16.0
562,1436982021438,30.0
563,1436982021439,30.0
564,1436982021440,41.0
565,1436982021441,41.0
566,1436982021442,35.0
567,1436982021443,35.0
568,1436982021444,14.0
569,1436982021445,14.0
570,1436982021446,10.0
571,1436982021447,10.0
572,1436982021457,10.0
573,1436982021474,7.0
574,1436982021500,7.0
575,1436982021514,7.0
576,1436982021534,7.0
577,1436982021554,7.0
578,1436982021580,7.0
579,1436982021595,7.0
580,1436982021618,7.0
581,1436982021638,7.0
582,1436982021656,7.0
583,1436982021675,6.0
584,1436982021697,6.0
585,1436982021714,6.0
586,1436982021734,6.0
587,1436982021754,6.0
588,1436982021776,7.0
589,1436982021796,7.0
590,1436982021815,8.0
591,1436982021834,8.0
592,1436982021855,9.0
593,1436982021876,9.0
594,1436982021895,9.0
595,1436982021916,9.0
596,1436982021938,9.0
597,1436982021986,9.0
598,1436982021987,9.0
599,1436982021994,8.0
600,1436982022014,8.0
601,1436982022036,8.0
602,1436982022056,8.0
603,1436982022075,8.0
604,1436982022095,8.0
605,1436982022115,8.0
606,1436982022141,7.0
607,1436982022154,7.0
608,1436982022176,7.0
609,1436982022199,7.0
610,1436982022216,7.0
611,1436982022237,7.0
612,1436982022257,7.0
613,1436982022275,7.0
614,1436982022295,7.0
615,1436982022316,8.0
616,1436982022338,8.0
617,1436982022359,9.0
618,1436982022381,9.0
619,1436982022398,9.0
620,1436982022416,9.0
621,1436982022436,7.0
622,1436982022456,7.0
623,1436982022475,8.0
624,1436982022559,8.0
625,1436982022560,15.0
626,1436982022561,39.0
627,1436982022562,39.0
628,1436982022576,20.0
629,1436982022595,20.0
630,1436982022617,12.0
631,1436982022636,12.0
632,1436982022660,9.0
633,1436982022677,9.0
634,1436982022695,9.0
635,1436982022716,9.0
636,1436982022744,9.0
637,1436982022758,8.0
638,1436982022775,8.0
639,1436982022797,8.0
640,1436982022816,8.0
641,1436982022835,7.0
642,1436982022855,7.0
643,1436982022876,7.0
644,1436982022896,7.0
645,1436982022915,7.0
646,1436982022936,7.0
647,1436982022956,7.0
648,1436982022975,7.0
649,1436982022995,7.0
650,1436982023016,7.0
651,1436982023084,7.0
652,1436982023085,7.0
653,1436982023086,7.0
654,1436982023112,7.0
655,1436982023116,7.0
656,1436982023136,7.0
657,1436982023156,7.0
658,1436982023176,7.0
659,1436982023196,7.0
660,1436982023215,7.0
661,1436982023236,7.0
662,1436982023255,7.0
663,1436982023276,8.0
664,1436982023300,8.0
665,1436982023318,9.0
666,1436982023337,9.0
667,1436982023357,8.0
668,1436982023378,9.0
669,1436982023398,9.0
670,1436982023416,9.0
671,1436982023436,9.0
672,1436982023456,8.0
673,1436982023476,8.0
674,1436982023498,8.0
675,1436982023516,8.0
676,1436982023536,8.0
677,1436982023557,8.0
678,1436982023577,7.0
679,1436982023644,7.0
680,1436982023645,7.0
681,1436982023646,7.0
682,1436982023665,7.0
683,1436982023676,6.0
684,1436982023697,6.0
685,1436982023716,5.0
686,1436982023736,5.0
687,1436982023757,4.0
688,1436982023776,4.0
689,1436982023796,5.0
690,1436982023816,7.0
691,1436982023837,7.0
692,1436982023881,8.0
693,1436982023882,8.0
694,1436982023903,8.0
695,1436982023916,8.0
696,1436982023938,8.0
697,1436982023956,8.0
698,1436982023976,7.0
699,1436982023997,7.0
700,1436982024016,8.0
701,1436982024036,11.0
702,1436982024056,11.0
703,1436982024076,11.0
704,1436982024095,11.0
705,1436982024115,9.0
706,1436982024135,9.0
707,1436982024155,9.0
708,1436982024176,9.0
709,1436982024211,9.0
710,1436982024216,9.0
711,1436982024236,9.0
712,1436982024257,11.0
713,1436982024276,11.0
714,1436982024296,9.0
715,1436982024317,9.0
716,1436982024336,7.0
717,1436982024355,7.0
718,1436982024376,7.0
719,1436982024396,7.0
720,1436982024419,8.0
721,1436982024437,7.0
722,1436982024456,7.0
723,1436982024477,7.0
724,1436982024496,7.0
725,1436982024516,7.0
726,1436982024535,7.0
727,1436982024555,6.0
728,1436982024576,6.0
729,1436982024597,6.0
730,1436982024616,6.0
731,1436982024644,7.0
732,1436982024656,8.0
733,1436982024676,8.0
734,1436982024700,8.0
735,1436982024718,8.0
736,1436982024737,8.0
737,1436982024757,8.0
738,1436982024779,8.0
739,1436982024799,8.0
740,1436982024817,10.0
741,1436982024838,10.0
742,1436982024857,9.0
743,1436982024876,9.0
744,1436982024918,9.0
745,1436982024919,9.0
746,1436982024938,9.0
747,1436982024958,9.0
748,1436982024983,9.0
749,1436982025031,8.0
750,1436982025032,8.0
751,1436982025036,8.0
752,1436982025063,8.0
753,1436982025076,8.0
754,1436982025099,7.0
755,1436982025116,7.0
756,1436982025139,8.0
757,1436982025157,8.0
758,1436982025181,7.0
759,1436982025197,7.0
760,1436982025219,7.0
761,1436982025244,7.0
762,1436982025257,7.0
763,1436982025278,7.0
764,1436982025297,7.0
765,1436982025317,7.0
766,1436982025337,7.0
767,1436982025361,7.0
768,1436982025382,7.0
769,1436982025402,7.0
770,1436982025422,7.0
771,1436982025438,7.0
772,1436982025489,7.0
773,1436982025490,8.0
774,1436982025497,8.0
775,1436982025519,8.0
776,1436982025537,8.0
777,1436982025559,8.0
778,1436982025578,8.0
779,1436982025598,8.0
780,1436982025619,8.0
781,1436982025638,8.0
782,1436982025661,9.0
783,1436982025678,9.0
784,1436982025698,8.0
785,1436982025719,8.0
786,1436982025741,8.0
787,1436982025759,7.0
788,1436982025778,7.0
789,1436982025799,7.0
790,1436982025819,7.0
791,1436982025839,7.0
792,1436982025857,7.0
793,1436982025879,8.0
794,1436982025900,8.0
795,1436982025926,8.0
796,1436982025942,8.0
797,1436982025960,8.0
798,1436982025978,8.0
799,1436982025998,8.0
800,1436982026020,7.0
801,1436982026039,7.0
802,1436982026060,7.0
803,1436982026081,7.0
804,1436982026101,7.0
805,1436982026121,7.0
806,1436982026140,7.0
807,1436982026161,7.0
808,1436982026180,7.0
809,1436982026199,7.0
810,1436982026218,7.0
811,1436982026243,7.0
812,1436982026258,7.0
813,1436982026279,8.0
814,1436982026299,8.0
815,1436982026321,9.0
816,1436982026350,9.0
817,1436982026526,15.0
818,1436982026527,12.0
819,1436982026528,12.0
820,1436982026529,9.0
821,1436982026530,9.0
822,1436982026531,8.0
823,1436982026532,8.0
824,1436982026533,8.0
825,1436982026534,8.0
826,1436982026539,8.0
827,1436982026563,7.0
828,1436982026579,7.0
829,1436982026599,7.0
830,1436982026619,7.0
831,1436982026642,8.0
832,1436982026662,8.0
833,1436982026680,8.0
834,1436982026699,8.0
835,1436982026723,8.0
836,1436982026745,8.0
837,1436982026764,9.0
838,1436982026782,10.0
839,1436982026801,10.0
840,1436982026820,12.0
841,1436982026839,12.0
842,1436982026859,10.0
843,1436982026880,10.0
844,1436982026901,8.0
845,1436982026922,8.0
846,1436982026941,7.0
847,1436982026961,7.0
848,1436982026982,7.0
849,1436982027093,8.0
850,1436982027094,8.0
851,1436982027095,9.0
852,1436982027096,9.0
853,1436982027097,10.0
854,1436982027123,10.0
855,1436982027124,9.0
856,1436982027141,9.0
857,1436982027160,9.0
858,1436982027179,9.0
859,1436982027199,8.0
860,1436982027225,7.0
861,1436982027257,7.0
862,1436982027258,7.0
863,1436982027282,7.0
864,1436982027302,7.0
865,1436982027321,7.0
866,1436982027342,8.0
867,1436982028816,8.0
868,1436982028817,9.0
869,1436982028818,9.0
870,1436982028819,8.0
871,1436982028820,8.0
872,1436982028821,8.0
873,1436982028822,8.0
874,1436982028823,8.0
875,1436982028824,8.0
876,1436982028825,8.0
877,1436982028826,8.0
878,1436982028827,8.0
879,1436982028828,8.0
880,1436982028829,11.0
881,1436982028830,11.0
882,1436982028831,52.0
883,1436982028832,52.0
884,1436982028833,105.0
885,1436982028834,105.0
886,1436982028835,107.0
887,1436982028836,107.0
888,1436982028837,11.0
889,1436982028838,11.0
890,1436982028839,10.0
891,1436982028840,28.0
892,1436982028841,28.0
