id,attr_time,attr_x,attr_y,attr_z
1,1438346754031,-9.31,-47.399,-7.534
2,1438346754049,-9.31,-47.399,-7.534
3,1438346754071,-9.31,-47.399,-7.534
4,1438346754089,-9.31,-47.399,-7.534
5,1438346754110,-9.31,-47.399,-7.534
6,1438346754131,-9.31,-47.399,-7.534
7,1438346754149,-9.31,-47.399,-7.534
8,1438346754170,-9.31,-47.399,-7.534
9,1438346754191,-9.31,-47.399,-7.882
10,1438346754212,-9.31,-47.399,-7.882
11,1438346754232,-9.31,-47.399,-7.882
12,1438346754251,-9.31,-47.399,-7.882
13,1438346754272,-9.31,-47.399,-7.882
14,1438346754290,-9.31,-47.399,-7.882
15,1438346754311,-9.31,-47.399,-7.882
16,1438346754332,-9.31,-47.399,-7.882
17,1438346754351,-9.31,-47.399,-7.882
18,1438346754372,-9.31,-47.399,-7.882
19,1438346754391,-9.31,-47.399,-7.882
20,1438346754410,-9.31,-47.399,-7.882
21,1438346754430,-9.31,-47.399,-7.882
22,1438346754493,-9.31,-47.399,-7.882
23,1438346754494,-9.31,-47.399,-7.882
24,1438346754495,-9.31,-47.399,-7.882
25,1438346754515,-9.31,-47.399,-7.882
26,1438346754530,-9.31,-47.399,-7.882
27,1438346754551,-9.31,-47.399,-7.882
28,1438346754571,-9.31,-47.399,-7.882
29,1438346754591,-9.31,-47.399,-7.882
30,1438346754616,-9.31,-47.399,-7.882
31,1438346754630,-9.31,-47.399,-7.882
32,1438346754651,-9.31,-47.399,-7.882
33,1438346754670,-9.31,-47.399,-7.565
34,1438346754692,-9.31,-47.399,-7.565
35,1438346754709,-9.31,-47.399,-7.565
36,1438346754732,-9.31,-47.399,-7.565
37,1438346754753,-9.31,-47.399,-7.565
38,1438346754771,-9.31,-47.399,-7.565
39,1438346754793,-9.31,-47.399,-7.565
40,1438346754813,-9.31,-47.399,-7.565
41,1438346754831,-9.31,-47.399,-7.565
42,1438346754853,-9.31,-47.399,-7.565
43,1438346754873,-9.31,-47.399,-7.565
44,1438346754891,-9.31,-47.399,-7.565
45,1438346754913,-9.31,-47.399,-7.565
46,1438346754933,-9.31,-47.399,-7.565
47,1438346754950,-9.31,-47.399,-7.565
48,1438346754970,-9.31,-47.399,-7.565
49,1438346754990,-9.31,-47.399,-7.565
50,1438346755010,-9.31,-47.399,-7.565
51,1438346755035,-9.31,-47.399,-7.565
52,1438346755050,-9.31,-47.399,-7.565
53,1438346755072,-9.31,-47.399,-7.565
54,1438346755090,-9.31,-47.399,-7.565
55,1438346755110,-9.31,-47.399,-7.565
56,1438346755130,-9.31,-47.399,-7.565
57,1438346755152,-9.31,-47.399,-7.565
58,1438346755176,-9.31,-47.399,-7.565
59,1438346755240,-9.31,-47.399,-7.565
60,1438346755241,-9.005,-47.399,-7.875
61,1438346755242,-9.005,-47.399,-7.875
62,1438346755252,-9.005,-47.399,-7.875
63,1438346755271,-9.005,-47.399,-7.875
64,1438346755290,-9.005,-47.399,-7.875
65,1438346755310,-9.005,-47.399,-7.875
66,1438346755330,-9.005,-47.399,-7.875
67,1438346755352,-9.005,-47.399,-7.875
68,1438346755372,-9.005,-47.399,-7.875
69,1438346755392,-9.005,-47.399,-7.875
70,1438346755410,-9.005,-47.399,-8.19
71,1438346755430,-9.005,-47.399,-8.19
72,1438346755454,-9.005,-47.399,-8.19
73,1438346755473,-9.005,-47.399,-8.19
74,1438346755493,-9.005,-47.399,-8.19
75,1438346755514,-9.005,-47.399,-8.19
76,1438346755533,-9.005,-47.399,-8.19
77,1438346755553,-9.005,-47.399,-8.19
78,1438346755574,-9.005,-47.399,-8.19
79,1438346755594,-9.005,-47.399,-8.19
80,1438346755614,-9.005,-47.399,-8.19
81,1438346755632,-9.005,-47.399,-8.19
82,1438346755654,-9.005,-47.399,-8.19
83,1438346755674,-9.005,-47.399,-8.19
84,1438346755690,-9.005,-47.399,-8.19
85,1438346755710,-9.005,-47.399,-8.19
86,1438346755730,-9.005,-47.399,-8.19
87,1438346755756,-9.005,-47.399,-8.19
88,1438346755777,-9.005,-47.399,-8.19
89,1438346755796,-9.005,-47.399,-8.19
90,1438346755814,-9.005,-47.399,-8.19
91,1438346755831,-9.373,-47.096,-8.19
92,1438346755850,-9.373,-47.096,-8.509
93,1438346755871,-9.373,-47.096,-8.509
94,1438346755893,-9.677,-47.096,-8.509
95,1438346755914,-9.677,-47.096,-8.509
96,1438346755985,-9.677,-47.096,-8.819
97,1438346755986,-9.677,-47.096,-8.819
98,1438346755987,-9.989,-47.096,-8.819
99,1438346756008,-9.989,-46.774,-8.819
100,1438346756011,-9.989,-46.774,-9.202
101,1438346756042,-9.989,-46.774,-9.202
102,1438346756051,-10.307,-46.774,-9.202
103,1438346756071,-10.307,-46.774,-9.512
104,1438346756121,-10.307,-46.472,-9.512
105,1438346756122,-10.307,-46.472,-9.512
106,1438346756132,-10.664,-46.472,-9.864
107,1438346756157,-10.664,-46.472,-9.864
108,1438346756171,-10.664,-46.472,-9.864
109,1438346756206,-11.08,-46.159,-9.864
110,1438346756217,-11.08,-46.159,-10.165
111,1438346756231,-11.383,-46.159,-10.165
112,1438346756251,-11.383,-46.159,-10.165
113,1438346756274,-11.383,-46.159,-10.165
114,1438346756294,-11.834,-46.159,-10.475
115,1438346756314,-11.834,-45.799,-10.475
116,1438346756334,-12.145,-45.799,-10.475
117,1438346756354,-12.145,-45.799,-10.475
118,1438346756374,-12.145,-45.799,-10.475
119,1438346756394,-12.532,-45.799,-10.853
120,1438346756415,-12.532,-45.433,-10.853
121,1438346756432,-12.863,-45.433,-10.853
122,1438346756454,-12.863,-45.433,-10.853
123,1438346756475,-13.281,-45.433,-10.853
124,1438346756494,-13.281,-45.05,-11.198
125,1438346756515,-13.755,-45.05,-11.198
126,1438346756534,-14.126,-45.05,-11.198
127,1438346756554,-15.356,-44.67,-11.198
128,1438346756574,-16.447,-44.67,-11.198
129,1438346756594,-17.793,-44.325,-11.506
130,1438346756616,-18.556,-43.901,-11.506
131,1438346756635,-19.515,-43.064,-11.506
132,1438346756655,-20.545,-42.417,-11.506
133,1438346756675,-21.333,-41.093,-11.871
134,1438346756694,-22.135,-40.545,-11.871
135,1438346756749,-23.15,-39.59,-11.871
136,1438346756762,-24.272,-38.972,-11.871
137,1438346756763,-25.189,-38.392,-12.176
138,1438346756772,-26.17,-37.606,-12.176
139,1438346756799,-27.067,-36.984,-12.176
140,1438346756812,-27.867,-36.553,-12.176
141,1438346756831,-28.565,-36.143,-11.808
142,1438346756852,-29.17,-35.832,-11.312
143,1438346756871,-29.849,-35.18,-10.218
144,1438346756894,-29.849,-34.687,-9.361
145,1438346756912,-30.162,-34.687,-8.241
146,1438346756935,-30.162,-34.259,-8.241
147,1438346756951,-30.162,-34.82,-7.691
148,1438346756975,-30.162,-34.82,-7.691
149,1438346756995,-29.783,-34.82,-7.691
150,1438346757015,-29.28,-35.209,-8.059
151,1438346757035,-28.712,-35.513,-8.059
152,1438346757051,-28.181,-35.513,-8.52
153,1438346757074,-28.181,-35.513,-8.52
154,1438346757094,-28.181,-35.513,-7.954
155,1438346757115,-28.181,-35.513,-7.954
156,1438346757134,-28.181,-35.513,-7.954
157,1438346757155,-28.543,-35.513,-7.954
158,1438346757175,-28.543,-35.513,-7.954
159,1438346757194,-28.543,-35.513,-7.524
160,1438346757215,-28.543,-35.893,-7.524
161,1438346757235,-28.543,-36.457,-7.13
162,1438346757259,-28.543,-36.457,-7.13
163,1438346757276,-28.543,-36.993,-6.655
164,1438346757296,-28.543,-36.993,-5.97
165,1438346757315,-28.202,-36.993,-5.088
166,1438346757335,-28.202,-36.993,-4.248
167,1438346757352,-28.202,-37.409,-3.796
168,1438346757373,-27.838,-37.409,-3.074
169,1438346757394,-27.838,-37.409,-2.537
170,1438346757412,-27.838,-37.409,-2.197
171,1438346757480,-27.503,-37.757,-2.525
172,1438346757481,-27.503,-37.757,-2.157
173,1438346757482,-27.503,-38.133,-2.157
174,1438346757492,-27.503,-38.133,-1.788
175,1438346757517,-27.503,-38.548,-1.263
176,1438346757534,-27.162,-38.548,-1.263
177,1438346757565,-27.162,-39.608,-1.263
178,1438346757573,-27.162,-40.597,-1.263
179,1438346757593,-27.162,-41.775,-1.846
180,1438346757619,-26.77,-42.915,-1.846
181,1438346757633,-26.458,-44.2,-1.846
182,1438346757655,-25.502,-45.626,-1.846
183,1438346757672,-24.716,-47.171,-1.846
184,1438346757695,-24.092,-48.11,-1.846
185,1438346757715,-22.929,-49.333,-1.846
186,1438346757735,-22.119,-49.333,-2.642
187,1438346757756,-21.733,-49.89,-4.005
188,1438346757775,-21.733,-49.89,-4.342
189,1438346757796,-21.733,-49.291,-4.934
190,1438346757816,-21.733,-49.291,-5.334
191,1438346757835,-21.733,-49.963,-5.862
192,1438346757853,-21.292,-49.963,-6.196
193,1438346757876,-20.956,-49.491,-7.373
194,1438346757896,-20.956,-49.491,-7.788
195,1438346757915,-20.956,-49.491,-8.483
196,1438346757935,-20.956,-49.012,-8.972
197,1438346757956,-21.383,-48.371,-9.66
198,1438346757976,-21.383,-48.051,-10.05
199,1438346757996,-21.383,-47.7,-10.05
200,1438346758016,-21.383,-47.7,-11.206
201,1438346758039,-21.383,-47.131,-11.206
202,1438346758063,-21.383,-46.166,-12.013
203,1438346758080,-21.383,-45.275,-12.44
204,1438346758096,-21.383,-45.275,-13.223
205,1438346758119,-20.971,-46.171,-13.635
206,1438346758199,-18.052,-47.55,-14.085
207,1438346758200,-12.821,-48.475,-14.085
208,1438346758201,-8.97,-49.52,-12.368
209,1438346758202,-6.632,-50.503,-11.297
210,1438346758225,-6.632,-51.644,-8.343
211,1438346758246,-6.208,-52.081,-5.902
212,1438346758253,-6.599,-52.882,-3.582
213,1438346758288,-7.196,-52.882,-1.277
214,1438346758293,-7.528,-53.695,0.968
215,1438346758315,-7.891,-54.382,2.575
216,1438346758333,-8.459,-55.073,3.742
217,1438346758353,-8.941,-55.848,4.866
218,1438346758375,-8.941,-56.34,6.555
219,1438346758393,-8.941,-56.986,8.105
220,1438346758416,-8.311,-57.884,10.293
221,1438346758436,-6.571,-58.255,11.911
222,1438346758456,-5.244,-58.255,12.651
223,1438346758476,-5.244,-58.255,13.58
224,1438346758496,-5.244,-57.954,13.58
225,1438346758516,-5.744,-57.954,13.232
226,1438346758536,-5.744,-57.954,13.232
227,1438346758556,-5.744,-57.954,13.598
228,1438346758575,-5.744,-57.954,14.251
229,1438346758596,-5.439,-57.954,14.251
230,1438346758614,-5.09,-57.954,14.793
231,1438346758636,-5.09,-57.954,14.793
232,1438346758653,-4.766,-57.954,15.336
233,1438346758679,-4.766,-57.954,16.638
234,1438346758699,-4.145,-57.954,17.155
235,1438346758719,-4.145,-58.37,16.841
236,1438346758736,-3.663,-58.37,17.405
237,1438346758754,-3.663,-58.828,18.035
238,1438346758775,-3.663,-58.828,18.035
239,1438346758796,-3.663,-59.207,18.614
240,1438346758815,-3.663,-59.207,19.435
241,1438346758834,-3.663,-59.527,22.468
242,1438346758885,-3.663,-60.012,26.513
243,1438346758886,-3.663,-60.012,30.026
244,1438346758894,-7.652,-60.012,33.737
245,1438346758914,-13.76,-60.012,36.608
246,1438346758935,-19.105,-60.012,37.606
247,1438346758954,-24.18,-59.69,36.95
248,1438346758974,-27.818,-57.469,34.179
249,1438346758997,-30.601,-54.945,31.526
250,1438346759015,-34.454,-51.759,30.755
251,1438346759034,-37.654,-49.603,29.129
252,1438346759056,-40.528,-47.193,27.192
253,1438346759080,-43.423,-45.631,25.453
254,1438346759097,-45.707,-43.71,23.188
255,1438346759117,-46.882,-41.781,21.348
256,1438346759135,-47.671,-40.542,20.056
257,1438346759156,-48.652,-39.636,19.552
258,1438346759176,-49.314,-38.65,19.552
259,1438346759197,-49.67,-37.866,20.539
260,1438346759247,-50.018,-36.592,20.539
261,1438346759248,-50.369,-35.92,21.487
262,1438346759267,-50.369,-34.761,22.286
263,1438346759327,-51.191,-34.761,21.926
264,1438346759328,-51.191,-34.761,22.706
265,1438346759329,-51.531,-34.211,22.706
266,1438346759344,-51.531,-33.837,22.706
267,1438346759354,-51.531,-33.837,22.706
268,1438346759374,-51.998,-33.123,22.706
269,1438346759403,-52.507,-33.123,23.603
270,1438346759416,-52.507,-33.862,23.913
271,1438346759434,-52.507,-33.862,23.913
272,1438346759454,-51.841,-34.503,23.004
273,1438346759475,-51.841,-35.356,23.004
274,1438346759494,-51.312,-36.128,23.004
275,1438346759515,-51.312,-36.595,22.642
276,1438346759535,-51.312,-37.092,22.642
277,1438346759555,-51.312,-37.092,22.642
278,1438346759604,-51.312,-37.092,22.642
279,1438346759605,-51.312,-37.092,22.642
280,1438346759614,-51.312,-37.092,22.642
281,1438346759634,-51.312,-37.506,22.642
282,1438346759653,-50.863,-37.893,22.642
283,1438346759674,-49.729,-37.893,22.642
284,1438346759694,-48.661,-38.424,22.642
285,1438346759714,-47.914,-38.424,22.233
286,1438346759736,-47.196,-38.424,22.233
287,1438346759754,-46.116,-39.016,22.233
288,1438346759777,-44.56,-39.688,22.621
289,1438346759797,-42.225,-40.222,23.199
290,1438346759815,-39.894,-40.556,24.287
291,1438346759835,-37.692,-41.404,25.595
292,1438346759857,-35.299,-42.007,26.629
293,1438346759877,-32.441,-42.984,27.859
294,1438346759898,-29.745,-43.531,29.667
295,1438346759917,-26.777,-43.852,30.693
296,1438346759937,-24.62,-43.852,31.217
297,1438346759954,-22.668,-44.317,31.796
298,1438346759977,-20.741,-44.317,31.796
299,1438346759998,-19.134,-44.882,31.796
300,1438346760015,-17.333,-44.882,31.428
301,1438346760038,-16.52,-45.487,32.17
302,1438346760055,-16.189,-45.487,31.802
303,1438346760106,-15.588,-45.487,32.157
304,1438346760107,-15.588,-45.487,32.157
305,1438346760116,-15.982,-45.487,31.169
306,1438346760138,-16.445,-45.487,31.564
307,1438346760158,-17.323,-45.13,31.564
308,1438346760178,-18.508,-45.13,31.037
309,1438346760195,-20.033,-45.13,31.518
310,1438346760215,-22.024,-45.13,31.518
311,1438346760288,-24.259,-45.13,31.518
312,1438346760289,-26.502,-45.13,31.518
313,1438346760290,-28.956,-45.13,31.875
314,1438346760298,-31.752,-45.13,31.875
315,1438346760316,-34.79,-44.342,31.875
316,1438346760340,-37.643,-42.388,31.875
317,1438346760355,-40.257,-41.5,30.667
318,1438346760375,-41.787,-40.312,29.641
319,1438346760396,-43.144,-40.312,29.251
320,1438346760416,-43.144,-40.312,29.927
321,1438346760437,-43.144,-40.312,30.819
322,1438346760456,-43.878,-40.312,30.819
323,1438346760476,-44.497,-40.312,30.819
324,1438346760498,-44.889,-39.793,30.819
325,1438346760518,-45.285,-39.793,30.819
326,1438346760538,-45.678,-39.793,30.819
327,1438346760557,-45.678,-39.793,30.819
328,1438346760578,-46.377,-39.793,30.819
329,1438346760598,-46.377,-39.793,30.819
330,1438346760618,-47.419,-39.793,30.819
331,1438346760638,-47.856,-39.793,30.819
332,1438346760657,-48.446,-39.793,31.408
333,1438346760676,-48.446,-39.793,31.408
334,1438346760698,-48.446,-39.39,31.913
335,1438346760719,-47.981,-39.39,31.913
336,1438346760737,-47.981,-39.39,31.913
337,1438346760758,-47.981,-39.39,32.427
338,1438346760777,-47.981,-39.39,32.427
339,1438346760798,-47.981,-39.39,31.983
340,1438346760820,-47.981,-39.39,31.983
341,1438346760838,-47.981,-39.39,32.351
342,1438346760858,-47.673,-39.39,32.351
343,1438346760878,-47.673,-39.39,32.351
344,1438346760897,-47.673,-39.39,32.812
345,1438346760917,-47.673,-39.39,32.812
346,1438346760936,-47.673,-39.39,33.169
347,1438346760956,-47.673,-39.39,33.169
348,1438346761031,-47.673,-39.39,33.508
349,1438346761033,-47.673,-39.39,33.508
350,1438346761035,-47.673,-39.036,33.853
351,1438346761036,-47.673,-39.036,33.853
352,1438346761062,-47.673,-39.036,33.853
353,1438346761075,-47.673,-39.036,34.274
354,1438346761099,-47.673,-39.036,34.274
355,1438346761115,-47.303,-39.036,34.274
356,1438346761146,-47.303,-39.036,34.68
357,1438346761217,-47.303,-39.036,34.68
358,1438346761218,-46.971,-38.702,34.68
359,1438346761219,-46.971,-38.702,35.076
360,1438346761220,-46.971,-38.702,35.076
361,1438346761245,-46.548,-38.702,35.076
362,1438346761260,-46.548,-38.702,35.417
363,1438346761279,-46.548,-38.702,35.417
364,1438346761298,-46.186,-38.702,35.417
365,1438346761318,-46.186,-38.702,35.417
366,1438346761337,-46.186,-38.702,35.417
367,1438346761358,-45.783,-38.702,35.417
368,1438346761378,-45.783,-38.702,34.938
369,1438346761398,-45.123,-39.007,34.49
370,1438346761418,-44.67,-39.007,34.49
371,1438346761438,-44.67,-39.352,33.932
372,1438346761458,-44.171,-39.352,33.38
373,1438346761478,-44.171,-39.352,33.38
374,1438346761496,-44.171,-39.753,33.065
375,1438346761518,-44.171,-39.753,33.065
376,1438346761539,-44.171,-39.753,32.614
377,1438346761558,-44.171,-40.216,32.614
378,1438346761579,-43.869,-40.216,32.978
379,1438346761600,-43.869,-40.525,32.484
380,1438346761618,-43.557,-40.525,32.484
381,1438346761638,-43.557,-40.826,32.484
382,1438346761658,-43.557,-40.826,32.484
383,1438346761679,-43.241,-40.826,32.484
384,1438346761699,-43.241,-41.136,32.138
385,1438346761719,-43.241,-41.136,32.138
386,1438346761736,-43.241,-41.136,32.138
387,1438346761764,-43.241,-41.136,32.138
388,1438346761831,-43.241,-41.136,32.138
389,1438346761832,-43.241,-41.136,31.802
390,1438346761833,-43.241,-41.136,31.802
391,1438346761842,-43.241,-41.465,31.802
392,1438346761857,-43.595,-41.465,31.802
393,1438346761878,-43.595,-41.465,31.802
394,1438346761896,-43.595,-41.465,31.802
395,1438346761917,-43.896,-41.465,31.802
396,1438346761937,-43.896,-41.465,31.802
397,1438346761961,-43.896,-41.465,31.802
398,1438346761980,-43.896,-41.465,31.802
399,1438346762001,-44.265,-41.465,31.802
400,1438346762019,-44.265,-41.465,31.802
401,1438346762039,-44.265,-41.465,31.802
402,1438346762057,-44.265,-41.465,31.802
403,1438346762078,-44.569,-41.465,31.802
404,1438346762097,-44.569,-41.465,31.802
405,1438346762119,-44.569,-41.465,31.802
406,1438346762140,-44.569,-41.465,31.802
407,1438346762160,-44.569,-41.465,31.802
408,1438346762180,-44.569,-41.465,31.802
409,1438346762197,-44.886,-41.465,31.802
410,1438346762218,-44.886,-41.465,31.802
411,1438346762238,-44.886,-41.465,31.802
412,1438346762258,-44.886,-41.465,31.802
413,1438346762276,-44.886,-41.465,31.802
414,1438346762297,-44.886,-41.465,31.802
415,1438346762317,-44.886,-41.465,31.802
416,1438346762338,-44.886,-41.465,31.802
417,1438346762358,-44.886,-41.465,31.802
418,1438346762379,-44.886,-41.465,31.802
419,1438346762399,-44.886,-41.465,31.802
420,1438346762417,-44.886,-41.165,31.802
421,1438346762437,-45.26,-41.165,31.802
422,1438346762457,-45.26,-41.165,31.802
423,1438346762478,-45.26,-40.802,32.186
424,1438346762497,-45.26,-40.802,32.186
425,1438346762547,-45.578,-40.802,32.186
426,1438346762548,-45.578,-40.365,32.186
427,1438346762567,-45.578,-40.365,32.572
428,1438346762577,-45.578,-40.365,32.572
429,1438346762598,-45.948,-39.93,32.572
430,1438346762617,-45.948,-39.93,32.92
431,1438346762637,-45.948,-39.93,32.92
432,1438346762658,-45.948,-39.538,32.92
433,1438346762678,-46.343,-39.538,33.355
434,1438346762699,-46.343,-39.538,33.355
435,1438346762718,-46.343,-39.183,33.355
436,1438346762738,-46.343,-39.183,33.763
437,1438346762759,-46.644,-39.183,33.763
438,1438346762780,-46.644,-39.183,33.763
439,1438346762800,-46.644,-38.842,34.111
440,1438346762819,-46.644,-38.842,34.111
441,1438346762839,-46.644,-38.842,34.111
442,1438346762857,-46.644,-38.842,34.111
443,1438346762877,-46.644,-38.842,34.111
444,1438346762897,-46.644,-38.842,34.486
445,1438346762917,-46.644,-38.842,34.486
446,1438346762937,-46.955,-38.842,34.486
447,1438346762957,-46.955,-38.842,34.486
448,1438346762977,-46.955,-38.842,34.486
449,1438346762999,-46.955,-38.842,34.803
450,1438346763018,-46.955,-38.842,34.803
451,1438346763038,-46.955,-38.842,34.803
452,1438346763057,-46.955,-38.842,34.803
453,1438346763078,-46.955,-38.842,34.803
454,1438346763097,-46.955,-38.842,34.803
455,1438346763121,-46.955,-38.842,34.803
456,1438346763138,-46.955,-38.842,34.803
457,1438346763158,-46.955,-38.842,34.803
458,1438346763178,-46.955,-38.842,34.803
459,1438346763198,-46.955,-38.539,34.803
460,1438346763217,-46.955,-38.539,35.115
461,1438346763238,-46.955,-38.539,35.115
462,1438346763287,-46.955,-38.539,35.115
463,1438346763288,-46.955,-38.539,35.115
464,1438346763301,-46.955,-38.539,35.115
465,1438346763324,-46.955,-38.539,35.115
466,1438346763353,-46.955,-38.539,35.115
467,1438346763360,-46.955,-38.539,35.115
468,1438346763378,-46.955,-38.539,35.115
469,1438346763398,-46.955,-38.539,35.115
470,1438346763418,-46.955,-38.539,35.115
471,1438346763450,-46.955,-38.539,35.115
472,1438346763469,-46.955,-38.539,35.115
473,1438346763478,-46.955,-38.539,35.115
474,1438346763498,-46.955,-38.539,35.115
475,1438346763518,-46.49,-38.539,35.115
476,1438346763537,-45.55,-38.539,35.115
477,1438346763557,-43.722,-38.539,35.115
478,1438346763577,-40.861,-38.874,35.115
479,1438346763597,-37.564,-38.874,35.664
480,1438346763618,-32.986,-38.874,39.382
481,1438346763640,-27.175,-38.874,41.635
482,1438346763662,-21.379,-39.234,43.481
483,1438346763682,-15.075,-39.234,43.481
484,1438346763702,-9.562,-39.234,41.558
485,1438346763718,-3.929,-39.616,40.501
486,1438346763740,0.741,-39.616,38.369
487,1438346763762,5.307,-39.616,35.224
488,1438346763778,8.816,-39.941,33.406
489,1438346763800,11.412,-39.941,31.126
490,1438346763820,13.586,-39.941,28.485
491,1438346763839,15.586,-39.941,26.579
492,1438346763873,17.39,-39.941,24.768
493,1438346763877,18.704,-39.941,23.89
494,1438346763898,19.232,-38.452,23.39
495,1438346763918,19.86,-37.31,23.39
496,1438346763940,19.413,-36.123,23.901
497,1438346763960,18.959,-35.263,24.711
