id,attr_time,attr_db
1,1438260082760,44.0250045262412
2,1438260083379,48.3372231977545
3,1438260084045,43.7146452745374
4,1438260084769,49.4676383741351
5,1438260085497,48.4837966513008
6,1438260086243,68.4479166137548
7,1438260086979,71.0365552246423
8,1438260087698,64.5427024653107
9,1438260088368,52.0176048005617
10,1438260088977,49.7897527862363
11,1438260089703,45.5923355210457
12,1438260090416,45.8223915632562
13,1438260091166,45.8138172714094
14,1438260091934,44.4861508598221
15,1438260092666,45.5319664519275
16,1438260093466,44.0215588314091
17,1438260094171,45.2799173683575
18,1438260094808,45.07450784028
19,1438260095489,48.3708741076241
20,1438260096224,45.1714188871183
21,1438260096978,45.2501852167928
22,1438260097724,46.9525108360025
23,1438260098404,47.7467152025741
24,1438260099051,45.264250546574
25,1438260099802,63.1385229324159
26,1438260100543,59.4167316952867
27,1438260101276,44.8676242004623
28,1438260102002,45.0959973655734
29,1438260102724,44.7462664524617
30,1438260103509,43.98044216452
31,1438260104257,46.6200771633234
32,1438260105001,45.5572290113454
33,1438260105718,43.9721436224113
34,1438260106451,60.8390307009302
35,1438260107190,49.3636821801724
36,1438260107986,47.6374558163996
37,1438260108691,53.7197756304554
38,1438260109416,45.6846501955865
39,1438260110152,46.4004726318359
40,1438260110900,44.5987387555597
41,1438260111631,49.9149280689652
42,1438260112357,43.8915305918499
43,1438260113084,47.8630930443227
44,1438260113760,44.6232994187697
45,1438260114320,44.114518273599
46,1438260114893,42.5795142781284
47,1438260115557,57.3461421330523
48,1438260116287,52.1260951919246
49,1438260116990,44.3094790417969
50,1438260117657,42.3695350729678
51,1438260118327,42.7787019593052
52,1438260118990,58.7951957121574
53,1438260119665,43.1764021377612
54,1438260120390,51.1772732514769
55,1438260121122,41.7168478577697
56,1438260121876,44.1453296467765
57,1438260122652,44.5254722641184
58,1438260123385,54.5833430007791
59,1438260124107,51.5853552414017
60,1438260124884,45.2014104310171
61,1438260125607,42.9598147376912
62,1438260126318,39.3663353625268
63,1438260127020,46.0702270299234
64,1438260127794,62.4643607250886
65,1438260128490,46.3125860106915
66,1438260129195,44.81874736963
67,1438260129931,47.5060512923383
68,1438260130669,47.9475210223272
69,1438260131415,44.6874743163464
70,1438260132139,43.9892536554035
71,1438260132897,55.0534123788161
72,1438260133610,59.8670853145822
73,1438260134297,45.4239963369385
74,1438260134879,44.5634933244411
75,1438260135568,44.9052805203102
76,1438260136300,44.866618796039
77,1438260137052,43.0557655686486
78,1438260137802,45.100561228184
79,1438260138521,45.9002101367941
80,1438260139257,50.1959805634134
81,1438260139991,52.0127092697924
82,1438260140657,51.2013329504609
83,1438260141398,45.1993847621971
84,1438260142121,54.9226338528992
85,1438260142875,44.7727794370464
86,1438260143595,44.7991291561657
87,1438260144312,45.7605630832944
88,1438260145037,54.8621300783081
89,1438260145727,57.1137767338343
90,1438260146442,58.6325654630816
91,1438260147183,48.0205800982361
92,1438260147931,46.1520118891513
93,1438260148669,47.5084858118421
94,1438260149416,44.7637324559404
95,1438260150155,49.4203602643321
96,1438260150919,45.482355508417
97,1438260151669,49.5847132590975
98,1438260152385,46.9451428262929
99,1438260153127,45.6221893416163
100,1438260153863,46.2686182420378
101,1438260154597,45.0449960641073
102,1438260155323,45.1863964164391
103,1438260156041,56.6053097634964
104,1438260156819,46.3854294554538
105,1438260157562,58.0257882087126
106,1438260158293,60.0963924701068
107,1438260158990,57.1956394084861
108,1438260159701,50.2447402009129
109,1438260160373,46.8604425831741
110,1438260161122,47.4875230895351
111,1438260161887,45.4101308864658
112,1438260162587,46.1662919897004
113,1438260163274,45.5268424211856
114,1438260164009,44.3727451119477
115,1438260164706,45.878687677731
116,1438260165419,44.0510902453278
117,1438260166174,44.2368962544896
118,1438260166930,46.2195243610276
119,1438260167651,45.7643816810759
120,1438260168378,43.467277995311
121,1438260169108,45.7519793195766
122,1438260169876,45.6467399925721
123,1438260170632,44.3929722040642
124,1438260171362,46.5813438175756
125,1438260172081,44.7102468381666
126,1438260172836,50.950362769691
127,1438260173639,50.2485663890496
128,1438260174402,62.3876353082716
129,1438260175069,59.5441403483621
130,1438260175661,53.8266285804539
131,1438260176342,53.8845466108727
132,1438260177078,43.2560041214102
133,1438260177825,44.040652176452
134,1438260178572,44.576379131116
135,1438260179299,46.1124365326949
136,1438260180036,44.8751766144893
137,1438260180758,43.3418115740171
138,1438260181480,44.2631074070226
139,1438260182213,46.3865403570785
140,1438260183021,44.5022482472393
141,1438260183804,47.089657479655
142,1438260184512,43.7954919774957
143,1438260185245,44.2468414125987
144,1438260185966,42.3575308884617
145,1438260186700,56.261892983243
146,1438260187430,58.2895095700997
147,1438260188192,45.4037614550581
148,1438260188904,43.8942643746535
149,1438260189640,45.2620573819634
150,1438260190377,46.4978524113218
151,1438260191105,46.4044503815158
152,1438260191871,45.8411363912091
153,1438260192601,46.3931971425793
154,1438260193333,44.4225479249121
155,1438260194061,46.2687680562769
156,1438260194830,44.2427515535051
157,1438260195555,43.0243329964583
158,1438260196273,47.3145947470936
159,1438260196991,44.7849586263732
160,1438260197717,44.9777614866502
161,1438260198460,50.2754027191582
162,1438260199203,58.9189385721171
163,1438260199906,51.8037141431606
164,1438260200577,60.3386512536416
165,1438260201302,54.5376927328232
166,1438260202032,54.0657489829984
167,1438260202779,49.4880264966563
168,1438260203507,48.3392077347556
169,1438260204235,44.2990861010027
170,1438260205026,45.9270592224499
171,1438260205752,45.2485768417695
172,1438260206478,58.8171293194698
173,1438260207196,46.8885146884915
174,1438260207937,65.1499204245801
175,1438260208706,46.527182982614
176,1438260209437,52.6343925286265
177,1438260210191,44.295836176922
178,1438260210938,43.1061596582527
179,1438260211662,46.002858083203
180,1438260212384,45.560391713436
181,1438260213206,44.6934536122847
182,1438260213955,45.9302548734314
183,1438260214686,46.2355997224699
184,1438260215415,52.2783531067768
185,1438260216158,46.9572879007352
186,1438260216919,56.9688111203359
187,1438260217666,47.3538712901112
188,1438260218381,54.1283448920307
189,1438260219099,47.7923842258405
190,1438260219862,63.3121734088902
191,1438260220572,45.6671936135829
192,1438260221304,51.0678850467391
193,1438260222029,44.3243302206414
194,1438260222752,40.9122723112745
195,1438260223485,41.4814088388085
196,1438260224216,42.2341297857401
197,1438260224951,40.6626260644036
198,1438260225745,54.7577803336028
199,1438260226472,42.4445716005318
200,1438260227202,41.0959381726626
201,1438260227947,40.552411006814
202,1438260228780,42.2961335879777
203,1438260229519,43.9215965230004
204,1438260230220,39.2183688550595
205,1438260230960,41.9259477446126
206,1438260231680,42.7812206107328
207,1438260232346,42.4643629733991
208,1438260233084,41.678954651673
209,1438260233951,43.5840727722692
210,1438260234662,59.0203725852994
211,1438260235320,45.207315063612
212,1438260236844,42.0442552079756
213,1438260237574,42.6626412256627
214,1438260238301,40.2302469806735
215,1438260239128,48.5017117492828
216,1438260239906,53.1033796178474
217,1438260240622,39.7476017892994
218,1438260241328,38.8797422898531
219,1438260241917,42.843393704398
220,1438260242614,42.5086038415093
221,1438260243427,41.7701400815044
222,1438260244175,41.2865864719631
223,1438260244887,39.6953846592014
224,1438260246309,54.8119761865534
225,1438260246987,43.0454794111842
226,1438260247734,42.154010853798
227,1438260248523,50.7205502471099
228,1438260249259,41.9503617477659
229,1438260249980,42.2012028854165
230,1438260250723,40.1074085568652
231,1438260251468,42.3364221661215
232,1438260252196,41.8701410251262
233,1438260252942,41.5762400766802
234,1438260253661,61.1575040177665
235,1438260254369,53.7208145994699
236,1438260255094,47.4412410599576
237,1438260255812,59.1662486248819
238,1438260256462,42.2275343361426
239,1438260257199,42.812500646094
240,1438260257934,41.6818462413287
241,1438260258667,44.1811647265411
242,1438260259402,50.8481915301039
243,1438260260090,63.7140806451951
244,1438260261633,55.5916125811511
245,1438260262355,52.0709430868111
246,1438260263082,47.5998858665537
247,1438260263821,55.9480052402504
248,1438260264593,46.6490315724533
249,1438260265335,39.8813659084718
250,1438260266074,39.8381637827529
251,1438260266684,39.3309365613352
252,1438260267380,40.7762803116755
253,1438260268050,56.9989394378102
254,1438260268739,44.0913550918677
255,1438260270437,60.7006606690289
256,1438260271105,41.4948818628263
257,1438260271809,48.6343347651867
258,1438260272463,59.1295785875386
259,1438260273183,46.3446479934857
260,1438260273947,42.0474703080048
261,1438260274661,41.8736991436751
262,1438260275393,45.5537979031196
263,1438260276145,42.4784859659535
264,1438260276893,57.3779150663993
265,1438260277637,42.5894104785345
266,1438260278382,51.2188560553703
267,1438260279125,65.0011464201299
268,1438260279873,53.0530195903308
269,1438260280560,49.0873763853001
270,1438260281169,44.9031147441643
271,1438260281868,46.2386568461299
272,1438260282587,44.1666418524701
273,1438260283320,44.1722725015998
274,1438260284044,43.3845510570923
275,1438260284775,41.4474231134911
276,1438260285463,40.908705577051
277,1438260286172,42.2966061280715
278,1438260286886,43.7582041524537
279,1438260287632,43.5499449668691
280,1438260288363,44.4352406960655
281,1438260289106,43.3634225069359
282,1438260289889,44.2163676712602
283,1438260290592,43.0834078869302
284,1438260291266,43.0867752142088
285,1438260292046,39.4594683040845
286,1438260292730,42.6215417277824
287,1438260293445,44.7216674487927
288,1438260294205,44.2844224412119
289,1438260294936,42.9807421595342
290,1438260295740,44.9141264470781
291,1438260296472,45.0741133354329
292,1438260297107,43.013253475052
293,1438260297843,45.8618596813396
294,1438260298573,45.5604917023618
295,1438260299343,44.4889028854584
296,1438260300069,42.7016613546823
297,1438260300778,45.7904780672624
298,1438260301456,47.0586428014827
299,1438260302189,49.7891144340067
300,1438260302903,51.465476064726
301,1438260303546,45.3608612502878
302,1438260304290,46.9207525047723
303,1438260305013,44.7489376799112
304,1438260305774,48.8656211957107
305,1438260306512,45.6864511021517
306,1438260307203,60.4942887931555
307,1438260307955,43.8818609195501
308,1438260308701,58.3711974537348
309,1438260309507,59.2564093525806
310,1438260310231,47.3830602114292
311,1438260310947,48.4195980514523
312,1438260311675,45.1110552649252
313,1438260312403,45.8175405712954
314,1438260313130,46.4021605505688
315,1438260313860,52.2771068731785
316,1438260314583,45.4798489196987
317,1438260315312,45.5906204648317
318,1438260316036,46.2621390578823
319,1438260316817,45.433080096638
320,1438260317391,43.9702675301029
321,1438260318064,54.2624295798604
322,1438260318786,43.3910381823114
323,1438260319583,45.1411667424566
324,1438260320317,44.5812140652032
325,1438260321069,43.3958918359324
326,1438260321807,43.0304694402694
327,1438260322420,62.8467374636395
328,1438260323076,43.0971506508837
329,1438260323777,44.6252992351721
330,1438260324576,42.2165303412053
331,1438260325299,46.7899044851257
332,1438260326018,44.3324151699783
333,1438260326769,55.1896152314909
334,1438260327475,42.8570466987266
335,1438260328178,46.2205899391793
336,1438260328904,55.5246661767592
337,1438260329772,44.8211328371849
338,1438260330525,46.3372733968288
339,1438260331267,47.3345149606251
340,1438260332007,46.6121725749331
341,1438260332730,43.610972512298
342,1438260333446,42.6319564334927
343,1438260334120,46.3528360879116
344,1438260334859,47.1454263761645
345,1438260335595,45.6748850433193
346,1438260336320,46.7973418198133
347,1438260337016,47.7793112691852
348,1438260337687,45.1713407992076
349,1438260338349,43.1662442443579
350,1438260339102,45.2632275794314
351,1438260339824,44.0961437752853
352,1438260340555,42.7081671059808
353,1438260341284,45.2271645973157
354,1438260341984,45.4333826905189
355,1438260342684,60.2195135333473
356,1438260343357,50.9109024019946
357,1438260344082,60.7616798079163
358,1438260344723,58.0843750406715
359,1438260345485,43.5878267069008
360,1438260346233,43.9320024991221
361,1438260346960,62.5134195354464
362,1438260347691,45.0565907179406
363,1438260348419,48.0765383784605
364,1438260349145,69.4610228770585
365,1438260349866,67.1526871847606
366,1438260350614,49.5441591261316
367,1438260351330,45.4312547733402
368,1438260352070,47.0262061893
369,1438260352806,44.5578738720092
370,1438260353542,47.3258467092198
371,1438260354221,50.1388244367468
372,1438260354881,70.1156425250057
373,1438260355619,46.2810723413011
374,1438260356343,45.5194966929851
375,1438260357085,42.7037976105167
376,1438260357834,45.8865283398143
377,1438260358487,48.4316335795245
378,1438260359217,45.8733555942065
379,1438260359967,44.3243692781666
380,1438260360701,46.7916086730154
381,1438260361419,45.5720932700912
382,1438260362139,45.0823156381718
383,1438260362751,39.5922791844521
384,1438260363437,43.061666778476
385,1438260364185,40.8243656946015
386,1438260364857,42.4163639851538
387,1438260365597,45.8158066058864
388,1438260366323,42.8366565441486
389,1438260367016,44.2463362857029
390,1438260367690,42.9326198422953
391,1438260368359,41.6344074162948
392,1438260369082,43.9808650139486
393,1438260369899,40.7765276465467
394,1438260370654,42.8581272780345
395,1438260371401,44.4066421609384
396,1438260372121,42.6469971129591
397,1438260372865,46.2201584920844
398,1438260373582,46.0192567622081
399,1438260374266,55.663848236428
400,1438260374938,43.7817048284359
401,1438260375656,45.6514452398827
402,1438260376394,46.0805928799841
403,1438260377085,50.6101148692182
404,1438260377750,62.339294706268
405,1438260378466,48.1026552421353
406,1438260379202,45.5767335467412
407,1438260380020,44.3166089963703
408,1438260380771,43.5615803265529
409,1438260381497,44.2402318282402
410,1438260382293,44.4449987813112
411,1438260383015,43.4369421895009
412,1438260383734,42.6610440144625
413,1438260384405,42.2302317850617
414,1438260385099,40.725348203128
415,1438260385853,41.8960529436808
416,1438260386584,57.809520102878
417,1438260387308,44.6842473370886
418,1438260388038,61.5587277946787
419,1438260388767,42.7918390195542
420,1438260389525,42.5329792923741
421,1438260390250,43.4198216225741
422,1438260391015,43.0329543649018
423,1438260391749,48.0845382026934
424,1438260392473,43.7489871131927
425,1438260393206,42.2313972761291
426,1438260393935,44.014364318601
427,1438260394647,44.7647578320104
428,1438260395358,49.7446246415867
429,1438260396043,44.2510880909626
430,1438260396829,43.0702882255751
431,1438260397570,47.5648242862585
432,1438260398281,48.6247984633799
433,1438260399010,45.8270058099126
434,1438260399663,45.0877272907886
435,1438260400397,43.7269657240476
436,1438260401151,44.1763569564495
437,1438260401862,44.8515886524848
438,1438260402597,43.8777419809647
439,1438260403316,42.6929209519701
440,1438260404078,42.2414861473662
441,1438260404809,45.4605081620899
442,1438260405489,42.9815732508157
443,1438260406285,41.7591402635643
444,1438260407021,42.6532400888655
445,1438260407765,41.6633402243185
446,1438260408473,42.8915489133426
447,1438260409116,45.1385387214419
448,1438260409806,54.0082802510631
449,1438260410537,43.6428123607129
450,1438260411280,49.5195818317775
451,1438260412012,47.9208645119969
452,1438260412758,44.6673457458479
453,1438260413511,45.9191138859546
454,1438260414330,43.0398186138314
455,1438260415074,46.7263593951745
456,1438260415748,65.2714399566543
457,1438260416490,53.2458149942239
458,1438260417225,44.8348224469554
459,1438260417935,61.2000181979202
460,1438260418608,45.4927657574063
461,1438260419262,44.4351295678049
462,1438260419918,61.1607157117776
463,1438260420571,46.2887192170439
464,1438260421304,47.5632703468939
465,1438260422049,49.7193207844043
466,1438260422777,52.5045259305502
467,1438260423503,45.1691310513297
468,1438260424178,44.566755433744
469,1438260424918,58.5191275933062
470,1438260425628,47.8264765939766
471,1438260426365,53.769414505201
472,1438260427128,48.9531117393228
473,1438260427883,45.988208441848
474,1438260428569,44.7637718287887
475,1438260429212,48.430534386697
476,1438260429901,48.1421994057368
477,1438260430636,62.4636231324565
478,1438260431365,43.2697158398242
479,1438260432112,47.7862009424667
480,1438260432843,44.901448390129
481,1438260433579,46.4182707519389
482,1438260434387,52.4077696822988
483,1438260435132,47.5106021150661
484,1438260435859,43.1025053773424
485,1438260436540,41.9758856344227
486,1438260437227,46.7580416468936
487,1438260437959,59.7249669757545
488,1438260438682,51.2411385744598
489,1438260439410,50.8256386438414
490,1438260440905,44.3392441577412
491,1438260441585,59.9833356716154
492,1438260442313,43.8970162159076
493,1438260443046,46.7249968960399
494,1438260443764,47.7912128528231
495,1438260444594,50.6439139342656
496,1438260445318,45.3681986534545
497,1438260446066,60.7477226064681
498,1438260446725,49.414134015088
499,1438260447443,49.3840383675663
500,1438260448170,48.8079584055862
501,1438260448997,47.814425499432
502,1438260449689,44.5047881573931
503,1438260450272,45.9761896455395
504,1438260450957,43.5777116346311
505,1438260451692,42.6650388733596
506,1438260452422,42.5461773676339
507,1438260453110,46.3164607510314
508,1438260454638,46.1077895225707
509,1438260455361,44.7668126923638
510,1438260456035,58.4088540877093
511,1438260456724,45.4446399833246
512,1438260457456,45.092447225542
513,1438260458192,43.5474734571883
514,1438260458974,43.3179541795671
515,1438260459661,48.0799829799787
516,1438260460250,51.9031537882725
517,1438260460922,46.5775984099965
518,1438260461651,44.4421881300626
519,1438260462400,45.9013501380084
520,1438260463137,47.6238535377153
521,1438260463946,64.6300687997169
522,1438260464702,43.6441366651214
523,1438260465407,45.8427324496094
524,1438260466117,46.8488966556694
525,1438260466753,43.108586306651
526,1438260467437,45.5881565248352
527,1438260468166,44.2671745796049
528,1438260468930,44.2546804957382
529,1438260469622,44.6109924610219
530,1438260470228,45.1706732805062
531,1438260470914,42.0167492469914
532,1438260471652,44.492180978372
533,1438260472390,46.201159428114
534,1438260473123,44.0078195956331
535,1438260473856,41.9690745762892
536,1438260474674,42.7891847320404
537,1438260475422,42.4175805612981
538,1438260476140,42.344321137297
539,1438260478186,43.2473525318658
540,1438260478940,43.5992230332504
541,1438260479744,43.730000522592
542,1438260480442,42.9101898455203
543,1438260481156,40.3037260800128
544,1438260481958,42.4768959737498
545,1438260482657,42.9708150096477
546,1438260483380,44.4956689521483
547,1438260484177,45.9285409464248
548,1438260484883,44.7166062749538
549,1438260485565,44.1367874238287
550,1438260486300,44.5372474729831
551,1438260487006,44.0431384937134
552,1438260487694,45.1169262329603
553,1438260488421,42.9623718380864
554,1438260489156,43.4966017037417
555,1438260490965,44.6316501557594
556,1438260491689,43.9174253857936
557,1438260492415,44.1722833514768
558,1438260493150,43.3976350504755
559,1438260493913,45.0827163565166
560,1438260494659,42.0782722138939
561,1438260495384,41.8441757581031
562,1438260496106,40.8401043983073
563,1438260496818,40.8965488343735
564,1438260497512,41.7347338981956
565,1438260498202,43.7327680633521
566,1438260498946,42.995430675637
567,1438260499708,41.1202142177157
568,1438260500405,40.942818550299
569,1438260500985,42.9019161697938
570,1438260501642,42.1011528212083
571,1438260502300,42.6362984695684
572,1438260503048,42.4015876607819
573,1438260503776,44.4749773052011
574,1438260504540,44.4682785730747
575,1438260505273,44.3118517993338
