id,attr_time,attr_db
1,1436896821178,43.6529412880055
2,1436896821807,43.5250392856428
3,1436896822488,43.2507034320112
4,1436896823237,43.0000435005897
5,1436896823965,48.53069872023
6,1436896824696,55.9104580111677
7,1436896825455,37.9907537270361
8,1436896826181,43.0407699219938
9,1436896826888,44.7697408800635
10,1436896827525,53.6061380924858
11,1436896828275,38.0774178003698
12,1436896829028,53.5591530879459
13,1436896829764,37.5471715839728
14,1436896830524,38.9251033303095
15,1436896831265,37.3488704509241
16,1436896831986,42.3672039165716
17,1436896832662,61.3550343065034
18,1436896833334,46.6942811746935
19,1436896834059,62.1326263901584
20,1436896834785,45.0739816641535
21,1436896835536,37.4093552518514
22,1436896836258,46.682881031626
23,1436896836985,48.9465858113292
24,1436896837593,52.9446541620624
25,1436896838314,59.5366643472079
26,1436896839067,73.4471870605146
27,1436896839815,58.5819093136584
28,1436896840503,58.3858202257773
29,1436896841192,43.6294273970338
30,1436896841923,56.4204399101216
31,1436896842644,40.9272120995369
32,1436896843382,43.018964568588
33,1436896844108,42.559374257563
34,1436896844853,71.4177989050766
35,1436896845586,68.6657323819574
36,1436896846339,42.0539210824204
37,1436896847057,43.803689374495
38,1436896847739,71.1594749801493
39,1436896848485,48.9242318982023
40,1436896849271,59.8374318065387
41,1436896850099,49.4522809359002
42,1436896850822,41.1475233551516
43,1436896851513,39.0439860717082
44,1436896852172,43.2667689922329
45,1436896852893,47.2972699721084
46,1436896853639,38.5110731509622
47,1436896854365,35.4850733904875
48,1436896855093,34.0796762517106
49,1436896855798,33.2739888716789
50,1436896856584,31.5054703487609
51,1436896857272,39.0035570299842
52,1436896857883,36.555951944511
53,1436896858531,37.6659205247095
54,1436896859225,34.0801172076027
55,1436896859953,53.6260575552251
56,1436896860689,42.4506577624452
57,1436896861371,46.1327535718593
58,1436896861951,36.6841218331057
59,1436896862611,63.3330102059084
60,1436896863342,61.9519941204495
61,1436896864064,52.5602300061041
62,1436896864799,41.7507115346625
63,1436896865531,35.1504715330532
64,1436896866336,55.6748814348943
65,1436896867041,50.2513856626896
66,1436896867757,52.2480591959315
67,1436896868332,30.1588009677401
68,1436896869011,60.0250972990806
69,1436896869738,64.7565194121335
70,1436896870459,36.9372246821827
71,1436896871366,49.3924791737977
72,1436896872079,59.9279174507078
73,1436896872712,26.9449326778885
74,1436896873445,44.0985013876029
75,1436896874205,36.5294858619498
76,1436896874931,30.2443444329686
77,1436896875663,54.146328768735
78,1436896876544,40.1609533464435
79,1436896877216,29.687685158017
80,1436896877778,27.9390786973968
81,1436896878460,30.482727462193
82,1436896879222,32.7272745644226
83,1436896879962,35.067801245588
84,1436896880675,57.5410442023722
85,1436896881432,38.1468887763962
86,1436896882034,35.467034248051
87,1436896882686,35.6850794658971
88,1436896883363,36.3664244574155
89,1436896883979,36.8263925970565
90,1436896884667,37.7523841608704
91,1436896885391,37.371434873229
92,1436896886128,37.3055186058331
93,1436896886849,35.4436185165839
94,1436896887597,37.0899497556031
95,1436896888351,35.3749403771236
96,1436896888929,34.9105116763554
97,1436896889623,34.1100624354322
98,1436896890296,33.5043289314195
99,1436896890879,34.6446013325642
100,1436896891573,33.3014678554171
101,1436896892336,32.5475168905098
102,1436896892983,29.749589467978
103,1436896893661,32.4985419367069
104,1436896894408,32.0556221741221
105,1436896895155,32.4468314414715
106,1436896895907,30.6183018767428
107,1436896896680,66.628093236725
108,1436896897419,36.373494321914
109,1436896898185,28.9753593113245
110,1436896898873,46.4229907931614
111,1436896899599,56.8557844863263
112,1436896900377,50.8427644730785
113,1436896901118,37.7383930938539
114,1436896901884,48.252465482517
115,1436896902531,33.4318015112151
116,1436896903214,49.0401228422236
117,1436896903975,53.114026781322
118,1436896904725,34.9944750517608
119,1436896905525,32.2334943440688
120,1436896906265,57.0768493292625
121,1436896907043,40.2202079695536
122,1436896907780,47.3061370227512
123,1436896908522,33.1298266569804
124,1436896909240,48.273492408605
125,1436896909973,39.4660697918664
126,1436896910679,33.9746426503987
127,1436896911414,33.8859188913205
128,1436896912189,33.8746168401057
129,1436896912833,34.1007336947433
130,1436896913508,33.1865476375873
131,1436896914183,41.8562283832664
132,1436896914914,33.7723046512274
133,1436896915654,33.202832399184
134,1436896916402,39.2781339465255
135,1436896917139,41.3453232522754
136,1436896917888,33.088432135486
137,1436896918615,40.4403509802243
138,1436896919303,34.3382260334309
139,1436896920027,34.0932646214092
140,1436896920753,39.6862093050641
141,1436896921534,41.496056770729
142,1436896922372,35.9249449967837
143,1436896923200,50.3974520163828
144,1436896923857,46.1940260903843
145,1436896924515,54.1369057026555
146,1436896925242,36.1405068214778
147,1436896925984,51.704136223609
148,1436896926728,33.8270343634311
149,1436896927545,35.6009798931026
150,1436896928300,41.0195980164573
151,1436896928978,39.4834419550539
152,1436896929634,47.6032925096614
153,1436896930402,51.640661321978
154,1436896931174,45.9465494807271
155,1436896931884,34.8872932643226
156,1436896932559,28.6880353631768
157,1436896933302,54.3783659263888
158,1436896933963,63.7905163664134
159,1436896934703,32.3960077488019
160,1436896935432,37.113959278199
161,1436896936172,55.5354258216361
162,1436896936949,50.6606808814488
163,1436896937702,55.6262757057849
164,1436896938477,59.4158326906823
165,1436896939206,48.7104587557334
166,1436896939885,56.6950158586528
167,1436896940617,56.8094980120705
168,1436896941341,58.6367741863546
169,1436896942057,42.1609590227468
170,1436896942765,54.504357581105
171,1436896943575,57.5093386922138
172,1436896944245,41.3338054671813
173,1436896944988,55.669745529944
174,1436896945717,59.7840998274304
175,1436896946473,49.5329656117983
176,1436896947230,56.9529296666767
177,1436896947940,55.6831635594907
178,1436896948635,53.3940140515599
179,1436896949308,43.5598331140767
180,1436896949895,68.5482480597432
181,1436896950572,62.5972352180078
182,1436896951306,63.1509728630727
183,1436896952040,64.0010677758383
184,1436896952756,60.4555683399198
185,1436896953438,56.939771357054
186,1436896954069,40.3224140209473
187,1436896954798,46.9856004781827
188,1436896955543,41.7980227583193
189,1436896956278,35.6637134597006
190,1436896957028,42.6347885723515
191,1436896957806,61.1642616318796
192,1436896958545,54.4497565752525
193,1436896959273,40.3305204740893
194,1436896959997,45.1699595656191
195,1436896960684,36.820521278248
196,1436896961432,29.5811973331507
197,1436896962206,49.4212409981153
198,1436896962928,50.4793136128232
199,1436896963675,47.0089305841017
200,1436896964442,33.6476839710346
201,1436896965076,42.7093636408782
202,1436896965809,34.8483642709466
203,1436896966535,26.2522773738396
204,1436896967271,57.2388634096188
205,1436896968008,38.5006993893597
206,1436896968768,37.9348030615329
207,1436896969514,34.0607133261154
208,1436896970257,56.5232196206262
209,1436896970898,50.2065537681771
210,1436896971590,58.3354575646302
211,1436896972314,45.2686788092897
212,1436896973067,60.5541280455786
213,1436896973811,42.8879149297406
214,1436896974504,22.9777909322534
215,1436896975182,40.9056160435293
216,1436896975934,56.274459845277
217,1436896976682,30.5487068501322
218,1436896977426,37.8774732387457
219,1436896978166,40.6953481642605
220,1436896978900,50.2676517115844
221,1436896980204,60.8286598965014
222,1436896980877,61.1977727055362
223,1436896981606,55.7460778940438
224,1436896982327,49.0206413711459
225,1436896983069,43.7381483451904
226,1436896983761,30.7154702327508
227,1436896984526,57.0900226358192
228,1436896985891,56.38874945916
229,1436896986645,56.1352527134248
230,1436896987386,60.1734754552722
231,1436896988124,50.167914861908
232,1436896988856,56.1831883636377
233,1436896989574,29.5661610553688
234,1436896990286,49.227833824033
235,1436896990937,60.615226400829
236,1436896991649,51.4012271494403
237,1436896993154,55.3884461713578
238,1436896993873,46.8512038563545
239,1436896994564,46.7085221078145
240,1436896995245,55.9565945809562
241,1436896995962,59.9681354983546
242,1436896997721,45.7974363115507
243,1436896998416,57.1702487097327
244,1436896999172,62.5713229005409
245,1436896999922,56.621694781624
246,1436897000623,47.1287359075034
247,1436897001306,56.3703007639289
248,1436897002131,53.9529157016091
249,1436897002868,55.4595351236014
250,1436897003627,42.8541407759851
251,1436897004394,43.4763002079863
252,1436897005054,42.841252719324
253,1436897005794,43.2063701581894
254,1436897006626,43.5361571906694
255,1436897007384,43.7230980634825
256,1436897008147,42.2901316638185
257,1436897008906,39.968073327507
258,1436897009531,40.602881163205
259,1436897010192,42.1854755625981
260,1436897010834,39.9577303101901
261,1436897011424,39.5262338509379
262,1436897012000,38.9001732953228
263,1436897012559,38.9448676125033
264,1436897013146,46.0149080249423
265,1436897013802,38.9899671821698
266,1436897014503,40.2200382017506
267,1436897015191,39.8472407495881
268,1436897015941,38.2719543791723
269,1436897016526,38.1406514615493
270,1436897017096,37.5405842495358
271,1436897017648,35.9597790107308
272,1436897018192,35.3363092985857
273,1436897019436,34.5057263013677
274,1436897020150,34.2940472520689
275,1436897020762,33.1173179759107
276,1436897021368,31.270974925176
277,1436897022145,33.1967514076769
278,1436897022728,32.9513948623086
279,1436897023267,41.8274284680452
280,1436897023822,45.25859134529
281,1436897024422,31.9124619677567
282,1436897025154,36.5790023394427
283,1436897025803,31.8219689496676
284,1436897026453,29.4755400240331
285,1436897027062,26.982273210289
286,1436897027631,31.0055160444077
287,1436897028188,29.6641400264585
288,1436897028740,27.2871769429394
289,1436897029996,37.047286876423
290,1436897030672,27.6972875565406
291,1436897031357,37.2751431096158
292,1436897031983,29.1215390852684
293,1436897032720,29.5710261854452
294,1436897033425,26.4478888993411
295,1436897033997,26.7678075385442
296,1436897034537,26.1646898002983
297,1436897035079,30.1961870113723
298,1436897035636,24.3204657905883
299,1436897036259,37.5756563853139
300,1436897037080,27.045512025735
301,1436897037675,29.1035824637197
302,1436897038266,20.8586590113697
303,1436897038838,38.078740781927
304,1436897039391,55.5342435818462
305,1436897039941,41.2461153121931
306,1436897040493,37.4773029248317
307,1436897041905,46.7158979780689
308,1436897042648,41.8922545274309
309,1436897043416,27.3891552166411
310,1436897044134,17.4384758967888
311,1436897044864,34.946898744005
312,1436897045602,56.5295854708261
313,1436897046341,48.1571928992301
314,1436897046977,58.5477995866004
315,1436897047675,46.0910160775595
316,1436897048411,18.7581119619959
317,1436897049161,47.0483956223648
318,1436897049870,50.5062561450873
319,1436897050603,42.3838120924255
320,1436897051315,60.4831491462421
321,1436897051958,42.4861799805387
322,1436897052654,32.955266042792
323,1436897053409,17.8985579007855
324,1436897054165,32.5778651433183
325,1436897054903,45.5313507894209
326,1436897055617,37.3296642952965
327,1436897056309,61.2800542999513
328,1436897057043,50.2319904978982
329,1436897057789,45.2774252273489
330,1436897058542,56.9536445489455
331,1436897059264,42.8120564040695
332,1436897060005,60.3592113475928
333,1436897060740,45.9930088967653
334,1436897061360,40.854092505296
335,1436897062043,61.4356578443762
336,1436897062754,55.4531824975577
337,1436897063478,45.284231209428
338,1436897064176,48.935613086575
339,1436897064924,62.3176077357918
340,1436897065613,45.2004256504653
341,1436897066358,45.8907389157582
342,1436897067099,21.4354140896105
343,1436897067845,20.5680395066822
344,1436897069154,37.7694152442212
345,1436897069759,17.9765158575347
346,1436897070425,24.3322140965748
347,1436897071162,35.7599875659777
348,1436897071998,22.0650031935837
349,1436897072732,60.0248651633023
350,1436897073426,52.772899526362
351,1436897074158,58.3845069548125
352,1436897074905,17.4283245458632
353,1436897075582,48.3414747449118
354,1436897076348,50.8277803407089
355,1436897077137,49.9286832033966
356,1436897077863,28.0815061460079
357,1436897078544,56.1700605304799
358,1436897079240,61.8210204912064
359,1436897079958,50.9524616333073
360,1436897080671,56.1427449575726
361,1436897081315,45.4611514370346
362,1436897082085,45.1696066650433
363,1436897082716,41.2628049836438
364,1436897083400,35.7367890543954
365,1436897084166,35.7252876899702
366,1436897084904,43.2705479972
367,1436897085632,53.9238743441896
368,1436897086366,18.3634202469558
369,1436897087032,43.8623951901624
370,1436897087829,46.6668565880686
371,1436897088581,30.8263978262088
372,1436897089311,58.7262033239826
373,1436897090052,50.9888918919137
374,1436897090792,58.377581049469
375,1436897091514,32.8693646236644
376,1436897092255,18.9165966262061
377,1436897092935,41.7632949626905
378,1436897093563,52.9192896203994
379,1436897094324,36.0095691863598
380,1436897095105,30.781055805756
381,1436897095925,54.1688433456946
382,1436897096627,44.805328004885
383,1436897097339,43.6225597913647
384,1436897098067,48.4910620311994
385,1436897098813,63.2005331405106
386,1436897099536,51.9280143484981
387,1436897100270,43.1512656881039
388,1436897101077,24.0861031247169
389,1436897101697,18.3107706511375
390,1436897102473,28.2861246299382
391,1436897103220,20.4094987167115
392,1436897103856,26.8441674390537
393,1436897104604,20.7604061605633
394,1436897105338,17.7442304809633
395,1436897106068,20.5874995025045
396,1436897106925,17.5018002394954
397,1436897107630,16.144281608577
398,1436897108351,17.1598288115673
399,1436897109074,16.2201603840799
400,1436897109827,16.2272781518973
401,1436897110553,45.3506029821696
402,1436897111315,14.9532599928138
403,1436897112063,25.4158278499363
404,1436897112802,22.3149825115845
405,1436897113551,20.984297721991
406,1436897114231,20.1423902034807
407,1436897114967,19.8560645230653
408,1436897115695,17.8343263084282
409,1436897116448,57.2547773166154
410,1436897117075,45.4178890849033
411,1436897117807,51.3626216566265
412,1436897118535,17.4538781310281
413,1436897119234,45.1606380809717
414,1436897119981,43.1965677552368
415,1436897120718,12.9626464416561
416,1436897121438,20.940787192776
417,1436897122110,57.846955322089
418,1436897122843,52.9387824529457
419,1436897123587,25.3805788439187
420,1436897124258,67.2811072169831
421,1436897125034,60.8668805589383
422,1436897125792,26.5594752506046
423,1436897126516,44.8320263567128
424,1436897127261,37.5103539197757
425,1436897127982,49.0844658977253
426,1436897128675,52.4230134363407
427,1436897129399,17.568979254614
428,1436897130131,50.5832416381673
429,1436897130852,54.5094429905921
430,1436897131583,51.9433336705607
431,1436897132292,18.1735227090688
432,1436897132983,30.2579860256526
433,1436897133709,19.1518644510635
434,1436897134379,12.3377397991388
435,1436897135154,15.3581530863326
436,1436897135865,21.5186312960399
437,1436897136621,18.3349591479195
438,1436897137378,22.5500916476489
439,1436897138024,25.1651672451811
440,1436897138780,20.9994131136975
441,1436897139503,21.8977881845363
442,1436897140244,22.5117541322708
443,1436897140984,24.9538207970014
444,1436897141720,23.6714005301058
445,1436897142384,23.9944196254838
446,1436897143112,25.461655158048
447,1436897143863,25.871888128868
448,1436897144536,29.5880922932604
449,1436897145198,29.7357392970187
450,1436897145944,31.8068105435811
451,1436897146691,35.0589381642995
452,1436897147419,36.6565940017143
453,1436897148214,44.9822489913766
454,1436897148883,59.0992337692529
455,1436897149623,68.5621321154812
456,1436897150364,40.3370243593716
457,1436897151083,31.5397122261672
458,1436897151816,37.0821783760115
459,1436897152492,42.5850157959421
460,1436897153220,69.323084803636
461,1436897153944,59.9567053663714
462,1436897154605,58.8220959788718
463,1436897155351,25.4467167549579
464,1436897156089,47.6167649095088
465,1436897156859,29.8012717074596
466,1436897157575,47.6023668737148
467,1436897158328,33.4970990995072
468,1436897158973,63.2538167026672
469,1436897159713,21.7473786158775
470,1436897160449,20.7702770160536
471,1436897161189,25.3814147958596
472,1436897162037,18.4220291853659
473,1436897162706,28.9817085632458
474,1436897163455,27.7309641891179
475,1436897164190,49.3125737702976
476,1436897164825,20.6588916053505
477,1436897165570,48.0407841493169
478,1436897166316,59.6535748190445
479,1436897167065,44.2566502594166
480,1436897167767,46.2050702662735
481,1436897168573,57.2666571853777
482,1436897169253,60.3239054776046
483,1436897169977,49.7303296711653
484,1436897170704,52.9461779213017
485,1436897171445,50.4654842213398
486,1436897172223,52.0339662473007
487,1436897172953,45.4103734251722
488,1436897173733,35.4466890889631
489,1436897174457,42.8884009777156
490,1436897175176,59.5771867057144
491,1436897175902,58.651107939304
492,1436897176637,51.8513696767631
493,1436897177429,36.7878339313777
494,1436897178188,67.9366264626372
495,1436897178903,72.5013609179414
496,1436897179617,27.4316508718226
497,1436897180371,45.4233817005289
498,1436897181098,34.0387357174779
499,1436897181850,59.609908985001
500,1436897182530,27.7087787816312
501,1436897184272,29.6157272514254
502,1436897184917,27.9141423979766
503,1436897185601,29.0705911753698
504,1436897186333,28.4290750228045
505,1436897187085,30.4849467503052
506,1436897187818,31.6542937999063
507,1436897188572,28.8220409964453
508,1436897189295,28.0535893279192
509,1436897190030,33.3234428944173
510,1436897190702,34.0920635981815
511,1436897191424,33.4878638047724
512,1436897192142,33.4983779896741
513,1436897193759,31.9253318809192
514,1436897194504,40.579164526815
515,1436897195214,39.8679230963294
516,1436897195851,42.69069818965
517,1436897196531,65.7002309954705
518,1436897197312,68.8490007691851
519,1436897198039,56.1077148890409
520,1436897198781,48.0845975098407
521,1436897199550,56.7341756975842
522,1436897200277,53.3894545568447
523,1436897200993,40.2544742984472
524,1436897201694,49.1566631840195
525,1436897202500,43.0026246631723
526,1436897203163,38.1727240067665
527,1436897203883,37.7181722275446
528,1436897204601,35.0679322983303
529,1436897205248,48.1911556362452
530,1436897205949,49.6644728512289
531,1436897206713,48.4731478052963
532,1436897207437,57.6830279602425
533,1436897209569,35.1805648452769
534,1436897210300,64.9415768838547
535,1436897211034,60.6917392288867
536,1436897211768,48.5447505969227
537,1436897212555,36.6053307348073
538,1436897213291,43.919394487115
539,1436897214022,36.6460552050573
540,1436897214776,34.8235646136833
541,1436897215507,33.6405209560757
542,1436897216171,32.8557779141324
543,1436897217908,35.0539050617952
544,1436897218534,36.5874722394722
545,1436897219260,47.3525787547468
546,1436897219939,34.4959375503124
547,1436897220573,65.7881563478922
548,1436897221344,63.8008091368827
549,1436897222049,59.3364650139027
550,1436897222789,42.9036294908071
551,1436897223500,36.2150843667884
552,1436897224190,36.1412236711319
553,1436897224945,33.1079227455322
554,1436897225638,34.0809625126714
555,1436897226251,34.5034983623647
556,1436897226978,36.6901653667245
557,1436897227805,35.8238098125904
558,1436897228563,35.3865241877074
559,1436897229318,34.5262255755771
560,1436897229974,35.0809655685921
561,1436897230728,33.9049512359362
562,1436897231430,32.2053633390006
563,1436897232194,34.5051747307479
564,1436897232989,33.862768787975
565,1436897233712,35.4950541743227
566,1436897234455,34.3971102142251
567,1436897235219,31.4562975308205
568,1436897235966,33.9086098883003
569,1436897236647,32.2182026579607
570,1436897237354,35.1553915656942
571,1436897238084,34.2582918772271
572,1436897238834,34.0554096932959
573,1436897239575,32.837111222016
574,1436897240331,33.2352475776134
575,1436897240970,35.2531375964642
576,1436897241660,34.0839470908303
