id,attr_time,attr_db
1,1436896820777,36.0717818093144
2,1436896821124,35.2906554918096
3,1436896821560,40.705220687486
4,1436896822047,34.623415961171
5,1436896822547,31.8010648066251
6,1436896823029,64.4447400593633
7,1436896823538,36.137635346738
8,1436896824096,67.0862774347825
9,1436896824597,44.1511070237927
10,1436896825094,40.3284979387196
11,1436896825602,35.3242302466906
12,1436896826102,34.3669181558091
13,1436896826593,56.7924453009746
14,1436896827093,52.7640799379582
15,1436896827584,30.7546097246274
16,1436896828072,30.4602091145577
17,1436896828583,33.0019081363341
18,1436896828976,51.1668311908853
19,1436896829377,30.5830357015424
20,1436896829824,30.8141882121519
21,1436896830304,33.6912635141868
22,1436896830775,32.0480581962932
23,1436896831227,32.2248989052024
24,1436896831715,31.8285926805995
25,1436896832197,63.7808117724017
26,1436896832661,67.9364382729037
27,1436896834159,38.2849088054132
28,1436896834574,42.7107116635635
29,1436896834966,30.0566583349166
30,1436896835426,39.7791594537889
31,1436896835902,34.6096398426057
32,1436896836404,37.5377690633707
33,1436896836923,39.5031096831745
34,1436896837436,64.2433071635211
35,1436896837929,60.3436935337392
36,1436896838420,34.8264928468531
37,1436896838917,44.880540658092
38,1436896839365,62.4408039744236
39,1436896839767,36.2320631331419
40,1436896840245,40.4721559702416
41,1436896840734,37.1415191128601
42,1436896841236,52.3173274449082
43,1436896841756,51.7048780025111
44,1436896842239,37.7945182250216
45,1436896842690,37.2967273254525
46,1436896843111,38.7859219612108
47,1436896843570,37.6552942971453
48,1436896844038,67.1625571668916
49,1436896844527,64.0539933422383
50,1436896845018,72.6507904329633
51,1436896845501,39.7002693646696
52,1436896845998,45.9959371432294
53,1436896846489,38.7524554376092
54,1436896848157,66.1039717896516
55,1436896848640,60.2953444742996
56,1436896849156,69.601964734404
57,1436896849541,55.6259086281312
58,1436896849896,61.3633092469716
59,1436896850346,38.3934540487952
60,1436896850830,36.0176368761622
61,1436896851313,34.9970997611343
62,1436896851797,33.6818448423438
63,1436896852288,50.2833784584823
64,1436896852786,32.9295746134171
65,1436896853290,31.4131421468871
66,1436896853799,31.3558682559315
67,1436896854238,29.4994123536067
68,1436896854720,26.290300083332
69,1436896855243,28.2514058657986
70,1436896855740,25.9523263572055
71,1436896856228,22.8118018778817
72,1436896856733,30.9349828202718
73,1436896857234,24.4101035153962
74,1436896857725,28.1859168912344
75,1436896858202,54.017160200958
76,1436896858713,27.5480121859618
77,1436896859206,32.0010270762526
78,1436896859712,66.3678999608112
79,1436896860198,41.2688262060887
80,1436896860661,25.1180545012498
81,1436896861066,29.5557950423039
82,1436896861519,34.8311160865875
83,1436896861994,67.6098771369632
84,1436896862501,68.9934374966332
85,1436896862951,36.4396521961002
86,1436896863405,25.1639385921241
87,1436896863899,33.835586404655
88,1436896864418,39.7880312127101
89,1436896864913,33.7763626126455
90,1436896865406,25.2647614733546
91,1436896865891,43.9401714035566
92,1436896866390,46.4318406654373
93,1436896866895,62.6240114092695
94,1436896867402,40.2181182347612
95,1436896867902,29.808747770918
96,1436896868394,54.6643999932415
97,1436896868904,51.2921447576743
98,1436896869513,51.8622694535272
99,1436896870935,44.6030859549254
100,1436896871381,32.9641411121999
101,1436896871885,63.5052262353807
102,1436896872370,61.3145084191941
103,1436896872860,34.5057833466447
104,1436896873394,33.86048340254
105,1436896873837,45.1570050634842
106,1436896874276,42.4360441594488
107,1436896874754,63.2470895499284
108,1436896875236,52.9117053922472
109,1436896875712,47.1760748280587
110,1436896876210,39.3298832302718
111,1436896876702,24.6060074418111
112,1436896877193,32.9401304179759
113,1436896877683,25.5904857817404
114,1436896878191,26.0156668296973
115,1436896878683,25.8366509456199
116,1436896879192,30.3453559309222
117,1436896879684,27.4827541328126
118,1436896880204,63.1894260905615
119,1436896880662,39.7720898548416
120,1436896881053,32.191926932927
121,1436896881459,31.6059164957254
122,1436896881920,31.9766191200684
123,1436896882403,32.6607688269267
124,1436896882854,33.5073692038807
125,1436896884466,34.2105053588192
126,1436896884845,35.7216331230255
127,1436896885292,36.0362234881311
128,1436896885794,34.9696232782083
129,1436896886287,34.4816321998315
130,1436896886761,34.6327758873681
131,1436896887260,36.0311691803749
132,1436896887769,34.6797293286559
133,1436896888255,34.9951061243251
134,1436896888743,32.4824255097839
135,1436896889232,32.3002669081361
136,1436896889686,33.3609468527726
137,1436896890039,31.2924873458524
138,1436896890445,32.7159447330749
139,1436896890883,31.1369178500461
140,1436896891349,30.2971629395472
141,1436896891832,30.8698706004358
142,1436896892324,29.6107931227951
143,1436896892807,29.9110555577222
144,1436896893316,29.9701997898245
145,1436896893750,28.3162688213028
146,1436896894250,27.9894537281797
147,1436896894748,27.4897163669591
148,1436896895246,27.9607825480457
149,1436896895771,61.8773756939822
150,1436896896261,59.1499639275215
151,1436896896767,37.4859346745793
152,1436896897259,31.3407968155519
153,1436896897749,27.9327833680649
154,1436896898244,52.2754690149409
155,1436896898734,61.7315053248119
156,1436896899260,38.9124270322356
157,1436896899781,51.3097209839917
158,1436896900300,41.379084213141
159,1436896900806,62.6851789344977
160,1436896901311,56.7723061127195
161,1436896901785,59.4523609637733
162,1436896902220,40.345292919273
163,1436896902660,41.4052335931056
164,1436896903140,42.5686171419985
165,1436896903617,45.7592385928309
166,1436896904248,43.3834548912863
167,1436896904933,41.8233675964124
168,1436896905309,46.4401570427944
169,1436896905680,61.2502270906949
170,1436896906177,46.7427955097079
171,1436896906670,48.1629818806027
172,1436896907156,61.0881030453795
173,1436896907672,36.0115626271784
174,1436896908180,42.2647579141576
175,1436896908658,41.3155484591487
176,1436896909160,38.8571147512605
177,1436896909676,32.7571601561235
178,1436896910145,40.3187043844763
179,1436896910512,31.7677697746575
180,1436896910970,32.4093363026327
181,1436896911431,32.9891331513971
182,1436896911925,27.2078063764842
183,1436896912368,27.584271438976
184,1436896912790,35.909152168644
185,1436896913272,34.2789904388789
186,1436896913755,37.5003127078362
187,1436896914207,29.6817539890727
188,1436896914578,33.0535625621186
189,1436896914980,35.2555744731408
190,1436896915422,31.2092190952941
191,1436896915886,39.6528317773314
192,1436896916380,38.0134838651974
193,1436896916881,39.9958987419968
194,1436896917360,34.6344750596742
195,1436896917820,34.6542567324705
196,1436896918264,39.8674193822852
197,1436896918740,38.7888709002507
198,1436896919232,37.9918025038108
199,1436896919754,63.7234808580122
200,1436896920252,43.0653056271413
201,1436896920746,32.7304036771344
202,1436896921253,38.2501106809127
203,1436896921742,44.0999010895649
204,1436896922224,39.344883803537
205,1436896922668,49.79287739968
206,1436896923065,55.1658412945239
207,1436896923498,58.2267823093664
208,1436896923952,59.3108006806614
209,1436896924503,38.622078244486
210,1436896924994,43.4663668292074
211,1436896925561,50.2542284544263
212,1436896926029,36.8239077112848
213,1436896926484,37.2231838787324
214,1436896926967,36.4330103736411
215,1436896927460,35.0218952421946
216,1436896927961,40.571671799943
217,1436896928458,37.206257870809
218,1436896928960,40.6597084911447
219,1436896929503,48.0818376715799
220,1436896929996,48.3530366883338
221,1436896930460,46.2735283932957
222,1436896930797,41.8852628197019
223,1436896931232,38.1046724666973
224,1436896931714,35.4236937278129
225,1436896932216,44.7628951967978
226,1436896932704,43.8834430262019
227,1436896933179,34.0279902882807
228,1436896933560,56.1861066852603
229,1436896933995,37.3502659695694
230,1436896934488,29.1742715658331
231,1436896934976,51.6373165516704
232,1436896935456,56.7104473127394
233,1436896935961,47.5858950524597
234,1436896936464,46.2175297330893
235,1436896936887,45.0276845938058
236,1436896937215,47.8426466219461
237,1436896937666,49.8405783833409
238,1436896938130,60.4926261045934
239,1436896938613,42.1113616240712
240,1436896939104,56.7058948285936
241,1436896939602,50.1579355097446
242,1436896940091,55.1678245981817
243,1436896940583,36.0132914937133
244,1436896941094,39.1817545331929
245,1436896941595,51.1316100752864
246,1436896942091,45.1843453088352
247,1436896942587,53.2964923577958
248,1436896943093,46.7917599680471
249,1436896943597,52.4106399375491
250,1436896944047,51.9563270157659
251,1436896944473,47.5722390801969
252,1436896944958,48.116289636348
253,1436896945439,49.2089312927432
254,1436896945926,45.4839926235586
255,1436896946411,48.553722529641
256,1436896946920,57.8722999275249
257,1436896947383,60.0544738770705
258,1436896947831,43.8814388875224
259,1436896948317,52.8075435460753
260,1436896948809,41.9383833745942
261,1436896949293,61.7438883862189
262,1436896949783,44.496689099418
263,1436896950276,69.4199149175618
264,1436896950744,50.8109042267125
265,1436896951186,45.348382923214
266,1436896951626,68.1930329589702
267,1436896952116,54.046440191513
268,1436896952624,49.5255215471107
269,1436896953105,58.0691279752267
270,1436896953612,40.0122716791863
271,1436896954142,41.8745993554665
272,1436896954591,56.8258881093131
273,1436896954989,39.6549617637107
274,1436896955476,35.4563821439387
275,1436896955959,34.7239546626973
276,1436896956477,41.635312120618
277,1436896956963,46.9287432434914
278,1436896957486,36.7015320399579
279,1436896957868,52.2263352459847
280,1436896958312,58.740190613111
281,1436896958787,40.6475236280034
282,1436896959288,28.7685334080375
283,1436896959809,39.3424216090443
284,1436896960377,32.8184820229778
285,1436896960863,33.7540495092362
286,1436896961380,45.0560351842939
287,1436896961861,41.3164982661174
288,1436896962344,35.6434079054313
289,1436896962855,48.813053466142
290,1436896963346,53.7581291704325
291,1436896963835,36.450223654598
292,1436896964337,55.5404269870094
293,1436896964847,35.4715163781761
294,1436896965248,34.4461978299894
295,1436896965649,29.1701728798273
296,1436896966110,29.1125647077846
297,1436896966616,43.4613421967844
298,1436896967090,45.7752612224254
299,1436896967592,34.8547673823674
300,1436896968022,35.2954855754876
301,1436896968478,33.5471843813091
302,1436896968934,28.3810224266782
303,1436896969451,29.596884381482
304,1436896969962,67.2317971489207
305,1436896970494,44.5709217903593
306,1436896970938,38.4824662775908
307,1436896971375,61.6935157898454
308,1436896971841,43.7012083466183
309,1436896972334,46.8575723475834
310,1436896972829,30.9774079516858
311,1436896973315,40.186243418752
312,1436896973828,27.9964428690913
313,1436896974311,41.7034678202184
314,1436896974812,32.9033702429543
315,1436896975346,47.7036891977616
316,1436896975853,38.5614531073533
317,1436896976271,35.6543677670042
318,1436896976700,39.6756839167557
319,1436896977200,52.5497208024933
320,1436896977685,41.3778583539614
321,1436896978170,45.2099837238344
322,1436896978667,48.811406499435
323,1436896979151,37.5128941235162
324,1436896979652,66.1836596996918
325,1436896980091,49.6380355005803
326,1436896980590,53.3445618051182
327,1436896981073,54.6335053702512
328,1436896981570,45.3427314428653
329,1436896982065,36.4710745328083
330,1436896982571,40.5501723380825
331,1436896983065,44.8443591149412
332,1436896983579,55.9660226009069
333,1436896984075,59.9729162818771
334,1436896984574,38.7338633458146
335,1436896985083,64.2357277732077
336,1436896985572,40.172579755564
337,1436896986069,55.4791481105749
338,1436896986540,55.8036075796177
339,1436896986916,56.0975872516301
340,1436896987326,68.3603516004929
341,1436896987781,31.4142741974198
342,1436896988271,44.0865606547997
343,1436896988759,50.4356615851862
344,1436896989280,36.781356167977
345,1436896989721,44.2347500831523
346,1436896990169,55.2888387791366
347,1436896990645,50.2269893976684
348,1436896991130,49.6716539047545
349,1436896991463,48.7954974351184
350,1436896991899,56.7819507266141
351,1436896992362,43.3271039995144
352,1436896992852,44.2978086487656
353,1436896993325,45.275819553008
354,1436896993767,46.0735126684469
355,1436896994185,44.24538339928
356,1436896994642,46.8693567281
357,1436896995082,54.7680583693707
358,1436896995497,59.4486415960922
359,1436896995997,44.1287963022071
360,1436896996501,44.6471114514988
361,1436896996985,48.1826419288077
362,1436896997394,51.7743269041144
363,1436896997834,56.4651445484709
364,1436896998289,45.4191822016122
365,1436896998782,48.9222190672804
366,1436896999312,60.048829012977
367,1436896999758,55.9651457334074
368,1436897000197,48.711200549994
369,1436897000684,58.47769034684
370,1436897001182,51.8963833189098
371,1436897001682,52.8825865220592
372,1436897002161,46.0652623764952
373,1436897002646,61.3567709378204
374,1436897003124,45.169770058561
375,1436897003607,44.173943044757
376,1436897004116,44.900673573062
377,1436897004608,45.2197854558713
378,1436897005128,45.5057720705254
379,1436897005638,45.8807647647103
380,1436897006132,46.0637947598463
381,1436897006656,45.3621954154981
382,1436897007157,46.1989489098763
383,1436897007614,45.9402939029689
384,1436897008029,44.8156717771452
385,1436897008454,44.7696970558171
386,1436897008906,44.6747126988424
387,1436897009460,44.672593923646
388,1436897009951,44.1411345216281
389,1436897010493,43.2834387382021
390,1436897010949,42.0846982990116
391,1436897011323,40.2412612441144
392,1436897011720,40.8206337282542
393,1436897012194,42.5370035909738
394,1436897012685,53.4343153458744
395,1436897013184,41.8884976259939
396,1436897013671,41.779558412582
397,1436897014191,41.1213399603335
398,1436897014680,41.4450641997314
399,1436897015112,41.1526018364253
400,1436897015497,41.7322151778971
401,1436897015928,41.0690817042169
402,1436897016392,40.2981376561911
403,1436897016883,40.0707477662508
404,1436897017383,39.1376542871489
405,1436897017880,37.7137212960331
406,1436897018337,38.7566900187755
407,1436897018779,37.6055105669887
408,1436897019283,36.1059705581385
409,1436897019772,36.6247850668873
410,1436897020342,37.3140150137403
411,1436897020798,35.2213371686983
412,1436897021159,35.1788030212184
413,1436897021607,35.5617444081713
414,1436897022056,42.6101367638184
415,1436897022535,40.3670560931445
416,1436897022968,44.5419846343166
417,1436897023418,46.4460868504339
418,1436897023913,34.872441059553
419,1436897024442,39.4795604532278
420,1436897024951,33.1169515493414
421,1436897025467,42.0891023194693
422,1436897025957,38.2845123204026
423,1436897026413,39.6270909015709
424,1436897026916,31.1644561987869
425,1436897027421,33.2605286911441
426,1436897027916,31.6383509893233
427,1436897028407,31.3832539635792
428,1436897028891,31.9046142283844
429,1436897029290,36.1235508704655
430,1436897029693,34.4433431800633
431,1436897030168,32.1373895123714
432,1436897030593,35.8883208526966
433,1436897031009,59.4222484844445
434,1436897031387,36.4014116862574
435,1436897031763,30.9980931129066
436,1436897032260,37.8248416624126
437,1436897032761,35.5158496313218
438,1436897033253,30.9899841690687
439,1436897033754,30.7825508384175
440,1436897034297,32.4385594425166
441,1436897034802,30.1401990146948
442,1436897035305,29.9203999707973
443,1436897035804,36.5448669588549
444,1436897036306,29.5972338558836
445,1436897036793,27.2742348707801
446,1436897038433,39.8413321516239
447,1436897038837,43.6495031472292
448,1436897039302,46.5967503568343
449,1436897039783,40.5312896830064
450,1436897040297,46.780420683652
451,1436897040766,53.8842102066113
452,1436897041259,40.9417016168013
453,1436897041713,42.2552483866306
454,1436897042121,40.8007956824675
455,1436897042606,41.8670878601944
456,1436897043073,57.2972737425467
457,1436897043576,20.15508606417
458,1436897044052,43.4844991347697
459,1436897044522,61.753641272472
460,1436897045011,63.8295625207095
461,1436897045485,53.3130917250449
462,1436897046002,38.1547069664969
463,1436897046488,52.4660416671169
464,1436897046997,39.5414876252754
465,1436897047473,45.4859252066255
466,1436897047960,18.1425642029105
467,1436897048434,32.192553041162
468,1436897048935,45.4069423055634
469,1436897049428,55.3273934411479
470,1436897049937,51.0967257158454
471,1436897050383,53.5598084187964
472,1436897050803,61.129656945777
473,1436897051274,43.1269312674538
474,1436897051727,45.5461069202986
475,1436897052089,19.9114624439014
476,1436897052477,31.2547822025391
477,1436897052833,29.9415246177024
478,1436897053279,43.1006058538881
479,1436897053751,26.6070921525297
480,1436897054241,35.0028619293455
481,1436897054734,44.1859545516534
482,1436897056131,27.9869254060579
483,1436897056537,52.184331200529
484,1436897057020,46.4288112433219
485,1436897057497,31.6368072785733
486,1436897058003,56.6580737553245
487,1436897058500,37.9456099510755
488,1436897059005,47.3698388229757
489,1436897059495,50.6090460602834
490,1436897059982,62.33270287707
491,1436897060491,39.9576484905997
492,1436897060879,54.4334007463364
493,1436897061304,66.7628743451454
494,1436897061768,33.1124752729562
495,1436897062267,61.1975953498245
496,1436897062763,57.0892707806951
497,1436897063251,51.2302833697575
498,1436897063697,59.7154901657126
499,1436897064095,44.9882646178937
500,1436897064590,55.5621581193041
501,1436897065067,56.1427246340469
502,1436897065576,49.6222259567087
503,1436897066095,28.2722245348339
504,1436897066582,25.7873515309952
505,1436897067132,24.6602568601866
506,1436897067630,24.6017402762483
507,1436897068112,37.6960924383677
508,1436897068614,24.6925632354573
509,1436897069119,24.6602537638368
510,1436897069585,23.5716300609793
511,1436897069984,33.4730302744275
512,1436897070422,24.9059088718864
513,1436897070853,23.9966476331141
514,1436897071314,23.4987234471931
515,1436897071800,66.5231547822446
516,1436897072277,53.3755974602698
517,1436897072739,34.6360068198695
518,1436897073224,33.6740012774114
519,1436897073664,49.2275742546105
520,1436897074048,23.5411764989363
521,1436897074513,33.0745379187115
522,1436897075041,48.6535124344421
523,1436897075544,55.1038431851676
524,1436897076047,35.9500449139468
525,1436897076537,43.3913664566199
526,1436897077038,43.0965520575414
527,1436897077532,59.7390740789658
528,1436897078017,51.3150707070851
529,1436897078518,43.5087461694491
530,1436897079046,48.8361307968322
531,1436897079536,51.0910938730009
532,1436897080090,44.4014663570061
533,1436897080581,30.4644533776008
534,1436897081079,37.4607864004235
535,1436897081600,31.5802275223963
536,1436897081979,26.9838195423698
537,1436897082409,35.6775375711205
538,1436897082869,41.6607199883943
539,1436897083353,42.9257465879383
540,1436897083821,40.5191150486099
541,1436897084311,29.7313634345916
542,1436897084790,45.0022412565852
543,1436897085245,38.9370997808183
544,1436897085677,25.9494769324841
545,1436897087031,38.1409552832486
546,1436897087515,47.1077937942679
547,1436897088010,43.6563324585035
548,1436897088516,38.1418742998158
549,1436897089017,48.3054937475152
550,1436897089515,54.8091534578213
551,1436897090010,28.1026306863802
552,1436897090536,50.1510005986194
553,1436897091040,28.2804434234321
554,1436897091528,23.9864965639072
555,1436897091908,45.513977121285
556,1436897092248,42.9023882803323
557,1436897092697,34.4455500281031
558,1436897093192,35.4306498313281
559,1436897093691,41.656334615661
560,1436897094195,40.0334792825696
561,1436897094666,58.0187197465664
562,1436897095065,43.718780778701
563,1436897095525,34.0037138953622
564,1436897096020,36.5393497500043
565,1436897096503,30.8575275907646
566,1436897096970,52.3433993252931
567,1436897097398,37.9670159238498
568,1436897097832,45.9018350589157
569,1436897098291,67.254474103687
570,1436897098777,58.1974466421088
571,1436897099313,61.6287519228079
572,1436897099805,39.1150648622007
573,1436897100329,48.1183552836332
574,1436897100827,22.842145685396
575,1436897101331,20.186734423003
