id,attr_time,attr_db
1,1436896820852,31.5358962082644
2,1436896821519,32.3566886433503
3,1436896822257,30.6220511522359
4,1436896822998,31.8990132402633
5,1436896823704,42.111819063673
6,1436896824435,60.5563929697341
7,1436896825159,43.9079836937188
8,1436896825885,45.1063271706217
9,1436896826617,44.8473738024223
10,1436896827343,34.5026395917681
11,1436896828089,30.712772029362
12,1436896828824,35.9347117526795
13,1436896829549,36.2824981761271
14,1436896830294,45.0056077876106
15,1436896831014,44.0557264046368
16,1436896831776,38.3587072464311
17,1436896832505,45.1659349688173
18,1436896833265,34.4620582339066
19,1436896834013,29.7671194755225
20,1436896834745,37.2674950297322
21,1436896835484,32.3002269903549
22,1436896836214,26.2165796019512
23,1436896837051,56.4693464871046
24,1436896837788,29.0056091444013
25,1436896838477,43.362420925392
26,1436896839207,46.2242941007088
27,1436896839914,42.9242186047489
28,1436896840650,55.9235766419628
29,1436896841370,43.0751941260142
30,1436896842143,36.5155297177623
31,1436896842965,37.0455934188949
32,1436896843595,36.7677578960123
33,1436896844276,43.8048084362052
34,1436896845018,49.4494848370465
35,1436896845717,58.0076449721033
36,1436896846451,39.4715151144127
37,1436896847230,37.9626230992344
38,1436896847966,65.3380213569824
39,1436896848702,61.1773973753778
40,1436896849417,56.657762432997
41,1436896850143,56.5444625684437
42,1436896850867,47.1852537860795
43,1436896851611,35.6588510282954
44,1436896852345,41.3051696238914
45,1436896853089,33.4651700546486
46,1436896853761,32.7886786423886
47,1436896854465,39.6648886652061
48,1436896855160,29.2451423198245
49,1436896855944,25.0542626079049
50,1436896856698,21.7176513725448
51,1436896857377,23.3429023095979
52,1436896858005,33.9134347982127
53,1436896858663,31.8482858040771
54,1436896859384,43.4689304836878
55,1436896860097,41.6506433620244
56,1436896860824,44.3726425599524
57,1436896861610,35.2557235193342
58,1436896862347,27.6035991258845
59,1436896863078,51.4486504848356
60,1436896863722,59.5618968230254
61,1436896864409,22.3137312708777
62,1436896865120,38.5775530573004
63,1436896865834,35.1778895871119
64,1436896866579,34.9758792591919
65,1436896867395,54.8509686464136
66,1436896868132,59.9521153916421
67,1436896868920,40.9176776266588
68,1436896869507,50.4667773259054
69,1436896870190,52.2174783753515
70,1436896870922,38.9183951850017
71,1436896871707,45.6078984219822
72,1436896872437,62.6963885942594
73,1436896873162,48.5706856064806
74,1436896873875,22.2023224554889
75,1436896874593,23.0266724571855
76,1436896875320,53.9630380463295
77,1436896876027,50.2475116286454
78,1436896876706,41.2715521357682
79,1436896877304,33.1760383844307
80,1436896877979,22.4686111270056
81,1436896878673,21.8503321332974
82,1436896879332,24.0848152294262
83,1436896880057,24.1031836685874
84,1436896880795,26.3726526465927
85,1436896881520,48.4643750576565
86,1436896882320,29.9965104687244
87,1436896883036,29.5894924023887
88,1436896883705,31.3192982035265
89,1436896884415,32.6468694217902
90,1436896885080,32.2158699276927
91,1436896885870,33.6970003199257
92,1436896886554,33.6699013032129
93,1436896887230,33.4500696999369
94,1436896887965,32.6281313994161
95,1436896888689,32.1366631158231
96,1436896890229,29.6563427548801
97,1436896891004,28.4737708476569
98,1436896891721,27.3779210636238
99,1436896892452,28.7965393860081
100,1436896893186,27.1839609710546
101,1436896893895,25.2349214264222
102,1436896894627,24.3791072751398
103,1436896895278,24.5651710463005
104,1436896896023,29.6075209307834
105,1436896896724,25.2601738140981
106,1436896897418,59.7187236471527
107,1436896898188,35.5938215951044
108,1436896898874,26.2152675684486
109,1436896899599,50.2633955366865
110,1436896900337,59.0815756926758
111,1436896901051,54.7703194685855
112,1436896901820,41.0184857206444
113,1436896903832,52.1313913955008
114,1436896904547,58.137224854876
115,1436896905249,38.1407028758404
116,1436896905961,49.0864869513851
117,1436896906674,45.3641746409414
118,1436896907393,58.3591989608079
119,1436896908095,27.7190178206807
120,1436896908785,34.1894143672562
121,1436896909464,50.4606413166403
122,1436896910174,34.0209354122094
123,1436896910883,30.9451428337008
124,1436896911594,31.0254420973885
125,1436896912322,38.5591025712397
126,1436896913095,29.0737516331405
127,1436896913821,27.3596682445531
128,1436896914541,34.7542908749697
129,1436896915247,33.316826004627
130,1436896915977,27.2488370798639
131,1436896916705,32.8843735608959
132,1436896917411,36.7258887418872
133,1436896918143,37.0211257564437
134,1436896918878,33.323149091491
135,1436896919610,35.2504255351078
136,1436896920313,35.2576153997923
137,1436896921044,48.7972368918452
138,1436896921759,37.9840837726638
139,1436896922493,37.8133191204455
140,1436896923242,38.3839275435041
141,1436896923879,50.3149283670556
142,1436896924597,56.4428101638932
143,1436896925319,37.2503605396067
144,1436896927037,34.0594485254751
145,1436896927709,37.3466423621434
146,1436896928423,31.410313446263
147,1436896929165,40.1642776228279
148,1436896929874,32.5299042230963
149,1436896930543,46.7927638094591
150,1436896931242,57.1639953639708
151,1436896931968,45.7245726880786
152,1436896932693,29.3525708369019
153,1436896933429,41.5388469107278
154,1436896934165,36.0012039307439
155,1436896934885,54.1782504473382
156,1436896935601,38.216530058532
157,1436896936328,47.1306888626294
158,1436896937034,47.6362705550272
159,1436896937671,48.0599409838268
160,1436896939282,55.2024033820267
161,1436896940027,47.008988815431
162,1436896940720,53.4987069306207
163,1436896941398,40.4071605684665
164,1436896942099,44.4218602686794
165,1436896942840,49.6955097518606
166,1436896943631,42.8674150930367
167,1436896944315,57.021340366652
168,1436896945058,62.3156359536846
169,1436896945775,49.6019870464667
170,1436896946496,58.3264849158173
171,1436896947188,45.0205190257722
172,1436896947859,45.664588586172
173,1436896948611,52.1666560826853
174,1436896949330,53.6387641517607
175,1436896950064,44.3657337174744
176,1436896950802,58.4497338736491
177,1436896951558,59.9625006070383
178,1436896952255,45.635575067164
179,1436896952999,56.7488279503224
180,1436896953713,52.9291221228308
181,1436896954442,46.5651156231918
182,1436896955180,41.3024672394738
183,1436896955907,57.5949963115195
184,1436896956683,37.8722456824185
185,1436896957365,51.8175017690692
186,1436896958006,46.6408088997067
187,1436896958716,43.822263308994
188,1436896959450,50.0133971855905
189,1436896960178,28.5542047113227
190,1436896960910,55.1274682249424
191,1436896961554,30.1750571305391
192,1436896962273,33.9445742821537
193,1436896962980,50.7071919852115
194,1436896963659,52.1876948262066
195,1436896964332,46.9427345371266
196,1436896965042,41.0074328498291
197,1436896965751,38.5563513805333
198,1436896966493,29.1185207395457
199,1436896967220,23.5430772248528
200,1436896967941,50.1068399313145
201,1436896968675,29.6723919048988
202,1436896969394,42.9833290537188
203,1436896970107,25.3130173954114
204,1436896970880,54.2673904978329
205,1436896971588,50.4541505959601
206,1436896972262,52.2505562592975
207,1436896973020,49.7667512079832
208,1436896973745,58.0832863670904
209,1436896974473,41.1581430877706
210,1436896975190,23.3993506745327
211,1436896975934,38.1029986176572
212,1436896976666,49.2903680800523
213,1436896977410,27.1714855589657
214,1436896978125,31.6068137211271
215,1436896978835,28.8306305424647
216,1436896979576,46.7911666912364
217,1436896980297,52.1515222579002
218,1436896981022,57.2136895706611
219,1436896981763,55.9798638181118
220,1436896982394,26.7165046608454
221,1436896983065,45.4890787874114
222,1436896983784,42.7302302593437
223,1436896984476,25.6133413197794
224,1436896985172,40.5176757306842
225,1436896985895,42.1522347261888
226,1436896986596,57.2555297684011
227,1436896987342,49.9880341509383
228,1436896988053,56.7551902955591
229,1436896988775,55.2711921610832
230,1436896989480,45.3219149648931
231,1436896990194,39.5810801698216
232,1436896990970,43.3868243930295
233,1436896991670,58.0717914422992
234,1436896992385,48.2931010393936
235,1436896993149,57.1436414448807
236,1436896993865,52.3164744228629
237,1436896994555,46.0520041100246
238,1436896995286,45.0130081678869
239,1436896996000,55.8687603405755
240,1436896996747,60.4917135319894
241,1436896997491,43.3635397049323
242,1436896998223,48.9889558311586
243,1436896998935,49.6926386033569
244,1436896999628,45.4962667220167
245,1436897000321,51.3303626823458
246,1436897001094,55.5789529755962
247,1436897001844,48.460768576827
248,1436897002553,52.3608793407326
249,1436897003261,55.0373952447273
250,1436897004103,43.6107722607483
251,1436897004738,43.7251181698772
252,1436897005455,43.9469609101376
253,1436897006186,43.5816787367537
254,1436897006940,44.9192645692717
255,1436897007656,45.1985649288287
256,1436897008395,44.1576685326049
257,1436897009122,44.640741313848
258,1436897009865,43.5829226030269
259,1436897010624,43.5919558009017
260,1436897011307,42.775224742073
261,1436897012070,41.7740651095184
262,1436897012803,41.1457964485257
263,1436897013550,40.8839109562198
264,1436897014263,39.7258334255142
265,1436897014985,40.4549431345684
266,1436897015729,40.6268990906637
267,1436897016445,40.23009145315
268,1436897017201,39.6220998965617
269,1436897017923,39.2278204840208
270,1436897018649,37.5826842420948
271,1436897019424,36.3760239119086
272,1436897020148,34.712389137129
273,1436897020859,35.214088161853
274,1436897021650,35.3605340606636
275,1436897022386,34.7042542442486
276,1436897023119,34.3409420528111
277,1436897023862,34.1434813914412
278,1436897024551,38.2599150824916
279,1436897025211,33.5438151882733
280,1436897025950,34.9734415450808
281,1436897026750,35.4698457899099
282,1436897027480,36.200216079565
283,1436897028193,28.0108540555614
284,1436897028922,28.4273933974307
285,1436897029655,28.6175815717872
286,1436897030379,27.1151008340969
287,1436897031109,28.920608475786
288,1436897031828,29.9287343689724
289,1436897032562,34.1509641853861
290,1436897033289,28.0505993213614
291,1436897034043,32.25116293196
292,1436897034792,28.359563774223
293,1436897035521,29.1452153261816
294,1436897036227,28.3579987367184
295,1436897036945,37.6619398200795
296,1436897037666,24.7875914360046
297,1436897038375,24.7665059696842
298,1436897039089,41.363838434267
299,1436897039834,45.593990058899
300,1436897040580,33.5830718073668
301,1436897041293,29.0580767415523
302,1436897042018,34.3281388773907
303,1436897042718,36.9849447896514
304,1436897043424,37.1613901894104
305,1436897044114,18.6758020764097
306,1436897044846,18.8040182843117
307,1436897045519,20.2490870650952
308,1436897046229,53.8845295401529
309,1436897046903,47.3034643204726
310,1436897047577,14.4293642932818
311,1436897048392,40.2954570795431
312,1436897049121,14.1952289322493
313,1436897049854,46.3588946698942
314,1436897050582,51.0715967135372
315,1436897051330,41.4470036910916
316,1436897052056,57.7245645605814
317,1436897052818,23.9073060273458
318,1436897053543,43.1690692582289
319,1436897054264,14.7750823032155
320,1436897054998,24.8495239869791
321,1436897055740,37.6589046249426
322,1436897056472,26.9833332359902
323,1436897057179,37.1280232838439
324,1436897057851,49.146631782767
325,1436897058587,47.2539956988846
326,1436897059313,42.3150614158981
327,1436897060042,54.369285674228
328,1436897060784,59.0328833556601
329,1436897061521,37.6521067133142
330,1436897062251,51.4705716067411
331,1436897062977,27.7357733549435
332,1436897063651,45.1909470601257
333,1436897064317,54.7780514531817
334,1436897064977,54.8925765651386
335,1436897065699,58.5310531986849
336,1436897066440,43.9828373856842
337,1436897067203,29.72716480957
338,1436897068042,22.6728927205567
339,1436897068715,22.6925998137221
340,1436897069458,25.8414063676472
341,1436897070182,22.9791298724646
342,1436897070907,21.6049683922039
343,1436897071650,22.0309198606987
344,1436897072482,19.445131856774
345,1436897073263,55.0186332926181
346,1436897073973,46.970134013118
347,1436897074594,21.8035418378276
348,1436897075252,26.5599812526393
349,1436897075940,42.7965652196566
350,1436897076651,42.2847145367841
351,1436897077332,46.8049201694386
352,1436897077988,45.4552692196885
353,1436897078670,51.5272744978682
354,1436897079332,52.2629112190712
355,1436897080053,38.4088628710039
356,1436897080787,47.9980570984472
357,1436897081534,30.7407372037519
358,1436897082270,38.0673169103738
359,1436897082999,26.321788164591
360,1436897083738,61.8832601082008
361,1436897084459,60.0075779962179
362,1436897085118,50.1332407542177
363,1436897085839,47.6298812431486
364,1436897086555,53.7006677308346
365,1436897087332,40.4392499611422
366,1436897088098,41.8910704270106
367,1436897088774,48.8791181095929
368,1436897089494,46.5029078593297
369,1436897090227,51.760682879735
370,1436897090959,43.634015487534
371,1436897091698,53.8593272345614
372,1436897092479,22.9346622371756
373,1436897094126,25.6333044941745
374,1436897094744,49.715234827302
375,1436897095389,41.8650542463992
376,1436897096017,58.9683953319767
377,1436897096681,27.3360930495014
378,1436897097409,49.5820499548568
379,1436897098119,42.6557373502309
380,1436897098805,48.9765328793633
381,1436897099393,47.100527545714
382,1436897100076,45.1470716926242
383,1436897100800,27.8707582506631
384,1436897101523,41.9647489765803
385,1436897102249,17.9023277097242
386,1436897102955,21.6777814158502
387,1436897103683,16.8058319228485
388,1436897104411,18.7584469316335
389,1436897105118,16.8898035070059
390,1436897105708,17.5199220731208
391,1436897106385,17.6081436039772
392,1436897107190,15.9812155839381
393,1436897107949,25.7039711237491
394,1436897108670,16.6417218939911
395,1436897109382,16.508505981521
396,1436897110123,16.8062651448387
397,1436897111571,21.8633614504144
398,1436897112255,15.1417787651139
399,1436897112995,20.0594118352075
400,1436897113725,15.9014528837649
401,1436897114443,22.121661043446
402,1436897115167,17.9637643724864
403,1436897115899,18.0964032070866
404,1436897116595,19.7175876552224
405,1436897117268,52.4425213799313
406,1436897118011,48.619900101753
407,1436897118737,34.7569996585403
408,1436897119470,35.5136003820208
409,1436897120185,36.1865946977891
410,1436897120903,16.463451196895
411,1436897121580,13.7587351742858
412,1436897122308,40.8441440037171
413,1436897123055,44.3390742829216
414,1436897123782,47.3806317511365
415,1436897124535,20.9337749522494
416,1436897125203,51.3375879145839
417,1436897125944,41.0645423640593
418,1436897126682,39.4754921339564
419,1436897127404,16.7759565508887
420,1436897128160,48.4995990091368
421,1436897128896,34.9313445379922
422,1436897129631,48.4737989359323
423,1436897130339,11.2484159526777
424,1436897131068,38.7765806876737
425,1436897131738,38.7060557037724
426,1436897132459,43.2463297160502
427,1436897133203,16.4195332226342
428,1436897133939,14.4097131016445
429,1436897134655,16.039454782826
430,1436897135397,22.1719504989358
431,1436897136117,17.8593887293859
432,1436897136786,23.3455656485434
433,1436897137429,20.8645379593061
434,1436897138110,22.2997307371593
435,1436897138867,23.347609110524
436,1436897139580,28.588740654437
437,1436897140300,24.2838076126553
438,1436897141048,27.8760770849715
439,1436897141707,27.609605075397
440,1436897143121,30.7102999188097
441,1436897143819,30.0008485930486
442,1436897144435,31.0814695137936
443,1436897145040,30.0599249885541
444,1436897145713,32.8519174681765
445,1436897146443,33.3567070977636
446,1436897147164,33.9625879055772
447,1436897147979,47.9283818030294
448,1436897148722,44.9115388037718
449,1436897149455,35.4293660080781
450,1436897150186,55.3822440169115
451,1436897150937,35.4403387119372
452,1436897151658,35.4206039179118
453,1436897152406,33.0563959900794
454,1436897153098,36.5606360433827
455,1436897153774,55.3825381970903
456,1436897154507,58.9764710563601
457,1436897155262,62.5469107632429
458,1436897156025,30.0068773053673
459,1436897156749,50.3656449449206
460,1436897157510,27.0457189674841
461,1436897158174,30.0034671910901
462,1436897159824,40.7101511841138
463,1436897160536,25.5974700913029
464,1436897161272,23.2323615174279
465,1436897162062,23.8974828875282
466,1436897162739,25.1222566595916
467,1436897163452,26.2247799424332
468,1436897164176,28.9841406595071
469,1436897164834,48.2334984297292
470,1436897165408,25.5283112038371
471,1436897166106,48.5206605001637
472,1436897166811,57.3069774538627
473,1436897167572,46.615141306796
474,1436897168301,32.1058917599262
475,1436897169023,51.4135168849516
476,1436897169709,49.5296580590811
477,1436897170425,36.8765025340061
478,1436897171160,47.1251954297939
479,1436897171884,27.2673791882591
480,1436897172592,43.6715093641082
481,1436897173316,66.7753776446475
482,1436897174082,20.2915543945624
483,1436897174759,42.1245492647881
484,1436897175480,53.6087748760398
485,1436897176213,40.5912328064186
486,1436897176930,52.2028803966346
487,1436897177667,56.7297028755551
488,1436897178409,54.5454708012158
489,1436897179128,60.9987536128827
490,1436897179793,55.8964239191466
491,1436897180443,36.1099934149314
492,1436897181166,30.0802892457475
493,1436897181906,25.888271943883
494,1436897182626,50.8588051601727
495,1436897183354,22.288185978187
496,1436897184115,20.9369466712328
497,1436897184780,22.4927545939651
498,1436897185520,44.0534429739287
499,1436897186232,22.7644940198741
500,1436897186954,22.5574842214534
501,1436897187694,22.8035100225446
502,1436897188412,23.6715906994484
503,1436897189127,23.2353040581273
504,1436897189799,25.0091886323279
505,1436897190553,28.1341738302169
506,1436897191286,26.9771811185109
507,1436897192032,29.4185856458401
508,1436897192754,32.4468760099212
509,1436897193474,25.6398997354889
510,1436897194161,24.88033288277
511,1436897194874,33.9244746500708
512,1436897195549,46.434358335425
513,1436897196289,50.8992565515112
514,1436897197025,57.6558487841202
515,1436897197758,43.9064642978536
516,1436897198475,61.3306808055874
517,1436897199196,48.4688292601812
518,1436897199882,53.6479436886972
519,1436897200527,60.2417518556703
520,1436897201215,55.2297575358636
521,1436897201969,57.4161981480431
522,1436897202710,23.7359264918888
523,1436897203435,41.8202080483942
524,1436897204169,24.0979901935864
525,1436897204893,47.0948114906155
526,1436897205591,26.2725768975802
527,1436897206270,37.7934241006237
528,1436897206994,36.1496857164253
529,1436897207803,48.2103805234334
530,1436897208533,34.4119758664956
531,1436897209256,22.7635554214699
532,1436897209974,35.8023511170621
533,1436897210694,53.4568349828626
534,1436897211410,60.3762693672464
535,1436897212135,44.1655380024715
536,1436897212873,40.4440040054202
537,1436897213564,42.7698595370308
538,1436897214247,50.0780692110874
539,1436897214937,25.2021863740755
540,1436897215537,22.4998863757768
541,1436897216220,25.0458269215045
542,1436897216933,21.5551454702258
543,1436897217670,45.8863985689057
544,1436897218394,22.1391946123527
545,1436897219118,48.2411498430499
546,1436897219819,49.9731140197796
547,1436897220520,25.7895613201411
548,1436897221259,53.0201397238177
549,1436897221982,58.8934855078273
550,1436897222777,56.3971265192646
551,1436897223507,36.3843263178032
552,1436897224249,24.5079409537105
553,1436897225053,22.5923393854939
554,1436897225730,21.4931619924528
555,1436897226375,24.2615545311041
556,1436897227069,22.8599665648067
557,1436897227785,22.1717488695931
558,1436897228503,21.2219505528454
559,1436897229225,24.4703030113822
560,1436897229932,24.2933988280758
561,1436897230660,22.4186682156908
562,1436897231373,22.0102307699483
563,1436897232084,18.9687899307899
564,1436897232839,19.9797226015345
565,1436897233554,20.232555463152
566,1436897234306,18.7256486565136
567,1436897235029,20.7072032849742
568,1436897235721,17.4152368798825
569,1436897236408,20.8252558453054
570,1436897237145,17.1104095980142
571,1436897237873,18.6285207866592
572,1436897238593,24.8602172137893
573,1436897239323,17.3025378659162
574,1436897240041,18.0637985768092
575,1436897240784,19.6575324386942
