id,attr_time,attr_x,attr_y,attr_z
1,1436982010019,-43.925,-6.712,22.775
2,1436982010039,-43.925,-6.712,22.775
3,1436982010082,-43.925,-6.712,22.775
4,1436982010083,-43.925,-6.712,22.775
5,1436982010097,-43.925,-6.712,22.775
6,1436982010119,-43.925,-6.712,22.775
7,1436982010136,-43.925,-6.712,22.775
8,1436982010157,-43.925,-6.712,22.775
9,1436982010178,-43.925,-6.712,22.775
10,1436982010199,-43.925,-6.712,22.775
11,1436982010218,-43.925,-6.712,22.775
12,1436982010237,-43.925,-6.712,22.775
13,1436982010257,-43.925,-6.712,22.775
14,1436982010277,-43.925,-6.712,22.775
15,1436982010299,-43.925,-6.712,22.775
16,1436982010317,-43.925,-6.712,22.775
17,1436982010339,-43.925,-6.712,22.775
18,1436982010362,-43.925,-6.712,22.775
19,1436982010383,-43.925,-6.712,22.775
20,1436982010401,-43.925,-6.712,22.775
21,1436982010418,-43.925,-6.712,22.454
22,1436982010439,-43.925,-6.712,22.454
23,1436982010458,-43.925,-6.712,22.454
24,1436982010487,-43.925,-6.712,22.454
25,1436982010574,-43.925,-6.712,22.454
26,1436982010581,-43.925,-6.712,22.454
27,1436982010582,-43.925,-6.712,22.454
28,1436982010583,-43.925,-6.712,22.454
29,1436982010584,-43.925,-6.712,22.454
30,1436982010600,-43.925,-6.712,22.454
31,1436982010630,-43.925,-6.712,22.145
32,1436982010636,-43.925,-6.712,22.145
33,1436982010676,-43.925,-6.712,22.145
34,1436982010677,-43.925,-6.712,22.145
35,1436982010703,-43.925,-6.712,22.145
36,1436982010717,-43.925,-6.712,22.145
37,1436982010737,-43.925,-6.712,22.145
38,1436982010759,-43.925,-6.712,22.145
39,1436982010777,-43.925,-6.712,22.145
40,1436982010797,-43.925,-6.712,22.145
41,1436982010817,-43.925,-6.712,22.145
42,1436982010837,-43.925,-6.712,22.145
43,1436982010857,-43.925,-6.712,22.145
44,1436982010881,-44.236,-6.712,22.145
45,1436982010897,-44.236,-6.712,22.145
46,1436982010917,-44.236,-6.712,22.145
47,1436982010937,-44.236,-6.712,22.145
48,1436982010957,-44.236,-6.712,22.145
49,1436982010977,-44.236,-6.712,22.145
50,1436982010997,-44.236,-6.712,22.145
51,1436982011017,-44.236,-6.712,22.145
52,1436982011040,-44.236,-6.712,22.145
53,1436982011065,-44.236,-6.712,22.145
54,1436982011076,-44.236,-6.712,22.145
55,1436982011101,-44.236,-6.712,22.145
56,1436982011116,-44.236,-6.712,22.462
57,1436982011149,-44.236,-6.712,22.462
58,1436982011156,-44.236,-6.712,22.462
59,1436982011176,-44.236,-6.712,22.462
60,1436982011199,-44.236,-6.712,22.462
61,1436982011217,-44.236,-6.712,22.462
62,1436982011236,-44.236,-6.712,22.462
63,1436982011256,-44.236,-6.712,22.462
64,1436982011277,-44.236,-6.712,22.462
65,1436982011296,-44.236,-6.712,22.462
66,1436982011317,-44.236,-6.712,22.462
67,1436982011342,-44.236,-6.712,22.462
68,1436982011358,-44.236,-6.712,22.462
69,1436982011378,-44.236,-6.712,22.462
70,1436982011398,-44.236,-6.712,22.462
71,1436982011418,-44.236,-6.712,22.462
72,1436982011436,-44.236,-6.712,22.462
73,1436982011458,-44.236,-6.712,22.462
74,1436982011480,-44.236,-6.712,22.128
75,1436982011500,-44.236,-6.712,22.128
76,1436982011517,-44.236,-6.712,22.128
77,1436982011539,-44.236,-6.712,22.128
78,1436982011558,-44.236,-6.712,22.128
79,1436982011577,-44.236,-6.712,22.128
80,1436982011598,-44.236,-6.712,22.128
81,1436982011621,-44.236,-6.712,22.128
82,1436982011641,-44.236,-6.712,22.128
83,1436982011657,-44.236,-6.712,22.128
84,1436982011677,-44.236,-6.712,22.128
85,1436982011697,-44.236,-6.712,22.128
86,1436982011723,-44.236,-6.712,22.128
87,1436982011744,-44.236,-6.712,22.128
88,1436982011762,-44.236,-6.712,21.824
89,1436982011777,-44.236,-6.712,21.824
90,1436982011799,-44.236,-6.712,21.824
91,1436982011849,-44.236,-6.712,21.824
92,1436982011850,-44.236,-6.712,21.824
93,1436982011857,-44.236,-6.712,21.824
94,1436982011878,-44.236,-6.712,21.824
95,1436982011897,-44.236,-6.712,21.824
96,1436982011917,-44.236,-6.712,21.824
97,1436982011938,-44.236,-6.712,21.824
98,1436982011959,-44.236,-6.712,21.824
99,1436982011977,-44.236,-6.712,21.824
100,1436982012000,-44.236,-6.712,21.824
101,1436982012022,-44.236,-6.712,21.824
102,1436982012044,-44.236,-6.712,21.824
103,1436982012060,-44.236,-6.712,21.824
104,1436982012083,-44.236,-6.712,21.824
105,1436982012099,-44.236,-6.712,22.171
106,1436982012121,-44.236,-6.712,22.171
107,1436982012140,-44.236,-6.712,22.171
108,1436982012160,-44.236,-6.712,22.171
109,1436982012181,-44.236,-6.712,22.171
110,1436982012200,-44.236,-6.712,22.171
111,1436982012221,-44.236,-6.712,22.171
112,1436982012242,-44.236,-6.712,22.171
113,1436982012258,-44.236,-6.712,22.171
114,1436982012280,-44.236,-6.712,22.497
115,1436982012298,-44.236,-6.712,22.497
116,1436982012321,-44.236,-6.712,22.497
117,1436982012348,-44.236,-6.712,22.497
118,1436982012365,-44.236,-6.712,22.497
119,1436982012379,-44.236,-6.712,22.497
120,1436982012404,-44.236,-6.712,22.497
121,1436982012424,-44.236,-6.373,22.497
122,1436982012443,-44.236,-6.373,22.497
123,1436982012462,-44.236,-6.373,22.497
124,1436982012481,-44.236,-6.373,22.497
125,1436982012553,-44.236,-6.373,22.497
126,1436982012554,-44.236,-6.373,22.497
127,1436982012555,-44.236,-6.373,22.497
128,1436982012560,-44.236,-6.373,22.497
129,1436982012582,-44.236,-6.045,22.497
130,1436982012610,-44.236,-6.045,22.497
131,1436982012619,-44.236,-6.045,22.497
132,1436982012642,-44.236,-6.045,22.497
133,1436982012662,-44.236,-6.045,22.497
134,1436982012680,-44.236,-6.045,22.813
135,1436982012700,-43.919,-5.732,22.813
136,1436982012720,-43.919,-5.732,22.813
137,1436982012739,-43.919,-5.732,22.813
138,1436982012763,-43.919,-5.732,23.194
139,1436982012782,-43.919,-5.732,23.194
140,1436982012802,-43.919,-5.427,23.194
141,1436982012821,-43.576,-5.427,23.58
142,1436982012842,-43.576,-5.427,23.58
143,1436982012863,-43.576,-5.427,23.58
144,1436982012882,-43.576,-5.427,24.057
145,1436982012902,-43.217,-5.427,24.057
146,1436982012922,-43.217,-5.427,24.374
147,1436982012942,-43.217,-5.101,24.374
148,1436982012963,-42.898,-5.101,24.757
149,1436982012982,-42.898,-5.101,24.757
150,1436982013002,-42.898,-5.101,25.134
151,1436982013022,-42.558,-5.101,25.134
152,1436982013042,-42.558,-5.101,25.468
153,1436982013063,-42.558,-5.101,25.468
154,1436982013082,-42.227,-5.101,25.839
155,1436982013102,-42.227,-5.101,25.839
156,1436982013119,-42.227,-5.101,26.21
157,1436982013139,-41.911,-5.101,26.21
158,1436982013159,-41.911,-5.101,26.525
159,1436982013182,-41.911,-5.101,26.525
160,1436982013212,-41.606,-5.101,26.893
161,1436982013265,-41.606,-5.101,26.893
162,1436982013277,-41.606,-5.101,27.256
163,1436982013279,-41.606,-5.101,27.256
164,1436982013280,-41.203,-5.101,27.616
165,1436982013303,-41.203,-5.101,27.616
166,1436982013323,-41.203,-5.101,28.074
167,1436982013340,-40.838,-5.101,28.433
168,1436982013361,-40.838,-5.101,28.781
169,1436982013379,-40.838,-5.101,29.324
170,1436982013402,-40.412,-5.101,29.324
171,1436982013432,-40.412,-5.101,29.806
172,1436982013440,-40.412,-5.101,29.806
173,1436982013472,-39.971,-5.101,30.209
174,1436982013479,-39.971,-5.101,30.836
175,1436982013661,-39.637,-5.101,30.836
176,1436982013662,-39.637,-5.101,30.836
177,1436982013663,-39.283,-5.101,30.836
178,1436982013664,-39.283,-5.101,31.373
179,1436982013665,-38.912,-5.101,31.927
180,1436982013666,-38.912,-5.101,31.927
181,1436982013667,-38.528,-5.101,32.327
182,1436982013668,-38.528,-5.101,32.327
183,1436982013669,-38.13,-5.101,32.675
184,1436982013678,-38.13,-5.101,32.675
185,1436982013699,-37.759,-5.101,32.675
186,1436982013718,-37.759,-5.101,32.675
187,1436982013738,-37.4,-4.774,32.675
188,1436982013758,-37.4,-3.701,33.074
189,1436982013778,-37.088,-2.091,33.074
190,1436982013798,-37.088,-1.129,33.454
191,1436982013818,-36.747,-0.553,33.454
192,1436982013838,-36.747,0.292,33.454
193,1436982013858,-36.747,0.292,33.876
194,1436982013878,-36.415,0.63,33.876
195,1436982013898,-36.415,0.056,33.876
196,1436982013918,-36.415,-0.317,33.876
197,1436982013938,-36.415,-0.758,34.216
198,1436982013964,-36.415,-1.579,34.216
199,1436982013979,-36.415,-1.91,34.216
200,1436982013999,-36.415,-1.91,34.216
201,1436982014019,-36.415,-1.91,34.216
202,1436982014039,-36.415,-1.231,34.216
203,1436982014058,-36.415,-1.231,33.868
204,1436982014078,-36.798,-1.231,33.868
205,1436982014098,-36.798,-1.231,33.868
206,1436982014118,-36.798,-1.231,33.868
207,1436982014143,-36.798,-1.231,33.868
208,1436982014163,-36.798,-1.867,33.868
209,1436982014180,-37.141,-2.653,33.511
210,1436982014203,-37.141,-3.442,33.511
211,1436982014224,-37.141,-4.071,33.511
212,1436982014244,-37.141,-4.948,33.511
213,1436982014263,-37.509,-4.948,33.511
214,1436982014282,-37.509,-5.628,33.087
215,1436982014303,-37.509,-5.628,33.087
216,1436982014323,-37.881,-5.628,32.763
217,1436982014340,-37.881,-5.169,32.763
218,1436982014362,-37.881,-4.748,32.763
219,1436982014382,-38.2,-4.09,32.16
220,1436982014406,-38.2,-3.572,32.16
221,1436982014425,-38.2,-3.572,31.481
222,1436982014446,-38.526,-3.971,31.481
223,1436982014463,-38.526,-4.725,31.791
224,1436982014482,-38.526,-4.725,31.33
225,1436982014500,-39.1,-4.725,31.33
226,1436982014522,-39.1,-4.725,31.33
227,1436982014542,-39.1,-4.725,31.33
228,1436982014561,-39.1,-4.136,31.33
229,1436982014633,-39.1,-3.158,31.33
230,1436982014634,-39.454,-2.029,30.938
231,1436982014635,-39.454,-0.666,30.938
232,1436982014641,-39.454,0.614,30.604
233,1436982014662,-39.877,1.495,30.604
234,1436982014683,-39.877,1.797,30.604
235,1436982014702,-39.877,1.797,30.183
236,1436982014721,-40.182,1.797,30.183
237,1436982014741,-40.182,1.797,30.183
238,1436982014763,-40.182,1.797,29.867
239,1436982014782,-40.182,1.397,29.867
240,1436982014802,-40.182,0.502,29.867
241,1436982014825,-40.51,0.106,29.551
242,1436982014844,-40.51,0.711,29.551
243,1436982014865,-40.51,1.695,29.551
244,1436982014884,-40.51,1.695,29.17
245,1436982014904,-40.85,0.808,29.17
246,1436982014973,-40.85,0.808,29.17
247,1436982014974,-40.85,0.808,29.17
248,1436982014975,-40.85,1.213,29.17
249,1436982014981,-40.85,1.213,29.17
250,1436982015002,-40.85,-0.151,29.17
251,1436982015025,-40.85,-1.762,29.17
252,1436982015042,-41.168,-3.334,29.17
253,1436982015063,-41.168,-4.257,29.17
254,1436982015082,-41.168,-4.879,29.17
255,1436982015103,-41.168,-4.879,29.17
256,1436982015123,-41.168,-4.879,29.17
257,1436982015144,-41.168,-4.879,29.17
258,1436982015164,-41.168,-4.483,29.17
259,1436982015185,-41.168,-4.483,29.492
260,1436982015201,-41.168,-3.555,29.492
261,1436982015221,-40.864,-3.555,29.814
262,1436982015243,-40.864,-4.394,29.814
263,1436982015263,-40.864,-5.961,30.192
264,1436982015341,-40.524,-5.961,30.192
265,1436982015353,-40.524,-5.961,30.566
266,1436982015354,-40.524,-4.812,30.566
267,1436982015355,-40.524,-4.26,30.876
268,1436982015364,-40.211,-4.26,30.876
269,1436982015382,-40.211,-3.285,30.876
270,1436982015403,-40.211,-1.683,30.876
271,1436982015422,-40.211,-0.001,30.876
272,1436982015442,-40.211,1.258,30.876
273,1436982015462,-40.211,1.811,30.876
274,1436982015484,-40.211,2.182,30.876
275,1436982015501,-40.211,2.182,30.876
276,1436982015525,-40.211,1.684,30.876
277,1436982015545,-40.211,1.127,30.876
278,1436982015564,-40.211,1.127,30.876
279,1436982015582,-40.211,0.384,30.876
280,1436982015602,-40.211,-0.291,30.876
281,1436982015624,-40.211,0.772,30.876
282,1436982015643,-40.211,1.741,30.876
283,1436982015662,-40.596,1.741,30.535
284,1436982015684,-40.596,0.456,30.535
285,1436982015706,-40.596,-0.431,30.535
286,1436982015725,-40.928,-0.431,30.13
287,1436982015742,-40.928,-0.431,30.13
288,1436982015764,-40.928,-1.763,30.13
289,1436982015784,-40.928,-3.309,30.13
290,1436982015801,-41.238,-4.837,29.757
291,1436982015821,-41.238,-6.083,29.757
292,1436982015847,-41.238,-6.971,29.397
293,1436982015868,-41.635,-6.971,29.397
294,1436982015888,-41.635,-6.971,29.09
295,1436982015905,-41.635,-6.211,29.09
296,1436982015922,-41.635,-5.538,29.09
297,1436982015941,-41.995,-5.043,28.787
298,1436982015962,-41.995,-4.719,28.787
299,1436982015983,-41.995,-3.799,28.787
300,1436982016085,-41.995,-4.339,28.787
301,1436982016086,-41.995,-6.282,28.787
302,1436982016087,-41.995,-6.921,28.787
303,1436982016088,-41.995,-5.734,28.475
304,1436982016089,-41.995,-4.924,28.475
305,1436982016104,-41.995,-4.31,28.475
306,1436982016126,-41.995,-3.469,28.475
307,1436982016143,-41.995,-2.037,28.475
308,1436982016175,-42.315,0.225,28.475
309,1436982016211,-42.315,1.895,28.143
310,1436982016212,-42.315,3.141,28.143
311,1436982016222,-42.315,3.141,28.143
312,1436982016243,-42.315,3.141,28.143
313,1436982016263,-42.315,3.141,28.143
314,1436982016283,-42.315,2.664,28.143
315,1436982016302,-42.315,2.664,28.143
316,1436982016325,-42.315,2.276,27.827
317,1436982016349,-42.315,1.213,27.827
318,1436982016363,-42.315,0.787,27.827
319,1436982016385,-42.315,1.954,27.827
320,1436982016412,-42.315,2.606,27.827
321,1436982016425,-42.315,1.484,27.465
322,1436982016444,-42.315,0.608,27.465
323,1436982016468,-42.315,-0.073,27.465
324,1436982016483,-42.315,-0.073,27.465
325,1436982016509,-42.315,-0.613,27.465
326,1436982016528,-42.315,-1.4,27.465
327,1436982016545,-42.315,-2.668,27.465
328,1436982016565,-42.315,-4.081,27.465
329,1436982016583,-42.315,-4.995,27.465
330,1436982016603,-42.315,-5.561,27.465
331,1436982016624,-42.315,-5.561,27.465
332,1436982016649,-42.315,-4.583,27.465
333,1436982016665,-42.315,-4.107,27.465
334,1436982016689,-42.315,-3.703,27.465
335,1436982016703,-42.315,-3.703,27.465
336,1436982016731,-42.315,-2.761,27.465
337,1436982016790,-42.315,-2.038,27.465
338,1436982016791,-42.315,-2.481,27.465
339,1436982016792,-42.315,-4.605,27.465
340,1436982016810,-42.315,-5.297,27.922
341,1436982016823,-42.315,-4.27,27.922
342,1436982016847,-42.315,-4.27,27.922
343,1436982016862,-42.315,-3.784,28.23
344,1436982016883,-42.315,-3.784,28.689
345,1436982016905,-41.996,-2.536,28.689
346,1436982016923,-41.996,-0.796,28.689
347,1436982016946,-41.996,1.228,28.689
348,1436982016968,-41.996,2.023,28.689
349,1436982016983,-41.996,2.897,28.689
350,1436982017003,-41.996,2.519,28.689
351,1436982017023,-41.996,2.519,28.689
352,1436982017046,-41.685,2.151,28.689
353,1436982017066,-41.685,2.151,28.689
354,1436982017086,-41.685,2.151,28.689
355,1436982017106,-41.685,1.58,29.02
356,1436982017125,-41.685,0.848,29.02
357,1436982017146,-41.685,0.848,29.02
358,1436982017166,-41.685,1.994,29.02
359,1436982017186,-41.685,1.994,29.02
360,1436982017204,-41.685,0.915,29.02
361,1436982017226,-41.685,0.035,29.02
362,1436982017245,-41.685,-0.276,29.02
363,1436982017265,-41.685,-0.585,29.02
364,1436982017286,-41.685,-1.953,29.02
365,1436982017305,-41.685,-3.839,29.02
366,1436982017328,-41.685,-5.291,29.02
367,1436982017348,-41.685,-6.979,29.02
368,1436982017369,-41.685,-7.597,29.02
369,1436982017388,-41.685,-7.597,29.02
370,1436982017404,-41.685,-6.986,29.02
371,1436982017426,-42.019,-6.489,29.02
372,1436982017445,-42.019,-6.489,29.02
373,1436982017465,-42.019,-5.552,29.02
374,1436982017553,-42.019,-5.552,29.02
375,1436982017554,-42.019,-4.368,29.02
376,1436982017555,-42.019,-4.368,29.02
377,1436982017556,-42.019,-6.547,29.02
378,1436982017565,-42.019,-7.894,29.02
379,1436982017584,-42.019,-6.8,29.02
380,1436982017604,-42.019,-5.903,29.02
381,1436982017623,-42.019,-5.314,29.02
382,1436982017647,-42.019,-4.833,29.02
383,1436982017664,-42.019,-4.234,29.02
384,1436982017684,-42.333,-1.933,29.02
385,1436982017704,-42.333,0.389,29.02
386,1436982017724,-42.333,1.943,29.02
387,1436982017747,-42.333,2.758,29.02
388,1436982017764,-42.333,2.104,28.523
389,1436982017787,-42.333,1.454,28.523
390,1436982017806,-42.333,1.454,28.523
391,1436982017827,-42.333,1.109,28.523
392,1436982017848,-42.333,1.109,28.523
393,1436982017867,-42.333,0.436,28.523
394,1436982017887,-42.333,-0.439,28.523
395,1436982017907,-42.651,-0.439,28.059
396,1436982017926,-42.651,1.034,28.059
397,1436982017944,-42.651,1.928,28.364
398,1436982017966,-42.651,0.543,28.364
399,1436982017987,-42.651,-0.816,28.364
400,1436982018006,-42.651,-1.35,28.364
401,1436982018026,-42.651,-1.35,28.364
402,1436982018047,-42.651,-1.957,28.364
403,1436982018067,-42.651,-3.445,28.364
404,1436982018086,-42.651,-4.731,28.364
405,1436982018107,-42.651,-6.214,28.364
406,1436982018127,-42.651,-6.793,28.028
407,1436982018146,-42.951,-6.793,28.028
408,1436982018164,-42.951,-6.793,28.028
409,1436982018184,-42.951,-5.836,28.028
410,1436982018211,-42.951,-5.451,28.028
411,1436982018272,-42.951,-5.451,28.028
412,1436982018273,-42.951,-4.719,28.028
413,1436982018274,-42.951,-4.145,28.028
414,1436982018292,-42.951,-4.472,28.028
415,1436982018304,-42.584,-6.501,29.142
416,1436982018330,-42.584,-7.823,29.65
417,1436982018345,-42.584,-6.64,29.65
418,1436982018364,-42.227,-5.657,29.65
419,1436982018385,-42.227,-4.902,30.575
420,1436982018404,-41.709,-4.148,31.156
421,1436982018425,-41.709,-2.896,31.156
422,1436982018448,-41.709,-0.534,30.261
423,1436982018475,-41.709,1.66,29.841
424,1436982018484,-41.709,3.468,29.077
425,1436982018521,-41.709,4.069,29.077
426,1436982018526,-41.709,4.069,28.585
427,1436982018544,-41.709,3.486,28.585
428,1436982018566,-41.709,3.486,29.327
429,1436982018633,-41.709,3.105,29.327
430,1436982018634,-41.387,2.781,29.327
431,1436982018635,-41.387,2.781,29.327
432,1436982018643,-41.387,1.609,29.327
433,1436982018664,-41.387,1.609,29.327
434,1436982018684,-41.387,3.03,29.327
435,1436982018706,-41.387,4.145,29.757
436,1436982018724,-41.387,2.432,29.757
437,1436982018744,-41.387,1.126,29.446
438,1436982018764,-41.387,0.447,29.446
439,1436982018784,-41.699,0.125,29.446
440,1436982018803,-41.699,-0.914,29.446
441,1436982018824,-41.699,-2.931,29.446
442,1436982018847,-41.699,-4.589,29.135
443,1436982018866,-42.03,-5.848,29.135
444,1436982018884,-42.03,-7.083,29.135
445,1436982018904,-42.03,-7.083,28.219
446,1436982018924,-42.03,-5.947,28.219
447,1436982018949,-42.352,-5.517,28.219
448,1436982018993,-42.352,-5.517,28.219
449,1436982018994,-42.352,-5.126,28.219
450,1436982019012,-42.352,-4.512,28.219
451,1436982019023,-42.352,-4.083,28.219
452,1436982019046,-42.352,-4.891,28.622
453,1436982019065,-42.352,-7.305,29.689
454,1436982019085,-42.352,-7.661,29.689
455,1436982019103,-42.352,-6.332,29.235
456,1436982019128,-42.352,-5.296,29.235
457,1436982019147,-42.352,-4.2,29.235
458,1436982019168,-42.352,-3.636,29.235
459,1436982019187,-42.352,-2.175,29.235
460,1436982019207,-42.352,0.115,28.239
461,1436982019228,-42.352,2.407,27.922
462,1436982019248,-42.352,3.912,27.449
463,1436982019268,-42.352,4.24,27.449
464,1436982019286,-42.352,3.884,27.449
465,1436982019308,-42.352,3.208,27.838
466,1436982019327,-42.352,2.531,27.838
467,1436982019347,-42.352,2.531,28.21
468,1436982019368,-42.352,2.027,28.21
469,1436982019386,-42.352,1.319,28.21
470,1436982019407,-42.352,0.408,27.906
471,1436982019428,-42.352,0.408,27.906
472,1436982019448,-42.352,2.178,28.627
473,1436982019468,-42.352,2.178,28.627
474,1436982019489,-42.352,1.01,28.627
475,1436982019507,-42.352,0.036,28.225
476,1436982019528,-42.352,-0.408,28.225
477,1436982019545,-42.352,-0.921,29.028
478,1436982019566,-42.352,-2.301,29.028
479,1436982019597,-42.352,-4.075,29.028
480,1436982019652,-42.352,-5.369,28.407
481,1436982019653,-42.352,-6.698,28.051
482,1436982019654,-42.352,-6.698,28.051
483,1436982019673,-42.352,-6.239,28.051
484,1436982019687,-42.352,-5.468,28.469
485,1436982019709,-42.352,-4.611,28.469
486,1436982019726,-42.352,-4.611,28.469
487,1436982019746,-42.352,-4.023,28.469
488,1436982019768,-42.352,-3.535,28.469
489,1436982019787,-42.352,-2.61,28.469
490,1436982019806,-42.352,-3.738,28.802
491,1436982019826,-42.352,-6.002,29.417
492,1436982019848,-42.034,-5.603,29.867
493,1436982019866,-42.034,-4.457,29.53
494,1436982019888,-42.034,-3.715,29.53
495,1436982019905,-42.034,-2.381,29.835
496,1436982019932,-42.034,-1.136,29.835
497,1436982019946,-42.034,1.174,29.101
498,1436982019966,-42.034,3.631,29.101
499,1436982019986,-42.034,5.604,28.341
500,1436982020005,-42.034,6.581,28.341
501,1436982020026,-42.034,5.665,27.978
502,1436982020045,-42.034,5.001,27.978
503,1436982020087,-42.034,4.193,28.419
504,1436982020088,-42.034,3.758,28.419
505,1436982020120,-42.034,3.758,28.419
506,1436982020125,-42.034,3.056,28.419
507,1436982020144,-42.034,1.867,28.419
508,1436982020167,-42.034,2.432,28.419
