id,attr_time,attr_x,attr_y,attr_z
1,1436982010017,-14.785,-39.517,2.996
2,1436982010037,-14.785,-39.517,2.996
3,1436982010057,-14.785,-39.517,2.996
4,1436982010077,-14.785,-39.517,2.996
5,1436982010097,-14.785,-39.517,2.996
6,1436982010117,-14.785,-39.517,2.996
7,1436982010137,-14.785,-39.517,2.996
8,1436982010157,-14.785,-39.517,2.996
9,1436982010177,-14.785,-39.517,2.996
10,1436982010197,-14.785,-39.517,2.996
11,1436982010218,-14.785,-39.517,2.996
12,1436982010236,-14.785,-39.517,2.996
13,1436982010257,-14.785,-39.517,2.996
14,1436982010277,-14.785,-39.517,2.996
15,1436982010297,-14.785,-39.517,2.996
16,1436982010316,-14.785,-39.517,2.996
17,1436982010340,-14.785,-39.517,2.996
18,1436982010358,-14.785,-39.517,2.996
19,1436982010377,-14.785,-39.517,2.996
20,1436982010395,-14.785,-39.517,2.996
21,1436982010420,-14.785,-39.517,2.996
22,1436982010440,-14.785,-39.517,2.996
23,1436982010458,-14.785,-39.517,2.996
24,1436982010480,-14.785,-39.517,2.996
25,1436982010504,-14.785,-39.517,2.996
26,1436982010516,-14.785,-39.517,2.996
27,1436982010536,-14.785,-39.517,2.996
28,1436982010556,-14.785,-39.517,2.996
29,1436982010576,-14.785,-39.517,2.996
30,1436982010601,-14.785,-39.517,2.996
31,1436982010616,-14.785,-39.517,2.996
32,1436982010641,-14.785,-39.517,2.996
33,1436982010661,-14.785,-39.517,2.996
34,1436982010678,-14.785,-39.517,2.996
35,1436982010701,-14.785,-39.517,2.996
36,1436982010716,-14.785,-39.517,2.996
37,1436982010737,-14.785,-39.517,2.996
38,1436982010761,-14.785,-39.517,2.996
39,1436982010778,-14.785,-39.517,2.996
40,1436982010802,-14.785,-39.517,2.996
41,1436982010819,-14.785,-39.517,2.996
42,1436982010840,-14.785,-39.517,2.996
43,1436982010857,-14.785,-39.517,2.996
44,1436982010880,-14.785,-39.517,2.996
45,1436982010900,-14.785,-39.517,2.996
46,1436982010948,-14.785,-39.517,2.996
47,1436982010949,-14.785,-39.517,2.996
48,1436982010962,-14.785,-39.517,2.996
49,1436982010979,-14.785,-39.517,2.996
50,1436982011001,-14.785,-39.517,2.996
51,1436982011022,-14.785,-39.517,2.996
52,1436982011038,-14.471,-39.517,2.996
53,1436982011060,-14.471,-39.517,2.996
54,1436982011077,-14.471,-39.517,2.996
55,1436982011101,-14.471,-39.517,3.311
56,1436982011117,-14.471,-39.517,3.311
57,1436982011159,-14.471,-39.517,3.311
58,1436982011160,-14.471,-39.517,3.311
59,1436982011178,-14.471,-39.517,3.311
60,1436982011198,-14.471,-39.517,3.311
61,1436982011221,-14.471,-39.517,3.311
62,1436982011238,-14.471,-39.517,3.311
63,1436982011261,-14.471,-39.517,3.311
64,1436982011279,-14.471,-39.517,3.311
65,1436982011301,-14.471,-39.517,3.311
66,1436982011321,-14.471,-39.517,3.311
67,1436982011341,-14.471,-39.517,3.311
68,1436982011358,-14.471,-39.517,3.311
69,1436982011382,-14.471,-39.517,3.311
70,1436982011402,-14.471,-39.517,3.311
71,1436982011422,-14.471,-39.517,3.311
72,1436982011441,-14.471,-39.517,3.311
73,1436982011462,-14.471,-39.517,3.311
74,1436982011481,-14.158,-39.517,3.311
75,1436982011501,-14.158,-39.517,3.311
76,1436982011524,-14.158,-39.517,3.311
77,1436982011539,-14.158,-39.517,3.311
78,1436982011561,-14.158,-39.517,3.311
79,1436982011578,-14.158,-39.517,3.311
80,1436982011599,-14.158,-39.517,3.311
81,1436982011619,-14.158,-39.517,3.311
82,1436982011643,-14.158,-39.517,3.311
83,1436982011663,-14.158,-39.517,3.311
84,1436982011684,-14.158,-39.517,3.311
85,1436982011701,-14.158,-39.517,3.311
86,1436982011718,-14.158,-39.517,3.311
87,1436982011738,-14.158,-39.517,3.311
88,1436982011758,-14.158,-39.517,3.311
89,1436982011780,-14.158,-39.517,3.311
90,1436982011904,-14.158,-39.517,3.311
91,1436982011905,-14.158,-39.517,3.311
92,1436982011906,-14.158,-39.517,3.311
93,1436982011907,-14.158,-39.517,3.311
94,1436982011908,-14.158,-39.517,3.311
95,1436982011909,-14.158,-39.517,3.311
96,1436982011920,-14.158,-39.517,3.311
97,1436982011939,-14.158,-39.517,3.311
98,1436982011958,-14.158,-39.517,3.311
99,1436982011979,-14.158,-39.517,3.311
100,1436982012012,-14.158,-39.517,3.311
101,1436982012020,-14.158,-39.517,3.311
102,1436982012040,-14.158,-39.517,3.311
103,1436982012060,-14.158,-39.517,3.311
104,1436982012079,-14.158,-39.517,3.311
105,1436982012103,-14.158,-39.517,3.311
106,1436982012122,-14.158,-39.517,3.311
107,1436982012142,-14.158,-39.517,3.311
108,1436982012162,-14.48,-39.517,3.311
109,1436982012182,-14.48,-39.517,3.311
110,1436982012203,-14.48,-39.517,3.311
111,1436982012222,-14.48,-39.517,3.311
112,1436982012242,-14.48,-39.517,3.66
113,1436982012264,-14.48,-39.517,3.66
114,1436982012279,-14.48,-39.517,3.66
115,1436982012302,-14.48,-39.517,3.66
116,1436982012322,-14.48,-39.517,3.66
117,1436982012341,-14.48,-39.517,3.66
118,1436982012361,-14.48,-39.517,3.66
119,1436982012382,-14.48,-39.517,3.66
120,1436982012403,-14.48,-39.517,3.66
121,1436982012422,-14.48,-39.517,3.66
122,1436982012442,-14.48,-39.517,3.66
123,1436982012462,-14.48,-39.517,3.66
124,1436982012482,-14.48,-39.517,3.66
125,1436982012503,-14.48,-39.517,3.66
126,1436982012523,-14.48,-39.517,3.66
127,1436982012541,-14.48,-39.517,3.66
128,1436982012612,-14.48,-39.517,3.66
129,1436982012613,-14.48,-39.517,3.66
130,1436982012614,-14.48,-39.517,3.66
131,1436982012621,-14.48,-39.517,3.66
132,1436982012647,-14.48,-39.517,3.66
133,1436982012660,-14.48,-39.517,3.66
134,1436982012681,-14.48,-39.517,3.66
135,1436982012716,-14.48,-39.517,3.66
136,1436982012719,-14.48,-39.517,3.66
137,1436982012743,-14.48,-39.517,3.32
138,1436982012760,-14.152,-39.517,3.32
139,1436982012782,-14.152,-39.517,3.32
140,1436982012802,-14.152,-39.517,3.32
141,1436982012821,-14.152,-39.517,3.32
142,1436982012843,-14.152,-39.517,3.32
143,1436982012862,-14.152,-39.517,3.32
144,1436982012882,-14.152,-39.517,3.32
145,1436982012902,-14.152,-39.517,3.32
146,1436982012923,-14.152,-39.517,3.32
147,1436982012943,-14.152,-39.517,3.32
148,1436982012963,-14.152,-39.517,3.32
149,1436982012982,-14.152,-39.517,3.32
150,1436982013003,-14.152,-39.517,3.32
151,1436982013023,-14.152,-39.517,3.32
152,1436982013043,-14.152,-39.517,3.32
153,1436982013063,-14.152,-39.517,3.32
154,1436982013083,-14.152,-39.517,3.32
155,1436982013123,-14.152,-39.517,3.32
156,1436982013124,-14.152,-39.517,3.32
157,1436982013157,-14.152,-39.517,3.32
158,1436982013159,-14.152,-39.517,3.32
159,1436982013181,-14.152,-39.517,3.32
160,1436982013201,-14.152,-39.517,3.646
161,1436982013221,-14.454,-39.517,3.646
162,1436982013249,-14.454,-39.517,3.646
163,1436982013304,-14.454,-39.517,3.646
164,1436982013305,-14.454,-39.517,3.646
165,1436982013306,-14.454,-39.517,3.646
166,1436982013323,-14.454,-39.517,3.646
167,1436982013349,-14.454,-39.517,3.646
168,1436982013363,-14.454,-39.517,3.646
169,1436982013380,-14.454,-39.517,3.646
170,1436982013402,-14.454,-39.517,3.646
171,1436982013421,-14.454,-39.517,3.646
172,1436982013445,-14.454,-39.517,3.646
173,1436982013464,-14.454,-39.517,3.646
174,1436982013481,-14.454,-39.517,3.646
175,1436982013500,-14.454,-39.517,3.646
176,1436982013523,-14.454,-39.517,3.646
177,1436982013543,-14.454,-39.517,3.646
178,1436982013563,-14.454,-39.517,3.646
179,1436982013583,-14.454,-39.517,3.646
180,1436982013603,-14.454,-39.517,3.646
181,1436982013623,-14.454,-39.517,3.646
182,1436982013643,-14.454,-39.517,3.646
183,1436982013663,-14.454,-39.517,3.646
184,1436982013685,-14.454,-39.517,3.646
185,1436982013700,-14.454,-39.517,3.646
186,1436982013723,-14.454,-39.517,3.646
187,1436982013744,-14.454,-39.517,3.646
188,1436982013763,-14.454,-39.517,3.646
189,1436982013787,-14.454,-39.517,3.646
190,1436982013931,-14.454,-39.517,3.646
191,1436982013932,-14.454,-39.517,3.646
192,1436982013933,-14.454,-39.836,3.646
193,1436982013934,-14.454,-39.836,3.646
194,1436982013935,-14.454,-39.836,3.646
195,1436982013936,-14.454,-39.836,3.646
196,1436982013937,-14.454,-39.836,3.646
197,1436982013942,-14.454,-39.836,3.646
198,1436982013963,-14.454,-39.836,3.646
199,1436982013986,-14.454,-39.836,3.646
200,1436982014017,-14.454,-39.836,3.646
201,1436982014021,-14.454,-39.836,3.646
202,1436982014042,-14.102,-39.836,3.303
203,1436982014061,-14.102,-39.836,3.303
204,1436982014082,-14.102,-39.836,3.303
205,1436982014113,-14.102,-39.836,3.303
206,1436982014121,-14.102,-39.836,3.303
207,1436982014143,-14.102,-39.836,3.303
208,1436982014167,-14.102,-39.836,2.943
209,1436982014182,-14.102,-39.836,2.943
210,1436982014204,-14.102,-39.836,2.943
211,1436982014221,-14.102,-39.836,2.943
212,1436982014244,-13.784,-39.836,2.943
213,1436982014264,-13.784,-39.836,2.943
214,1436982014284,-13.784,-39.836,2.943
215,1436982014304,-13.784,-39.836,2.943
216,1436982014324,-13.784,-39.836,2.943
217,1436982014344,-13.784,-39.836,2.943
218,1436982014364,-13.784,-39.836,2.943
219,1436982014384,-13.784,-39.836,2.943
220,1436982014404,-13.784,-39.836,2.943
221,1436982014424,-13.784,-39.836,2.943
222,1436982014444,-13.784,-39.836,2.943
223,1436982014464,-13.784,-39.836,2.943
224,1436982014484,-13.784,-39.836,2.943
225,1436982014504,-14.117,-39.836,2.943
226,1436982014524,-14.117,-39.836,2.943
227,1436982014545,-14.117,-39.836,2.943
228,1436982014564,-14.117,-39.836,2.943
229,1436982014584,-14.117,-39.836,2.943
230,1436982014603,-14.117,-39.836,2.943
231,1436982014623,-14.117,-39.836,2.943
232,1436982014643,-14.117,-39.836,2.943
233,1436982014670,-14.117,-39.836,2.943
234,1436982014743,-14.117,-39.836,2.943
235,1436982014744,-14.117,-39.836,2.943
236,1436982014745,-14.117,-39.836,2.943
237,1436982014746,-14.117,-39.836,2.943
238,1436982014761,-14.117,-39.836,2.943
239,1436982014782,-14.117,-39.836,2.943
240,1436982014803,-14.117,-39.836,2.943
241,1436982014821,-14.117,-39.836,2.943
242,1436982014842,-14.117,-39.836,2.943
243,1436982014866,-13.812,-39.836,2.943
244,1436982014884,-13.812,-39.836,2.943
245,1436982014902,-13.812,-39.836,2.632
246,1436982014922,-13.812,-39.836,2.632
247,1436982015058,-13.812,-39.836,2.632
248,1436982015059,-13.812,-39.836,2.632
249,1436982015060,-13.812,-39.836,2.32
250,1436982015061,-13.812,-39.836,2.32
251,1436982015062,-13.812,-39.836,2.32
252,1436982015063,-14.129,-39.836,1.898
253,1436982015064,-14.129,-39.836,1.898
254,1436982015419,-14.129,-39.492,1.531
255,1436982015420,-14.529,-39.492,1.222
256,1436982015421,-14.956,-39.492,0.25
257,1436982015422,-15.321,-39.192,-0.482
258,1436982015423,-15.756,-39.192,-0.999
259,1436982015424,-16.299,-39.192,-0.999
260,1436982015425,-16.299,-38.796,-1.693
261,1436982015426,-16.754,-38.796,-2.011
262,1436982015427,-16.754,-38.796,-2.011
263,1436982015428,-16.754,-38.336,-2.011
264,1436982015429,-16.754,-38.336,-2.529
265,1436982015430,-16.754,-38.002,-2.529
266,1436982015431,-17.175,-38.002,-2.529
267,1436982015432,-17.175,-38.002,-2.529
268,1436982015433,-17.175,-37.532,-2.529
269,1436982015434,-17.543,-37.532,-2.978
270,1436982015435,-17.543,-37.532,-2.978
271,1436982015436,-17.886,-37.113,-2.978
272,1436982015441,-17.886,-37.113,-2.978
273,1436982015460,-18.226,-37.113,-3.317
274,1436982015480,-18.226,-36.705,-3.317
275,1436982015500,-18.226,-36.705,-3.669
276,1436982015520,-18.659,-36.705,-3.669
277,1436982015540,-18.659,-36.383,-3.669
278,1436982015560,-18.968,-36.383,-3.669
279,1436982015580,-18.968,-36.383,-4.023
280,1436982015600,-18.968,-36.383,-4.023
281,1436982015620,-19.375,-36.077,-4.023
282,1436982015640,-19.375,-36.077,-4.023
283,1436982015660,-19.375,-36.077,-4.023
284,1436982015680,-19.822,-36.077,-4.023
285,1436982015700,-19.822,-36.077,-4.023
286,1436982015722,-19.822,-36.077,-4.023
287,1436982015744,-20.159,-35.704,-4.023
288,1436982015763,-20.159,-35.704,-4.023
289,1436982015781,-20.159,-35.704,-4.023
290,1436982015803,-20.468,-35.704,-4.023
291,1436982015822,-20.468,-35.397,-4.023
292,1436982015846,-20.468,-35.397,-4.023
293,1436982015866,-20.855,-35.397,-4.023
294,1436982015886,-20.855,-35.397,-4.023
295,1436982015903,-21.212,-35.005,-4.023
296,1436982015924,-21.212,-35.005,-4.023
297,1436982015943,-22.282,-35.005,-4.023
298,1436982015964,-24.272,-33.911,-4.023
299,1436982015983,-25.825,-32.591,-4.023
300,1436982016009,-26.988,-31.24,-4.023
301,1436982016021,-27.923,-30.05,-4.023
302,1436982016043,-29.051,-28.861,-4.023
303,1436982016062,-29.598,-27.586,-4.023
304,1436982016084,-30.461,-26.084,-4.023
305,1436982016105,-30.461,-24.533,-5.335
306,1436982016123,-30.986,-22.734,-8.956
307,1436982016143,-30.986,-21.098,-12.268
308,1436982016166,-30.986,-19.021,-14.833
309,1436982016186,-30.986,-17.137,-16.831
310,1436982016206,-30.386,-15.835,-18.746
311,1436982016222,-30.386,-13.902,-20.069
312,1436982016246,-30.386,-12.355,-21.754
313,1436982016266,-29.846,-10.33,-22.25
314,1436982016286,-29.846,-9.077,-23.907
315,1436982016306,-29.399,-8.027,-24.882
316,1436982016326,-29.399,-7.083,-25.654
317,1436982016346,-29.399,-7.083,-26.528
318,1436982016368,-29.399,-7.083,-27.31
319,1436982016384,-29.399,-7.598,-27.31
320,1436982016405,-28.935,-8.547,-27.31
321,1436982016423,-28.408,-10.253,-27.31
322,1436982016443,-28.408,-12.019,-25.839
323,1436982016463,-28.778,-14.732,-22.865
324,1436982016488,-29.13,-18.235,-20.254
325,1436982016509,-28.799,-21.885,-17.144
326,1436982016529,-28.187,-25.144,-14.964
327,1436982016546,-27.046,-28.97,-13.403
328,1436982016563,-24.182,-31.234,-11.813
329,1436982016583,-21.754,-33.605,-11.09
330,1436982016603,-19.483,-35.862,-10.469
331,1436982016624,-18.124,-36.88,-9.092
332,1436982016649,-16.601,-38.053,-8.242
333,1436982016701,-16.131,-38.496,-6.419
334,1436982016713,-16.131,-38.496,-5.056
335,1436982016714,-16.574,-39.016,-2.88
336,1436982016723,-16.969,-39.016,-1.2
337,1436982016744,-17.483,-39.016,-0.125
338,1436982016765,-17.909,-38.578,0.337
339,1436982016783,-18.461,-38.578,0.337
340,1436982016806,-18.461,-37.918,-0.666
341,1436982016823,-19.27,-37.527,-2.018
342,1436982016844,-19.27,-37.113,-3.698
343,1436982016864,-19.27,-36.503,-5.654
344,1436982016885,-19.868,-35.844,-8.563
345,1436982016906,-20.584,-33.894,-11.277
346,1436982016927,-21.093,-32.046,-14.23
347,1436982016947,-21.572,-30.387,-16.233
348,1436982016967,-22.695,-27.65,-18.186
349,1436982016987,-24.023,-24.748,-20.062
350,1436982017007,-25.439,-22.309,-21.034
351,1436982017027,-26.039,-19.422,-22.14
352,1436982017047,-26.039,-17.21,-24.288
353,1436982017067,-26.039,-15.325,-26.04
354,1436982017087,-25.341,-13.255,-27.513
355,1436982017105,-24.523,-11.575,-29.003
356,1436982017127,-23.307,-10.462,-31.033
357,1436982017147,-22.035,-9.567,-32.16
358,1436982017167,-20.745,-9.567,-32.997
359,1436982017187,-20.223,-9.567,-34.165
360,1436982017207,-20.223,-10.557,-33.683
361,1436982017225,-20.837,-11.561,-32.951
362,1436982017245,-21.553,-13.069,-31.608
363,1436982017265,-22.434,-15.072,-29.862
364,1436982017287,-23.669,-18.07,-26.536
365,1436982017307,-24.578,-21.209,-22.813
366,1436982017327,-24.993,-25.25,-18.496
367,1436982017345,-23.887,-28.648,-15.71
368,1436982017373,-22.52,-31.739,-13.94
369,1436982017439,-20.811,-34.3,-12.251
370,1436982017440,-19.013,-35.89,-10.94
371,1436982017447,-17.25,-37.66,-9.928
372,1436982017448,-15.447,-39.135,-8.312
373,1436982017464,-14.245,-40.126,-7.452
374,1436982017486,-13.694,-40.551,-6.343
375,1436982017504,-13.694,-40.971,-5.72
376,1436982017526,-13.999,-40.971,-5.039
377,1436982017545,-14.738,-40.971,-3.448
378,1436982017569,-15.139,-40.458,-2.891
379,1436982017588,-16.007,-40.028,-2.203
380,1436982017605,-17.366,-39.598,-2.589
381,1436982017626,-18.525,-38.668,-3.186
382,1436982017647,-19.227,-37.622,-4.223
383,1436982017667,-19.961,-36.749,-7.032
384,1436982017687,-20.977,-34.53,-9.336
385,1436982017707,-22.807,-32.292,-12.699
386,1436982017727,-24.189,-30.488,-15.043
387,1436982017747,-25.051,-27.218,-16.404
388,1436982017767,-26.144,-24.908,-18.26
389,1436982017787,-27.239,-22.32,-19.265
390,1436982017809,-27.67,-19.726,-21.202
391,1436982017827,-28.181,-17.657,-22.831
392,1436982017848,-28.181,-15.513,-23.887
393,1436982017867,-27.503,-14.027,-25.582
394,1436982017886,-26.727,-12.554,-27.078
395,1436982017905,-25.312,-11.334,-29.826
396,1436982017931,-23.536,-10.417,-31.501
397,1436982017947,-22.105,-10.417,-32.655
398,1436982017971,-21.005,-10.417,-33.581
399,1436982017988,-20.126,-11.54,-33.184
400,1436982018005,-20.126,-13.006,-33.184
401,1436982018026,-20.87,-14.985,-31.687
402,1436982018046,-21.659,-17.366,-29.76
403,1436982018207,-23.045,-20.542,-26.62
404,1436982018208,-24.807,-24.206,-21.435
405,1436982018209,-25.619,-27.618,-16.253
406,1436982018210,-25.183,-31.314,-11.869
407,1436982018211,-24.339,-33.152,-8.283
408,1436982018212,-22.666,-35.041,-6.242
409,1436982018213,-20.97,-36.921,-4.315
410,1436982018214,-18.887,-38.751,-3.84
411,1436982018233,-16.944,-39.593,-3.84
412,1436982018259,-15.934,-40.173,-3.84
413,1436982018265,-15.072,-40.173,-3.84
414,1436982018296,-15.072,-40.585,-3.326
415,1436982018305,-15.072,-40.585,-1.861
416,1436982018325,-15.565,-40.585,-0.903
417,1436982018345,-16.574,-40.083,0.201
418,1436982018365,-17.982,-39.765,0.201
419,1436982018388,-19.198,-38.755,0.543
420,1436982018405,-20.339,-38.038,0.543
421,1436982018425,-21.044,-37.297,0.1
422,1436982018445,-21.688,-36.643,-1.741
423,1436982018465,-23.571,-35.089,-3.829
424,1436982018485,-25.106,-32.862,-8.047
425,1436982018505,-25.535,-31.17,-10.278
426,1436982018525,-25.985,-28.684,-13.424
427,1436982018545,-26.287,-26.693,-15.905
428,1436982018565,-26.287,-24.7,-18.403
429,1436982018585,-26.287,-22.862,-20.549
430,1436982018605,-25.72,-21.447,-22.077
431,1436982018625,-25.349,-19.859,-24.076
432,1436982018645,-24.577,-17.881,-26.188
433,1436982018665,-23.55,-16.484,-28.115
434,1436982018687,-22.566,-15.686,-29.74
435,1436982018717,-21.012,-14.762,-31.912
436,1436982018725,-19.995,-14.762,-32.839
437,1436982018747,-19.995,-14.762,-32.839
438,1436982018794,-19.995,-15.42,-32.186
439,1436982018795,-21.006,-16.636,-31.028
440,1436982018826,-22.666,-18.498,-28.195
441,1436982018827,-24.548,-21.263,-23.554
442,1436982018853,-25.959,-23.956,-18.098
443,1436982018877,-26.39,-27.389,-13.391
444,1436982018884,-25.894,-30.296,-10.221
445,1436982018904,-25.09,-32.138,-7.298
446,1436982018924,-23.661,-34.295,-5.59
447,1436982018944,-22.067,-35.877,-4.687
448,1436982018969,-20.417,-36.863,-4.188
449,1436982018995,-19.358,-38.058,-3.546
450,1436982019005,-18.835,-38.688,-2.751
451,1436982019024,-18.835,-39.155,-1.49
452,1436982019044,-18.835,-39.155,-0.479
453,1436982019064,-18.835,-38.665,0.582
454,1436982019084,-18.835,-38.665,0.582
455,1436982019104,-19.154,-38.665,0.582
456,1436982019124,-19.99,-38.249,-0.001
457,1436982019144,-20.86,-37.577,-2.029
458,1436982019164,-21.623,-36.43,-3.854
459,1436982019184,-22.131,-35.578,-5.187
460,1436982019204,-22.131,-34.832,-6.901
461,1436982019224,-23.771,-32.917,-10.217
462,1436982019244,-25.033,-30.67,-12.785
463,1436982019264,-25.679,-27.735,-14.953
464,1436982019286,-26.367,-25.402,-17.401
465,1436982019305,-26.969,-23.529,-18.594
466,1436982019327,-26.969,-21.276,-20.698
467,1436982019345,-26.516,-19.338,-22.906
468,1436982019365,-25.669,-18.194,-24.748
469,1436982019387,-24.978,-17.189,-26.46
470,1436982019409,-24.087,-15.707,-28.173
471,1436982019429,-22.906,-14.987,-30.317
472,1436982019447,-21.403,-13.873,-32.281
473,1436982019466,-20.344,-13.482,-33.403
474,1436982019508,-19.171,-13.482,-34.626
475,1436982019509,-19.171,-13.844,-34.626
476,1436982019525,-19.171,-14.553,-33.644
477,1436982019546,-20.513,-16.177,-32.26
478,1436982019568,-22.082,-17.922,-29.849
479,1436982019585,-23.605,-20.898,-26.673
480,1436982019608,-25.859,-23.321,-20.791
481,1436982019626,-27.243,-26.184,-16.017
482,1436982019646,-27.243,-29.515,-11.018
483,1436982019670,-26.04,-32.008,-7.868
484,1436982019686,-24.804,-33.981,-4.286
485,1436982019706,-23.088,-35.879,-2.961
486,1436982019730,-21.652,-37.266,-2.961
487,1436982019747,-20.619,-38.175,-1.889
488,1436982019770,-19.998,-38.888,-1.31
489,1436982019786,-19.508,-38.888,-0.512
490,1436982019807,-19.508,-38.888,0.228
491,1436982019830,-19.831,-39.308,1.268
492,1436982019847,-19.831,-38.862,2.51
493,1436982019867,-20.285,-38.862,2.51
494,1436982019886,-20.989,-38.23,1.712
495,1436982019907,-22.102,-37.597,1.11
496,1436982019930,-22.787,-36.535,-0.927
497,1436982019949,-23.628,-35.891,-2.05
