id,attr_time,attr_x,attr_y,attr_z
1,1436982010031,-17.631,-42.34,-3.474
2,1436982010050,-17.631,-42.34,-3.474
3,1436982010070,-17.631,-42.34,-3.474
4,1436982010093,-17.631,-42.34,-3.474
5,1436982010112,-17.631,-42.34,-3.474
6,1436982010132,-17.631,-42.34,-3.474
7,1436982010151,-17.631,-42.34,-3.474
8,1436982010172,-17.631,-42.34,-3.474
9,1436982010193,-17.631,-42.34,-3.474
10,1436982010213,-17.631,-42.34,-3.474
11,1436982010233,-17.631,-42.34,-3.775
12,1436982010253,-17.631,-42.34,-3.775
13,1436982010273,-17.631,-42.34,-3.775
14,1436982010294,-17.631,-42.34,-3.775
15,1436982010313,-17.631,-42.34,-3.775
16,1436982010333,-17.631,-42.34,-3.775
17,1436982010353,-17.631,-42.34,-3.775
18,1436982010375,-17.631,-42.34,-3.775
19,1436982010390,-17.631,-42.34,-3.775
20,1436982010414,-17.631,-42.34,-3.775
21,1436982010432,-17.631,-42.34,-3.775
22,1436982010452,-17.631,-42.34,-3.775
23,1436982010471,-17.631,-42.34,-3.775
24,1436982010496,-17.631,-42.34,-3.775
25,1436982010517,-17.631,-42.34,-3.775
26,1436982010534,-17.631,-42.34,-3.775
27,1436982010553,-17.631,-42.34,-3.775
28,1436982010574,-17.631,-42.34,-3.775
29,1436982010599,-17.631,-42.34,-3.775
30,1436982010615,-17.631,-42.34,-3.775
31,1436982010632,-17.631,-42.34,-3.775
32,1436982010700,-17.631,-42.34,-3.775
33,1436982010701,-17.631,-42.34,-3.775
34,1436982010702,-17.631,-42.34,-3.775
35,1436982010711,-17.631,-42.34,-3.775
36,1436982010731,-17.631,-42.34,-3.775
37,1436982010751,-17.631,-42.34,-3.775
38,1436982010771,-17.631,-42.34,-3.775
39,1436982010791,-17.631,-42.34,-3.775
40,1436982010815,-17.631,-42.34,-3.775
41,1436982010833,-17.631,-42.34,-3.775
42,1436982010853,-17.631,-42.34,-3.775
43,1436982010872,-17.631,-42.34,-3.775
44,1436982010893,-17.631,-42.34,-3.775
45,1436982010939,-17.631,-42.34,-3.775
46,1436982010940,-17.631,-42.34,-3.775
47,1436982010954,-17.631,-42.34,-3.775
48,1436982010974,-17.631,-42.34,-3.775
49,1436982010994,-17.631,-42.033,-3.775
50,1436982011014,-17.631,-42.033,-3.775
51,1436982011034,-17.631,-42.033,-3.775
52,1436982011054,-17.631,-42.033,-3.775
53,1436982011074,-17.631,-42.033,-3.775
54,1436982011092,-17.631,-42.033,-3.775
55,1436982011114,-17.631,-42.033,-3.775
56,1436982011134,-17.631,-42.033,-3.775
57,1436982011152,-17.631,-42.033,-3.775
58,1436982011173,-17.631,-42.033,-3.775
59,1436982011194,-17.631,-42.033,-3.775
60,1436982011217,-17.631,-42.033,-3.775
61,1436982011236,-17.631,-42.033,-3.775
62,1436982011256,-17.631,-42.033,-3.775
63,1436982011274,-17.631,-42.033,-3.775
64,1436982011292,-17.631,-42.033,-3.775
65,1436982011312,-17.631,-42.033,-3.775
66,1436982011333,-17.631,-42.033,-3.775
67,1436982011353,-17.631,-42.033,-3.775
68,1436982011371,-17.631,-42.033,-3.775
69,1436982011439,-17.631,-42.033,-3.775
70,1436982011440,-17.935,-42.033,-3.775
71,1436982011441,-17.935,-42.033,-3.775
72,1436982011451,-17.935,-42.033,-3.775
73,1436982011476,-17.935,-42.033,-3.775
74,1436982011492,-17.935,-42.033,-3.775
75,1436982011512,-17.935,-42.033,-3.775
76,1436982011555,-17.935,-42.033,-3.775
77,1436982011556,-17.935,-42.033,-3.775
78,1436982011573,-17.935,-42.033,-3.775
79,1436982011594,-17.935,-42.033,-3.775
80,1436982011613,-17.935,-42.033,-3.775
81,1436982011632,-17.935,-42.033,-3.775
82,1436982011653,-17.935,-42.033,-3.775
83,1436982011674,-17.935,-42.033,-3.775
84,1436982011695,-17.935,-42.033,-3.775
85,1436982011715,-17.935,-42.033,-3.775
86,1436982011735,-17.935,-42.033,-3.775
87,1436982011755,-17.935,-42.033,-3.775
88,1436982011774,-17.935,-42.033,-3.775
89,1436982011794,-17.935,-42.033,-3.775
90,1436982011812,-17.935,-42.033,-3.775
91,1436982011834,-17.935,-42.033,-3.775
92,1436982011855,-17.935,-42.033,-3.775
93,1436982011872,-17.935,-42.033,-3.775
94,1436982011893,-17.935,-42.033,-3.775
95,1436982011913,-17.935,-42.033,-3.775
96,1436982011936,-17.935,-42.033,-3.775
97,1436982011956,-17.935,-42.033,-3.775
98,1436982011977,-17.935,-42.033,-3.775
99,1436982011994,-17.935,-42.033,-3.775
100,1436982012013,-17.935,-42.033,-3.775
101,1436982012032,-17.935,-42.033,-3.462
102,1436982012052,-17.935,-42.033,-3.462
103,1436982012074,-17.935,-42.033,-3.462
104,1436982012093,-17.935,-42.033,-3.462
105,1436982012159,-17.935,-42.033,-3.462
106,1436982012160,-17.935,-42.033,-3.462
107,1436982012161,-17.935,-42.033,-3.462
108,1436982012173,-17.935,-42.033,-3.462
109,1436982012196,-17.935,-42.033,-3.462
110,1436982012213,-17.935,-42.033,-3.462
111,1436982012232,-17.935,-42.033,-3.462
112,1436982012266,-17.935,-42.033,-3.462
113,1436982012274,-17.935,-42.033,-3.462
114,1436982012293,-17.935,-42.033,-3.462
115,1436982012313,-17.935,-42.033,-3.462
116,1436982012334,-17.935,-42.033,-3.462
117,1436982012355,-17.935,-42.033,-3.462
118,1436982012374,-17.935,-42.033,-3.462
119,1436982012394,-17.935,-42.033,-3.462
120,1436982012414,-17.935,-42.033,-3.462
121,1436982012432,-17.935,-42.033,-3.462
122,1436982012452,-17.935,-42.033,-3.462
123,1436982012473,-17.935,-42.033,-3.462
124,1436982012492,-17.935,-42.033,-3.462
125,1436982012514,-17.935,-42.033,-3.462
126,1436982012537,-17.935,-42.033,-3.462
127,1436982012553,-17.935,-42.033,-3.462
128,1436982012574,-17.935,-42.033,-3.462
129,1436982012599,-17.935,-42.033,-3.462
130,1436982012613,-17.935,-42.033,-3.462
131,1436982012633,-17.935,-42.033,-3.462
132,1436982012653,-17.935,-42.033,-3.462
133,1436982012679,-17.935,-42.033,-3.462
134,1436982012694,-17.935,-42.033,-3.462
135,1436982012716,-17.935,-42.033,-3.462
136,1436982012733,-17.935,-42.033,-3.462
137,1436982012763,-17.935,-42.033,-3.462
138,1436982012780,-17.935,-42.033,-3.462
139,1436982012793,-17.935,-42.033,-3.462
140,1436982012880,-17.935,-42.033,-3.462
141,1436982012881,-17.935,-42.033,-3.462
142,1436982012882,-17.935,-42.033,-3.462
143,1436982012883,-17.935,-42.033,-3.462
144,1436982013015,-17.935,-42.033,-3.462
145,1436982013016,-17.935,-42.033,-3.462
146,1436982013017,-17.935,-42.033,-3.462
147,1436982013018,-17.935,-42.033,-3.462
148,1436982013019,-17.935,-42.033,-3.462
149,1436982013020,-17.935,-42.033,-3.462
150,1436982013021,-17.935,-42.033,-3.462
151,1436982013136,-17.935,-42.033,-3.462
152,1436982013137,-17.935,-42.033,-3.462
153,1436982013138,-17.935,-42.033,-3.462
154,1436982013139,-17.935,-42.033,-3.462
155,1436982013140,-17.935,-42.033,-3.462
156,1436982013141,-17.935,-42.033,-3.462
157,1436982013156,-17.935,-42.033,-3.462
158,1436982013174,-17.935,-42.033,-3.462
159,1436982013193,-17.935,-42.033,-3.462
160,1436982013213,-17.935,-42.033,-3.462
161,1436982013233,-17.935,-42.033,-3.462
162,1436982013254,-17.935,-42.033,-3.462
163,1436982013274,-17.935,-42.033,-3.462
164,1436982013293,-17.935,-42.033,-3.462
165,1436982013313,-17.935,-42.033,-3.462
166,1436982013334,-17.935,-42.033,-3.16
167,1436982013354,-17.935,-42.033,-3.16
168,1436982013375,-17.935,-42.033,-3.16
169,1436982013394,-17.935,-42.033,-3.16
170,1436982013416,-17.935,-42.033,-3.16
171,1436982013434,-17.935,-42.033,-3.16
172,1436982013454,-17.935,-42.033,-3.16
173,1436982013474,-17.935,-42.033,-3.16
174,1436982013499,-17.935,-42.033,-3.16
175,1436982013514,-17.935,-42.35,-3.16
176,1436982013542,-17.935,-42.35,-3.16
177,1436982013554,-17.935,-42.35,-3.16
178,1436982013574,-17.935,-42.35,-3.16
179,1436982013602,-17.935,-42.35,-3.16
180,1436982013615,-17.935,-42.35,-3.16
181,1436982013651,-17.935,-42.35,-3.16
182,1436982013711,-17.935,-42.35,-3.16
183,1436982013714,-17.935,-42.35,-3.16
184,1436982013715,-17.935,-42.35,-3.16
185,1436982013716,-17.935,-42.35,-3.16
186,1436982013735,-17.935,-42.35,-3.16
187,1436982013754,-17.935,-42.35,-3.16
188,1436982013773,-17.935,-42.35,-3.16
189,1436982013794,-17.935,-42.35,-3.16
190,1436982013814,-17.935,-42.35,-3.16
191,1436982013837,-17.935,-42.35,-3.16
192,1436982013855,-17.935,-42.35,-3.16
193,1436982013875,-17.935,-42.35,-3.16
194,1436982013897,-17.935,-42.35,-3.16
195,1436982013917,-17.608,-42.35,-3.16
196,1436982013937,-17.608,-42.35,-3.16
197,1436982013957,-17.608,-42.35,-3.16
198,1436982013974,-17.608,-42.35,-3.16
199,1436982013997,-17.608,-42.35,-3.16
200,1436982014017,-17.608,-42.35,-3.16
201,1436982014037,-17.608,-42.35,-3.16
202,1436982014057,-17.608,-42.35,-3.16
203,1436982014075,-17.608,-42.35,-3.16
204,1436982014096,-17.608,-42.35,-3.16
205,1436982014117,-17.608,-42.35,-3.16
206,1436982014135,-17.295,-42.35,-3.16
207,1436982014157,-17.295,-42.35,-3.16
208,1436982014177,-17.295,-42.35,-3.495
209,1436982014196,-17.295,-42.35,-3.495
210,1436982014217,-17.295,-42.35,-3.495
211,1436982014237,-17.295,-42.35,-3.495
212,1436982014257,-17.295,-42.35,-3.495
213,1436982014275,-17.295,-42.35,-3.495
214,1436982014297,-17.295,-42.35,-3.495
215,1436982014316,-17.295,-42.35,-3.495
216,1436982014337,-17.295,-42.35,-3.495
217,1436982014364,-17.295,-42.35,-3.495
218,1436982014479,-17.295,-42.35,-3.495
219,1436982014480,-17.295,-42.35,-3.495
220,1436982014481,-17.295,-42.35,-3.495
221,1436982014482,-17.295,-42.35,-3.495
222,1436982014483,-17.295,-42.35,-3.495
223,1436982014484,-17.295,-42.35,-3.495
224,1436982014509,-17.295,-42.35,-3.495
225,1436982014515,-17.295,-42.35,-3.495
226,1436982014577,-17.295,-42.35,-3.495
227,1436982014578,-17.295,-42.35,-3.495
228,1436982014579,-17.295,-42.35,-3.495
229,1436982014596,-17.295,-42.35,-3.495
230,1436982014615,-17.295,-42.35,-3.495
231,1436982014637,-17.295,-42.35,-3.495
232,1436982014656,-17.295,-42.35,-3.495
233,1436982014676,-17.295,-42.35,-3.495
234,1436982014697,-17.295,-42.35,-3.495
235,1436982014717,-17.295,-42.35,-3.495
236,1436982014735,-17.295,-42.35,-3.495
237,1436982014757,-17.295,-42.35,-3.187
238,1436982014778,-17.295,-42.35,-3.187
239,1436982014796,-17.295,-42.35,-3.187
240,1436982014818,-17.295,-42.35,-3.187
241,1436982014841,-17.295,-42.35,-3.187
242,1436982014857,-17.295,-42.35,-3.187
243,1436982014880,-17.295,-42.35,-3.187
244,1436982014901,-17.295,-42.35,-3.187
245,1436982014917,-17.295,-42.35,-3.187
246,1436982014938,-17.295,-42.35,-3.187
247,1436982014955,-17.295,-42.35,-3.187
248,1436982014975,-17.295,-42.35,-3.187
249,1436982014995,-17.295,-42.35,-3.187
250,1436982015021,-17.295,-42.35,-3.187
251,1436982015037,-17.295,-42.35,-3.187
252,1436982015057,-17.295,-42.35,-3.187
253,1436982015076,-17.295,-42.35,-3.187
254,1436982015099,-17.295,-42.35,-3.187
255,1436982015169,-17.295,-42.35,-3.187
256,1436982015170,-17.295,-42.35,-3.187
257,1436982015171,-17.295,-42.35,-3.187
258,1436982015183,-17.295,-42.35,-3.187
259,1436982015197,-17.295,-42.35,-3.187
260,1436982015217,-17.295,-42.35,-3.187
261,1436982015235,-17.295,-42.35,-3.187
262,1436982015257,-17.295,-42.35,-3.187
263,1436982015292,-17.295,-42.35,-3.187
264,1436982015295,-17.295,-42.35,-2.885
265,1436982015317,-17.608,-42.35,-2.885
266,1436982015336,-17.608,-42.35,-2.885
267,1436982015357,-17.608,-42.35,-2.885
268,1436982015379,-17.608,-42.35,-2.885
269,1436982015397,-17.608,-42.35,-2.885
270,1436982015418,-17.608,-42.35,-2.555
271,1436982015436,-17.958,-42.35,-2.555
272,1436982015458,-17.958,-42.35,-2.555
273,1436982015479,-17.958,-42.35,-2.555
274,1436982015498,-17.958,-42.35,-2.239
275,1436982015519,-18.299,-42.35,-2.239
276,1436982015543,-18.299,-42.35,-2.239
277,1436982015566,-18.299,-42.35,-2.239
278,1436982015577,-18.299,-42.35,-2.239
279,1436982015599,-18.299,-42.35,-2.239
280,1436982015616,-18.299,-42.024,-2.239
281,1436982015639,-18.65,-42.024,-2.239
282,1436982015658,-18.65,-42.024,-2.239
283,1436982015678,-18.65,-42.024,-2.239
284,1436982015699,-18.65,-42.024,-2.239
285,1436982015719,-19.042,-42.024,-2.239
286,1436982015739,-19.042,-41.709,-1.896
287,1436982015759,-19.042,-41.709,-1.896
288,1436982015778,-19.389,-41.709,-1.896
289,1436982015797,-19.389,-41.709,-1.896
290,1436982015826,-19.389,-41.709,-1.594
291,1436982015837,-19.76,-41.352,-1.594
292,1436982015886,-19.76,-41.352,-1.594
293,1436982015887,-19.76,-41.352,-1.594
294,1436982015901,-19.76,-41.352,-1.594
295,1436982015916,-20.109,-41.001,-1.283
296,1436982015937,-20.109,-41.001,-1.283
297,1436982015957,-20.109,-41.001,-1.283
298,1436982015976,-20.413,-40.692,-0.976
299,1436982015998,-20.413,-40.692,-0.976
300,1436982016016,-20.413,-40.692,-0.665
301,1436982016040,-20.787,-40.692,-0.665
302,1436982016060,-20.787,-40.295,-0.665
303,1436982016077,-20.787,-40.295,-0.242
304,1436982016096,-21.153,-40.295,-0.242
305,1436982016120,-21.153,-39.933,-0.242
306,1436982016139,-21.153,-39.933,0.093
307,1436982016159,-21.53,-39.933,0.093
308,1436982016180,-21.53,-39.556,0.093
309,1436982016199,-21.53,-39.556,0.093
310,1436982016219,-21.977,-39.556,0.093
311,1436982016239,-22.402,-39.12,0.093
312,1436982016259,-23.251,-39.12,0.093
313,1436982016281,-23.875,-39.12,0.093
314,1436982016296,-24.414,-38.656,0.093
315,1436982016320,-25.317,-38.656,0.093
316,1436982016339,-25.317,-38.325,0.093
317,1436982016360,-26.301,-38.325,0.093
318,1436982016380,-27.215,-37.944,0.093
319,1436982016399,-27.215,-37.519,0.093
320,1436982016419,-28.134,-36.793,-0.378
321,1436982016439,-28.591,-36.299,-0.869
322,1436982016460,-29.637,-35.696,-1.321
323,1436982016480,-30.375,-34.928,-1.321
324,1436982016501,-31.117,-34.362,-1.737
325,1436982016521,-31.993,-33.283,-1.737
326,1436982016544,-32.714,-32.054,-2.124
327,1436982016659,-33.773,-30.583,-2.124
328,1436982016660,-34.944,-29.173,-2.6
329,1436982016661,-35.861,-27.952,-2.958
330,1436982016662,-37.13,-26.213,-3.692
331,1436982016663,-38.334,-24.551,-5.203
332,1436982016664,-39.428,-22.325,-7.174
333,1436982016679,-40.759,-19.638,-8.168
334,1436982016696,-41.981,-16.549,-9.208
335,1436982016719,-43.04,-12.403,-9.208
336,1436982016738,-44.262,-8.087,-8.268
337,1436982016764,-45.368,-5.599,-7.539
338,1436982016777,-45.368,-4.261,-7.539
339,1436982016800,-45.368,-3.793,-8.694
340,1436982016818,-45.368,-3.793,-9.599
341,1436982016842,-44.975,-4.646,-10.78
342,1436982016861,-44.415,-6.338,-11.837
343,1436982016879,-43.733,-9.68,-13.047
344,1436982016900,-42.42,-13.89,-13.047
345,1436982016920,-41.061,-18.176,-13.047
346,1436982016940,-39.225,-22.734,-11.956
347,1436982016961,-36.231,-27.244,-10.789
348,1436982016979,-32.629,-32.749,-9.748
349,1436982017000,-27.784,-36.607,-8.972
350,1436982017020,-23.086,-39.431,-7.923
351,1436982017038,-18.457,-41.932,-7.923
352,1436982017060,-15.577,-43.054,-7.246
353,1436982017080,-13.534,-43.486,-7.246
354,1436982017097,-13.534,-43.486,-7.246
355,1436982017117,-14.508,-43.486,-6.571
356,1436982017138,-16.523,-42.713,-6.253
357,1436982017162,-19.32,-41.474,-5.895
358,1436982017182,-23.463,-39.312,-5.519
359,1436982017203,-25.671,-37.944,-5.519
360,1436982017220,-27.957,-36.389,-5.122
361,1436982017237,-29.866,-34.906,-5.642
362,1436982017258,-31.642,-33.448,-5.119
363,1436982017280,-32.865,-32.556,-5.552
364,1436982017299,-33.871,-31.501,-5.552
365,1436982017318,-34.272,-29.891,-6.3
366,1436982017389,-34.814,-29.142,-6.607
367,1436982017390,-35.574,-28.427,-6.607
368,1436982017391,-35.969,-27.899,-6.06
369,1436982017398,-36.375,-27.899,-6.06
370,1436982017420,-36.953,-26.873,-6.06
371,1436982017440,-36.953,-26.873,-6.06
372,1436982017457,-36.587,-26.402,-10.098
373,1436982017610,-36.587,-25.401,-13.357
374,1436982017613,-38.069,-23.327,-14.707
375,1436982017614,-40.759,-19.439,-13.623
376,1436982017615,-42.367,-15.647,-12.638
377,1436982017617,-43.296,-11.459,-12.948
378,1436982017618,-43.672,-7.939,-15.675
379,1436982017619,-43.078,-5.502,-19.673
380,1436982017620,-42.736,-3.248,-21.092
381,1436982017640,-43.048,-1.542,-21.092
382,1436982017657,-43.55,-0.781,-19.113
383,1436982017680,-44.033,-0.781,-18.231
384,1436982017700,-44.033,-3.186,-18.231
385,1436982017721,-43.331,-7.15,-17.543
386,1436982017741,-42.301,-12.149,-17.543
387,1436982017761,-40.808,-18.104,-16.314
388,1436982017781,-38.252,-24.192,-15.412
389,1436982017800,-34.092,-31.024,-14.028
390,1436982017819,-28.402,-36.779,-13.177
391,1436982017838,-22.206,-40.724,-11.236
392,1436982017861,-16.304,-43.399,-9.573
393,1436982017900,-10.949,-45.086,-9.092
394,1436982017901,-7.45,-45.086,-7.939
395,1436982017935,-7.45,-45.718,-6.964
396,1436982017937,-8.209,-45.394,-6.593
397,1436982017960,-11.424,-44.866,-6.08
398,1436982017981,-14.242,-43.917,-6.08
399,1436982018000,-19.232,-42.666,-6.08
400,1436982018018,-23.429,-39.637,-4.629
401,1436982018040,-26.602,-37.725,-4.263
402,1436982018059,-29.113,-36.058,-5.206
403,1436982018080,-31.285,-34.01,-5.206
404,1436982018099,-32.716,-32.809,-5.842
405,1436982018171,-34.051,-31.933,-6.298
406,1436982018172,-34.77,-30.47,-6.958
407,1436982018173,-35.505,-29.339,-7.658
408,1436982018180,-36.062,-28.749,-7.658
409,1436982018199,-36.625,-27.882,-7.244
410,1436982018218,-36.625,-26.959,-7.244
411,1436982018239,-37.358,-26.959,-7.789
412,1436982018261,-36.828,-26.387,-10.964
413,1436982018289,-37.342,-25.468,-14.283
414,1436982018300,-38.824,-22.796,-15.551
415,1436982018320,-41.639,-17.686,-15.551
416,1436982018340,-43.098,-13.449,-14.772
417,1436982018362,-44.468,-9.466,-14.772
418,1436982018379,-44.468,-6.358,-16.548
419,1436982018401,-44.029,-3.614,-18.847
420,1436982018422,-44.029,-1.519,-18.847
421,1436982018441,-44.575,0.239,-17.993
422,1436982018461,-44.575,0.743,-17.323
423,1436982018481,-44.879,-0.611,-16.674
424,1436982018501,-44.483,-3.878,-17.338
425,1436982018521,-44.14,-8.729,-17.338
426,1436982018541,-43.037,-15.205,-16.224
427,1436982018561,-40.467,-21.493,-15.792
428,1436982018583,-36.759,-28.338,-14.5
429,1436982018602,-31.396,-35.157,-13.438
430,1436982018620,-24.65,-40.13,-12.11
431,1436982018640,-17.95,-43.774,-9.449
432,1436982018661,-11.756,-45.55,-7.521
433,1436982018680,-6.895,-46.572,-6.466
434,1436982018701,-5.307,-46.572,-6.074
435,1436982018721,-5.952,-46.572,-5.506
436,1436982018739,-8.86,-45.86,-5.091
437,1436982018759,-12.179,-45.132,-4.768
438,1436982018782,-16.995,-44.16,-4.768
439,1436982018800,-23.289,-40.904,-4.768
440,1436982018828,-26.541,-38.711,-3.84
441,1436982018882,-29.62,-36.584,-4.249
442,1436982018883,-31.742,-34.49,-6.283
443,1436982018884,-33.668,-33.409,-6.283
444,1436982018899,-35.081,-32.133,-6.283
445,1436982018919,-35.646,-31.221,-7.704
446,1436982018939,-36.561,-29.896,-7.704
447,1436982018959,-37.304,-29.04,-7.704
448,1436982018984,-37.777,-28.187,-8.071
449,1436982019000,-37.777,-27.517,-9.458
450,1436982019020,-37.207,-27.867,-12.222
451,1436982019039,-37.207,-26.467,-14.389
452,1436982019060,-41.011,-21.392,-13.293
453,1436982019082,-42.933,-17.951,-12.788
454,1436982019100,-44.412,-13.705,-11.958
455,1436982019122,-44.909,-10.612,-14.376
456,1436982019142,-44.909,-7.469,-17.807
457,1436982019162,-44.342,-4.931,-20.365
458,1436982019182,-43.832,-2.409,-21.875
459,1436982019202,-43.832,-1.107,-21.875
460,1436982019222,-44.258,-0.726,-20.88
461,1436982019242,-44.258,-2.293,-20.028
462,1436982019262,-44.258,-5.813,-18.832
463,1436982019283,-44.258,-10.984,-16.828
464,1436982019299,-41.96,-16.72,-16.418
465,1436982019322,-39.295,-23.097,-15.892
466,1436982019342,-35.011,-30.398,-14.666
467,1436982019364,-28.492,-36.294,-13.957
468,1436982019382,-21.032,-40.736,-13.037
469,1436982019401,-14.212,-43.893,-10.025
470,1436982019422,-7.733,-45.356,-8.518
471,1436982019441,-3.268,-46.005,-7.615
472,1436982019461,-1.377,-45.574,-6.845
473,1436982019483,-2.334,-45.939,-6.297
474,1436982019503,-5.657,-45.205,-6.297
475,1436982019524,-11.268,-44.677,-5.905
476,1436982019544,-17.338,-42.266,-7.26
477,1436982019663,-22.668,-40.071,-5.938
478,1436982019664,-26.135,-37.773,-5.938
479,1436982019665,-28.924,-35.327,-7.16
480,1436982019666,-31.227,-33.567,-7.644
481,1436982019667,-32.469,-32.25,-8.673
482,1436982019668,-33.584,-30.775,-8.673
483,1436982019682,-34.71,-29.423,-9.516
484,1436982019704,-35.353,-28.475,-9.516
485,1436982019719,-35.353,-27.172,-10.398
486,1436982019749,-36.001,-26.855,-10.398
487,1436982019760,-36.001,-26.855,-12.524
488,1436982019780,-36.001,-26.469,-15.063
489,1436982019806,-37.048,-24.745,-15.863
490,1436982019821,-39.875,-19.435,-15.075
491,1436982019842,-41.691,-15.994,-14.164
492,1436982019862,-42.924,-12.29,-14.836
493,1436982019883,-42.924,-8.973,-17.617
494,1436982019903,-42.06,-5.999,-21.716
495,1436982019923,-42.06,-2.787,-24.197
