id,attr_time,attr_db
1,1436892348593,16.9249757698813
2,1436892349334,41.1951225524239
3,1436892350047,37.1766209332739
4,1436892350694,28.0214903047004
5,1436892351488,29.7553018230918
6,1436892352203,33.1289063413269
7,1436892352939,19.5069393958387
8,1436892354977,20.2857128466617
9,1436892355679,26.8993939660102
10,1436892356415,42.7918677397347
11,1436892357128,26.6438718985372
12,1436892357856,40.6798825755174
13,1436892358603,49.6951516487206
14,1436892359333,44.3943078760451
15,1436892360025,46.8390992380732
16,1436892360750,48.6844701403695
17,1436892361534,32.7137223416147
18,1436892362253,42.0605252286246
19,1436892363778,45.9184320041242
20,1436892364434,41.6249351701063
21,1436892365165,47.1693697636449
22,1436892365950,41.5641419286447
23,1436892366667,38.8526870251826
24,1436892367419,41.0511265222862
25,1436892368034,46.5091195114982
26,1436892368734,40.4192003029123
27,1436892369471,41.6330859017042
28,1436892370200,41.6615785116344
29,1436892370861,46.36612189045
30,1436892371579,40.7640640431151
31,1436892372305,48.2174508080187
32,1436892373034,30.7444011358299
33,1436892373790,39.9765843239006
34,1436892374507,52.1701672575086
35,1436892375245,32.1746015645128
36,1436892376067,30.9718865841809
37,1436892376794,54.126344877627
38,1436892377501,34.5923224299036
39,1436892378244,37.9096639832135
40,1436892378975,43.0470783844489
41,1436892379702,42.3363996648147
42,1436892380450,39.1577336155903
43,1436892381094,45.1188279583865
44,1436892381844,38.5007417997536
45,1436892382597,54.6188078369868
46,1436892383381,41.7834648578088
47,1436892384091,37.3684132616957
48,1436892384875,46.6357910830198
49,1436892385630,41.6243134817051
50,1436892386350,40.2974163069848
51,1436892387123,55.1903493825553
52,1436892387850,43.9167544872829
53,1436892388575,38.7895183353148
54,1436892389301,49.7354913777736
55,1436892390017,45.3251861499614
56,1436892390744,42.442629152593
57,1436892391390,40.2374483399572
58,1436892392066,47.8765866994716
59,1436892392840,40.6892106251855
60,1436892393559,47.851988740481
61,1436892394295,45.3251594540789
62,1436892395023,47.2414722418397
63,1436892395707,42.7020919146809
64,1436892396375,45.5952296243581
65,1436892397154,52.4154799027287
66,1436892397885,38.7309369057377
67,1436892398626,44.8002057869182
68,1436892399369,45.4183810431283
69,1436892400093,55.3509001083114
70,1436892400800,49.8184490882395
71,1436892401455,55.9524736528782
72,1436892402315,49.3968323730123
73,1436892403027,39.427499600783
74,1436892403777,43.6629501609393
75,1436892404488,41.3248742388548
76,1436892405182,39.4019225890388
77,1436892405921,42.8023910454946
78,1436892406672,42.0805058922088
79,1436892407409,59.9052085234449
80,1436892408134,43.4999708948381
81,1436892408856,45.6392040321256
82,1436892409593,46.6542151574456
83,1436892410340,40.5406222678554
84,1436892411056,47.9655740543105
85,1436892411758,35.9069505558239
86,1436892412488,48.8290791701685
87,1436892413236,46.6570992580265
88,1436892413976,48.9289451376845
89,1436892414711,48.6256032640686
90,1436892415431,43.6494317499801
91,1436892416174,44.3301823600788
92,1436892416936,46.9411886678949
93,1436892417646,50.3434333351133
94,1436892418378,56.7877613517169
95,1436892419040,47.4083060509641
96,1436892419719,45.1021377746156
97,1436892420454,44.8905022396846
98,1436892421137,43.4299916098405
99,1436892421746,45.1548554071624
100,1436892422478,62.2053388742246
101,1436892423239,57.6431647651026
102,1436892423970,52.6651718001886
103,1436892424708,55.3568547258756
104,1436892425435,37.6359929717515
105,1436892426191,46.237327633768
106,1436892426940,43.3912670360192
107,1436892427665,58.0345039874183
108,1436892428277,60.0662290041443
109,1436892428945,52.837580895496
110,1436892429691,57.1532403270402
111,1436892430433,43.0024983229254
112,1436892431161,34.8877403427074
113,1436892431873,45.7112168401713
114,1436892432535,55.1063099914563
115,1436892433300,55.1721678768688
116,1436892434028,39.430570811479
117,1436892434762,42.7287441886693
118,1436892435479,45.0284613407728
119,1436892436224,61.1726012562494
120,1436892436968,60.5484961902592
121,1436892437619,55.3362473075722
122,1436892438347,46.1061360987649
123,1436892439093,47.6911580288911
124,1436892439816,57.8711711898588
125,1436892440544,53.2652976671955
126,1436892441267,45.6443554151264
127,1436892441949,47.8510404633411
128,1436892442628,56.8595706355568
129,1436892443442,44.3097780150929
130,1436892444186,51.6092177122951
131,1436892444931,45.6527008539038
132,1436892445661,45.4805496982873
133,1436892446371,34.5391532086583
134,1436892447091,59.2552152238892
135,1436892447842,50.1319945508379
136,1436892448593,42.2737050890157
137,1436892449302,53.4490595156053
138,1436892450043,62.0152692651295
139,1436892450793,46.6925678403305
140,1436892451500,56.0629971055032
141,1436892452111,59.2052851177064
142,1436892452725,45.5218085817877
143,1436892453373,47.4566848375574
144,1436892454144,47.5044857089776
145,1436892454892,48.4411612247764
146,1436892455604,54.5250355636762
147,1436892456352,43.1706067189855
148,1436892457082,37.3689317034695
149,1436892457781,46.9065123236087
150,1436892458458,65.1176937658984
151,1436892459188,67.0141106297644
152,1436892459897,44.9202913875449
153,1436892460622,59.6853601989562
154,1436892461365,54.5115659126486
155,1436892462094,41.949084373181
156,1436892462820,49.7617191492343
157,1436892463573,45.498910978339
158,1436892464302,61.1733210648609
159,1436892465040,46.1816417264665
160,1436892465823,41.3712780965785
161,1436892466564,58.4102067285994
162,1436892467340,44.4945922975903
163,1436892468073,44.1179959473754
164,1436892468847,54.7136881103005
165,1436892469577,49.5212335745769
166,1436892470281,56.2709549110667
167,1436892471025,54.338614560623
168,1436892471702,49.558221573828
169,1436892472410,58.3830356376281
170,1436892473165,49.0241345126262
171,1436892473890,46.6992755446338
172,1436892474603,52.4767745616193
173,1436892475331,51.1035155207989
174,1436892476047,48.0438087330025
175,1436892476910,48.5279540195096
176,1436892477651,56.5394981731735
177,1436892478364,50.701264463511
178,1436892479068,53.3019356409593
179,1436892479750,42.6209719573188
180,1436892480486,50.3104044177376
181,1436892481224,48.9436386029098
182,1436892482026,53.8558740770395
183,1436892482809,55.4513364263957
184,1436892483538,44.2033355285309
185,1436892484202,44.6462593952322
186,1436892484918,43.5752275581143
187,1436892485642,43.546722222771
188,1436892486317,45.8431081672038
189,1436892487046,63.8800615095655
190,1436892487805,46.08996371398
191,1436892488610,43.9427802569165
192,1436892489376,55.9128128585724
193,1436892490001,40.8520315655374
194,1436892490712,53.306660136277
195,1436892491458,45.038717019237
196,1436892492198,56.931255897141
197,1436892492923,44.4855759279575
198,1436892493657,45.0184081970096
199,1436892494317,40.8026777696009
200,1436892495037,47.7574614712141
201,1436892495771,45.4850634775198
202,1436892496489,51.2418856101175
203,1436892497228,48.9488350719536
204,1436892498004,52.7053051751639
205,1436892498702,47.1686258159769
206,1436892499352,43.3791782785089
207,1436892500081,54.9675272986857
208,1436892500811,36.2340840823856
209,1436892501559,38.2319830179057
210,1436892502288,41.5002304537315
211,1436892503030,45.061890448318
212,1436892503755,51.8882645267393
213,1436892504404,51.7538421921758
214,1436892505142,42.3139289545683
215,1436892505897,41.7337278657378
216,1436892506645,47.5415347774456
217,1436892507381,45.2938526026663
218,1436892508103,53.1704332442414
219,1436892508865,47.6430302857218
220,1436892509574,47.7745792388197
221,1436892510302,51.2488934586183
222,1436892511034,39.2975323770283
223,1436892511792,53.9704013666629
224,1436892512527,51.918448464015
225,1436892513238,45.9422510418556
226,1436892513913,54.982109829477
227,1436892514644,44.0560336482171
228,1436892515345,44.9026346325496
229,1436892516089,49.2970338805182
230,1436892516852,53.1218783700932
231,1436892517647,53.6820730540489
232,1436892518372,46.1575049555522
233,1436892519103,55.2074233801412
234,1436892519872,50.1312540921393
235,1436892520586,48.9258085373237
236,1436892521306,58.2123746299348
237,1436892521998,47.4063554204974
238,1436892522615,45.2240766649123
239,1436892523340,43.5099300657332
240,1436892524086,50.1414675158772
241,1436892524812,37.807549597779
242,1436892525498,48.6417319554602
243,1436892526242,52.2290580439873
244,1436892526969,53.0093288312788
245,1436892527792,69.0978445726892
246,1436892528472,60.1277353859392
247,1436892529125,47.5810395976547
248,1436892529846,54.1132390297631
249,1436892530554,59.6495145954714
250,1436892531276,55.310865588077
251,1436892531989,68.1626217508015
252,1436892533697,44.8426252553357
253,1436892534395,52.0714800802937
254,1436892535133,47.0408827945764
255,1436892535856,49.0270981381803
256,1436892536581,45.5298630140043
257,1436892537296,37.398397323321
258,1436892538019,48.466233767307
259,1436892538712,51.1537759273511
260,1436892539370,55.6884504439919
261,1436892540153,48.9720398883649
262,1436892540915,55.3073068908335
263,1436892541620,47.7046555570326
264,1436892542352,44.800932342352
265,1436892543069,43.5364262879102
266,1436892543839,48.8420401187567
267,1436892544502,58.2730462031445
268,1436892545233,65.1264345684283
269,1436892545952,48.016113207431
270,1436892547949,59.7427409627425
271,1436892548643,44.3513395756642
272,1436892549305,47.2362440320609
273,1436892550057,57.0378417500782
274,1436892550689,58.0592646943307
275,1436892551344,55.8321612389148
276,1436892552042,50.8250933438392
277,1436892552873,45.2323788381124
278,1436892553558,58.1436829388034
279,1436892554232,49.1690114620093
280,1436892554854,44.5258273155475
281,1436892555555,59.7272785839194
282,1436892556280,44.2747495689156
283,1436892557020,52.5149540388699
284,1436892557817,43.8819330012323
285,1436892558537,51.6250405310526
286,1436892559242,44.796897400352
287,1436892559890,55.6485556284432
288,1436892560600,48.7596512253188
289,1436892561345,50.0140604584432
290,1436892562074,48.3076424991794
291,1436892562892,46.3843152114128
292,1436892563639,47.4453895046912
293,1436892564323,46.5673621670494
294,1436892565064,53.8617005581422
295,1436892565795,47.5325378186334
296,1436892566535,49.7231442831042
297,1436892567293,48.7955758864963
298,1436892568025,52.1661307934315
299,1436892568759,47.1272167811315
300,1436892569464,60.3864015705662
301,1436892570706,45.2079502627381
302,1436892571365,48.463534032042
303,1436892572059,48.932662353026
304,1436892572843,47.9172675627034
305,1436892573576,69.9127074796802
306,1436892574299,47.0882030693861
307,1436892575021,42.5036934064329
308,1436892575745,42.5852516274778
309,1436892576490,53.5834998583088
310,1436892577293,58.0574693050846
311,1436892578040,54.9709490911793
312,1436892578775,57.6842802894143
313,1436892579500,50.5077798131604
314,1436892580129,58.814563087236
315,1436892580842,49.2643909327223
316,1436892581592,41.5579740905149
317,1436892582383,59.3369030328099
318,1436892584071,52.3921264848028
319,1436892584785,57.9190712334563
320,1436892585577,58.7952926016759
321,1436892586302,41.6842242713001
322,1436892587072,43.9192985700657
323,1436892587813,54.9397855321462
324,1436892588533,57.0700350160847
325,1436892589280,48.8690676672552
326,1436892589958,55.5302921426098
327,1436892590616,39.2163167915213
328,1436892591335,47.9486889258017
329,1436892592072,46.6683191793798
330,1436892592849,44.7486800807464
331,1436892593572,50.5379478031273
332,1436892594324,41.5558614785731
333,1436892595073,50.013993615164
334,1436892595790,40.5408040791779
335,1436892596521,45.9003835424845
336,1436892597263,54.2397360729337
337,1436892598048,65.0749389855412
338,1436892598778,49.0051085103672
339,1436892599470,53.4064544089227
340,1436892600105,56.3848227530341
341,1436892600839,60.1451567530322
342,1436892601564,36.0003672844176
343,1436892602277,45.7607363022166
344,1436892603076,51.4440862033954
345,1436892603851,50.7103314972429
346,1436892604579,46.358483923256
347,1436892605303,54.3289100034432
348,1436892606018,42.4374722054852
349,1436892606679,46.1225141927052
350,1436892607462,44.7474097371343
351,1436892608191,41.2404331922007
352,1436892608968,34.0461610309789
353,1436892609627,46.7716543400907
354,1436892610302,41.5665967846766
355,1436892610963,41.1947965280913
356,1436892611699,31.1447506865002
357,1436892612377,44.7568373800938
358,1436892613192,47.2319619301254
359,1436892614024,44.8585319262791
360,1436892614621,49.442517313948
361,1436892615287,50.0237190320219
362,1436892616019,47.4179955131697
363,1436892616741,50.4717282768845
364,1436892617546,39.8403985234031
365,1436892618266,44.4128219647711
366,1436892619008,41.6027314878272
367,1436892619746,43.656451126151
368,1436892620507,43.8996086430966
369,1436892621240,51.5898791242676
370,1436892621971,37.4070565314244
371,1436892622721,44.3968495147899
372,1436892623430,46.5395053369311
373,1436892624152,40.5034015731468
374,1436892624892,40.427195646805
375,1436892625610,46.639872340272
376,1436892626327,42.9936086254611
377,1436892627046,49.4049204050336
378,1436892627783,45.635327491736
379,1436892628504,44.7711418748767
380,1436892629241,33.4158252348407
381,1436892629983,42.2851762047375
382,1436892630707,44.1206466317461
383,1436892631364,48.3629787895008
384,1436892632081,55.9889687696278
385,1436892632850,53.5443377901432
386,1436892633582,50.5508053206333
387,1436892634327,34.5406483891502
388,1436892635044,47.0669579613642
389,1436892635738,36.673081931534
390,1436892636411,59.7523381909759
391,1436892637142,49.2676439262178
392,1436892637851,46.6321714268777
393,1436892638576,54.1373772061737
394,1436892639301,33.4915714933994
395,1436892640035,40.8142008943645
396,1436892640776,42.2534999722501
397,1436892641434,47.527788970462
398,1436892642127,44.5278943664803
399,1436892642899,49.0739288000555
400,1436892643621,46.1055873296351
401,1436892644350,50.1145149614569
402,1436892645069,40.81965228711
403,1436892645861,42.3182926841178
404,1436892646536,41.4030607568946
405,1436892647236,47.2663834639519
406,1436892647982,42.5993122539074
407,1436892648651,41.2707002058145
408,1436892649370,60.0060688420147
409,1436892650096,46.5244793616519
410,1436892650776,48.6986798806604
411,1436892651398,58.8736911240281
412,1436892652082,67.880880195054
413,1436892652850,47.0091753404629
414,1436892653575,48.4491115808678
415,1436892654311,51.2109538286102
416,1436892655040,47.5826129091863
417,1436892655799,44.7242206288309
418,1436892656520,47.2118083028876
419,1436892657259,57.4766579090348
420,1436892657978,44.4747416471141
421,1436892658703,43.9892295435294
422,1436892659419,48.5025916657412
423,1436892660174,55.3326522848676
424,1436892660908,49.1804025788953
425,1436892661654,53.0859361193429
426,1436892662358,43.6528525746012
427,1436892663149,50.7261452021689
428,1436892663910,69.5306608810686
429,1436892664624,61.8980823982997
430,1436892665406,44.6313319890208
431,1436892666141,30.7160754087178
432,1436892666893,40.4889195874754
433,1436892667641,44.8481314231007
434,1436892668425,56.1663408708339
435,1436892669170,59.2337727069016
436,1436892669913,51.2967811654763
437,1436892670622,49.5118290563675
438,1436892671287,45.2026234888408
439,1436892671947,47.9509317988552
440,1436892672532,44.1842623959871
441,1436892673215,39.1566403321981
442,1436892673950,58.0636003506209
443,1436892674674,38.6303295539718
444,1436892675386,43.5308898046909
445,1436892676124,42.034942439743
446,1436892676942,35.4832692461147
447,1436892677641,46.9341857844531
448,1436892678448,41.664909589546
449,1436892679185,51.1642519981519
450,1436892679923,50.5765958608906
451,1436892680647,45.3131722006021
452,1436892681392,53.4430876068775
453,1436892682104,42.3438379311372
454,1436892682804,48.6876869312499
455,1436892683464,43.860026309697
456,1436892684227,33.6662783477234
457,1436892684954,44.3652159972494
458,1436892685672,43.5338649112521
459,1436892686412,43.623919525769
460,1436892687152,55.5222585636421
461,1436892687897,53.5539736759339
462,1436892688631,44.9936714050556
463,1436892689390,38.9998840514661
464,1436892690168,54.1872497188546
465,1436892690899,47.6814528379904
466,1436892691621,63.781818942399
467,1436892692351,59.5479968328557
468,1436892693051,49.3699073645614
469,1436892693704,37.6444910301599
470,1436892694390,64.4030290035601
471,1436892695149,68.1534708869315
472,1436892695820,53.0817812424621
473,1436892696525,65.6581362214517
474,1436892697266,48.806231032998
475,1436892698001,42.9879939649593
476,1436892698701,58.940764946226
477,1436892699422,71.919447218816
478,1436892700135,44.7561972560715
479,1436892700889,69.8215220471506
480,1436892701632,65.521644210006
481,1436892702376,32.9658955681063
482,1436892703085,70.45828974199
483,1436892703757,58.8240362282294
484,1436892704473,60.546540913603
485,1436892705210,60.4837462538514
486,1436892705943,35.6878805539314
487,1436892706657,47.4613411133984
488,1436892707396,38.3900910698904
489,1436892708205,38.7176703867333
490,1436892708956,31.4663348523269
491,1436892709632,37.3537289509461
492,1436892710359,48.4562708978472
493,1436892711113,36.8310788307961
494,1436892711830,66.2682254979752
495,1436892712547,42.8848041160028
496,1436892713259,65.8827220067219
497,1436892713915,65.663373762765
498,1436892714643,69.479695536132
499,1436892715365,38.6646723500681
500,1436892716090,51.7079152075499
501,1436892716847,51.1553254696725
502,1436892717589,47.559501891254
503,1436892718246,38.6986110988484
504,1436892718989,48.042043160691
505,1436892719739,48.6679732870585
506,1436892720461,37.8474196250019
507,1436892721170,42.9722866216276
508,1436892721886,46.19221381418
509,1436892722663,70.728872159862
510,1436892723350,50.7110145275906
511,1436892724005,59.7920688161902
512,1436892724690,53.6446712679696
513,1436892725411,54.9309361495825
514,1436892726151,42.3501853887359
515,1436892726919,65.2053887451777
516,1436892727740,69.2567126160087
517,1436892728465,61.7668452442471
518,1436892729188,67.1399411220977
519,1436892729944,70.1753923266093
520,1436892730612,35.8505110275213
521,1436892731332,67.0258810915962
522,1436892732139,70.6687432152895
523,1436892733036,71.8758301729208
524,1436892733663,60.8796213374002
525,1436892734396,39.6942833966302
526,1436892735177,53.4072160021475
527,1436892735926,44.6848065782512
528,1436892736622,40.8828268198386
529,1436892738038,62.479443330469
530,1436892738814,58.1793833572877
531,1436892739542,47.122962266603
532,1436892740259,49.7760978956715
533,1436892740943,52.8055693126505
534,1436892741680,63.7110215965242
535,1436892742423,47.7784839228087
536,1436892743158,57.9315658184477
537,1436892743914,48.2625581158096
538,1436892744603,47.9801293096134
539,1436892745335,44.6103078548673
540,1436892746072,48.7419366029448
541,1436892746851,67.1401553474154
542,1436892747566,60.8500294799108
543,1436892748223,69.5745670073688
544,1436892748956,47.8617214589712
545,1436892749674,39.3582401410373
546,1436892750409,41.0546255317209
547,1436892751146,44.7067417900346
548,1436892751823,48.2865441917239
549,1436892752498,43.8725867781666
550,1436892753173,53.9015616509827
551,1436892753741,49.1869670367644
552,1436892754322,63.2291178487695
553,1436892756059,46.5463230286362
554,1436892756788,46.633806410639
555,1436892757476,54.1137617922069
556,1436892758205,41.5116940245062
557,1436892758970,44.8183880610517
558,1436892759713,31.2691104943847
559,1436892760428,42.8882271392201
560,1436892761173,53.4260371672742
561,1436892761942,34.1221586481884
562,1436892762725,33.5088951082184
563,1436892763442,61.5128529615949
564,1436892764154,51.4107607110281
565,1436892764852,39.0166972189921
566,1436892765510,41.649865065968
567,1436892766247,42.1199626571476
568,1436892766975,43.9790234043505
569,1436892767702,45.3841407113144
570,1436892768396,58.7266631428735
571,1436892769130,49.1846283744145
572,1436892769861,44.0437090534777
573,1436892770581,33.5937501867892
574,1436892771333,47.6764536555424
575,1436892772058,45.9093194498709
