id,attr_time,attr_db
1,1436892348558,29.3241307542548
2,1436892349284,35.1629153779749
3,1436892350013,47.0899822132498
4,1436892350744,34.783606225344
5,1436892351477,27.8310526114604
6,1436892352198,30.8658369106903
7,1436892352921,25.5931489023397
8,1436892353653,24.7141828411168
9,1436892354436,25.1712573084226
10,1436892355148,32.6526931721707
11,1436892355866,28.6653898260345
12,1436892356585,26.5775088596881
13,1436892357337,24.6075214727152
14,1436892357986,54.0125997564529
15,1436892358686,56.360402758627
16,1436892359441,64.7039851210908
17,1436892360169,64.96168922829
18,1436892360872,71.0400242947054
19,1436892361611,69.4044813636202
20,1436892362328,61.9677584983006
21,1436892363011,68.7237131120277
22,1436892363691,62.2012634396919
23,1436892364425,69.7852033102771
24,1436892365165,69.9295066785556
25,1436892365903,63.8904524422943
26,1436892366640,70.984837086519
27,1436892367305,69.8369380108587
28,1436892367974,67.2231219138895
29,1436892368795,70.4180316817628
30,1436892369525,66.732313616594
31,1436892370254,64.1471683031243
32,1436892370988,72.1431300858718
33,1436892371669,72.3114228636149
34,1436892372410,65.7798742348719
35,1436892373134,71.8833058319365
36,1436892373908,71.285216699698
37,1436892374536,63.9577962785137
38,1436892375218,69.1251763987736
39,1436892375944,63.7404475587612
40,1436892376678,68.9298625208426
41,1436892377374,66.5061131152883
42,1436892378074,66.2789442261215
43,1436892378825,67.4909179570679
44,1436892379538,71.3294466551812
45,1436892380249,65.5431743017422
46,1436892380978,62.5501099117084
47,1436892381719,73.5803269406903
48,1436892382473,65.2890202458854
49,1436892383209,66.2821899367895
50,1436892383945,68.2805404641473
51,1436892384700,68.6994189348621
52,1436892385441,69.1536820645759
53,1436892386162,62.7420483791765
54,1436892386908,69.3183590131929
55,1436892387679,69.2220171225088
56,1436892388433,58.5605926421921
57,1436892389159,68.6794859935548
58,1436892389898,70.1937626764197
59,1436892390621,68.045891619824
60,1436892391372,66.7283709438242
61,1436892392098,72.5708195838576
62,1436892392758,68.923814770637
63,1436892393449,67.2485446836329
64,1436892394223,64.8515332051817
65,1436892394954,68.8431635406057
66,1436892395689,71.4405212406357
67,1436892396413,63.7092290561773
68,1436892397142,68.1371060765854
69,1436892397850,65.0006703461652
70,1436892398510,70.3200623878344
71,1436892399219,71.1920869107635
72,1436892399945,65.4141126952725
73,1436892400665,66.9785782826956
74,1436892401411,62.7404079765144
75,1436892402134,69.9553185792315
76,1436892402881,68.3658647925277
77,1436892403574,62.8193489653059
78,1436892404331,62.8580355882588
79,1436892405107,65.7141652913971
80,1436892405849,68.3293142647496
81,1436892406559,67.9386348025767
82,1436892407284,63.0445722384113
83,1436892408011,68.2599897169328
84,1436892408770,71.7995158449448
85,1436892409439,70.1725800175994
86,1436892410180,69.7048710150341
87,1436892410927,64.6329333787891
88,1436892411645,69.0918449162595
89,1436892412359,72.2228110839215
90,1436892413044,71.4141686248329
91,1436892413786,65.6409872707938
92,1436892414520,66.3689812079876
93,1436892415275,70.3930416432982
94,1436892415969,67.4469023959631
95,1436892416652,70.3132578863896
96,1436892417321,69.3992571992771
97,1436892418743,68.0928471211116
98,1436892419391,63.3040380414614
99,1436892420120,70.131690642753
100,1436892420855,65.443895225321
101,1436892421586,67.3010240242421
102,1436892422333,71.092958606663
103,1436892423084,66.5593874903238
104,1436892423835,63.7361984519114
105,1436892424597,61.3149135049637
106,1436892425275,60.4826590484827
107,1436892426021,69.2058759383696
108,1436892426762,71.3585470502056
109,1436892427458,72.0610925325926
110,1436892429295,70.8434419928101
111,1436892429960,70.2875036734821
112,1436892430704,58.5264414593133
113,1436892431460,64.4076461904862
114,1436892432194,64.4157192427903
115,1436892432912,66.5533559715632
116,1436892433677,69.7784099986449
117,1436892434291,69.8117638972238
118,1436892434978,68.7779012968948
119,1436892435746,68.2993522959148
120,1436892436413,71.5779400995399
121,1436892437111,61.3073224001912
122,1436892437832,68.2365172163505
123,1436892438567,72.6387188909805
124,1436892439308,66.8784945262131
125,1436892439964,66.6247409978509
126,1436892440702,65.0885657673282
127,1436892441452,71.0116729563551
128,1436892442153,71.1086924693397
129,1436892444126,56.9117211789886
130,1436892444803,66.0464587691793
131,1436892445539,62.2712315065831
132,1436892446245,71.0874705321608
133,1436892446976,71.0512551818729
134,1436892447686,66.4223754629317
135,1436892448420,68.3027898662394
136,1436892449113,63.9258799487553
137,1436892449784,72.765871901088
138,1436892450525,72.12340059556
139,1436892451191,68.5968061829775
140,1436892452810,72.4364707763695
141,1436892453483,69.3602709747902
142,1436892454214,68.4544131801361
143,1436892454966,60.8119049380944
144,1436892455695,70.1461152688504
145,1436892456406,69.6473733075091
146,1436892457133,61.3775063003529
147,1436892457842,61.4196645077539
148,1436892458572,66.3323188027367
149,1436892459317,66.2676720886324
150,1436892459973,72.3987604042616
151,1436892460702,66.5215283419601
152,1436892461444,67.9982328030731
153,1436892462168,74.0202229006705
154,1436892462890,68.6856667672904
155,1436892463659,72.0995871474659
156,1436892464499,68.7439927256261
157,1436892465165,70.4928551830688
158,1436892465946,70.3798654988225
159,1436892466681,66.6669332050218
160,1436892467400,65.2441393988365
161,1436892468119,70.9760479713265
162,1436892468911,59.4030766916633
163,1436892469629,65.7255638027981
164,1436892470305,62.6851927810144
165,1436892471019,71.5290330634466
166,1436892471753,69.6329008407624
167,1436892472492,66.8921810537315
168,1436892473213,64.8341565715879
169,1436892473948,65.1871389518998
170,1436892474672,70.7441756364909
171,1436892475496,64.4424552002413
172,1436892476164,66.4691572399765
173,1436892476889,71.2619550539624
174,1436892477622,68.2372845839182
175,1436892478361,67.305480247772
176,1436892479079,67.478814472802
177,1436892479720,67.7210560798256
178,1436892480352,71.0666258080701
179,1436892480960,66.4106383901547
180,1436892481630,70.7135514307979
181,1436892482374,68.2287303541713
182,1436892483092,64.4131553332372
183,1436892483857,70.1240904813693
184,1436892484589,71.6438064886371
185,1436892485285,67.2713884734845
186,1436892485935,66.4358393267007
187,1436892486645,64.9319915487431
188,1436892487354,70.5800415992596
189,1436892488029,72.1390113561473
190,1436892488726,68.041083667186
191,1436892489460,68.0981075019485
192,1436892490159,67.9220250024606
193,1436892490818,69.5478338036415
194,1436892491503,73.1603553042659
195,1436892492236,69.2244038426339
196,1436892492962,63.4482678370772
197,1436892493682,69.3517018002078
198,1436892494459,68.9546394474714
199,1436892495169,66.5076475260644
200,1436892495932,61.5489216971951
201,1436892496561,70.7832417548668
202,1436892497270,71.9087803372751
203,1436892498039,69.726949246937
204,1436892498761,66.579427702304
205,1436892499480,65.5728350734849
206,1436892500071,68.6064633616676
207,1436892500772,72.8163501142299
208,1436892501536,69.7058040527077
209,1436892502289,70.3634351663928
210,1436892503005,61.5051724739801
211,1436892503759,71.5573033904837
212,1436892504568,66.0978141252746
213,1436892505256,63.0303023287513
214,1436892505972,72.8928665787584
215,1436892506704,70.0976472486713
216,1436892507429,66.9563778507671
217,1436892508160,70.8662075468919
218,1436892508882,71.6875247590182
219,1436892509603,66.6493804259464
220,1436892510339,71.1721879624236
221,1436892511006,71.0129269801772
222,1436892511742,68.3885430151453
223,1436892512487,67.8278464214478
224,1436892513212,66.1140565749511
225,1436892513935,71.322590920002
226,1436892514707,66.1858149048107
227,1436892515441,65.7942179488879
228,1436892516222,67.0431090626201
229,1436892516872,71.2125204388991
230,1436892517583,68.0141704402388
231,1436892518302,70.8854820793833
232,1436892519059,70.1919088904233
233,1436892519809,63.8861360750272
234,1436892520506,63.7690418593357
235,1436892521178,64.6223530686477
236,1436892521898,70.7624602407144
237,1436892522615,65.344082641263
238,1436892523381,61.7300188920821
239,1436892524140,71.1821536084288
240,1436892524901,66.786683698075
241,1436892525632,64.8970804984224
242,1436892526358,69.8347178611515
243,1436892527095,67.7958933984061
244,1436892527841,62.1926301912113
245,1436892528566,69.7289456956712
246,1436892529284,70.0019151097663
247,1436892530012,67.432134468624
248,1436892530738,65.3598703902648
249,1436892531417,71.6595587020117
250,1436892532072,70.951276001334
251,1436892532800,67.1534044382674
252,1436892533541,63.2834405651748
253,1436892534265,68.0711767685739
254,1436892535013,71.0244898456244
255,1436892535774,66.0412797539387
256,1436892536522,67.0734455511701
257,1436892537136,67.1084603573429
258,1436892537794,73.0263501294995
259,1436892538546,69.6825051358415
260,1436892539277,66.9648753947128
261,1436892539985,68.7999321913066
262,1436892540692,66.1617360000409
263,1436892541428,68.9344907622817
264,1436892542062,63.8112396997144
265,1436892542775,67.5209001994062
266,1436892543515,71.4144876082989
267,1436892544220,69.2862249123157
268,1436892544968,62.9426679207375
269,1436892545642,67.2120229829257
270,1436892546237,61.9901582576677
271,1436892546932,72.6270759619009
272,1436892547662,71.7544087396005
273,1436892548399,65.6743794634891
274,1436892549127,64.1731410210052
275,1436892549834,64.0812666695375
276,1436892550565,70.2542003188711
277,1436892551290,65.3282912505933
278,1436892551967,65.9466180042617
279,1436892552643,67.0842737424358
280,1436892553402,66.6332589422626
281,1436892554119,71.3759219270509
282,1436892554836,64.4755458028823
283,1436892555557,68.8929002780107
284,1436892556265,68.3097463844176
285,1436892556977,70.5030321385683
286,1436892557632,72.8360840243686
287,1436892558354,71.5118021985241
288,1436892559102,67.1790424993779
289,1436892559831,67.8762257609688
290,1436892560568,69.7268177326526
291,1436892561313,69.9047619448882
292,1436892562041,65.8768808308323
293,1436892562783,60.6027208046921
294,1436892563524,68.8680207123562
295,1436892564245,70.8767480094499
296,1436892564960,64.8847633494289
297,1436892565646,68.63569919487
298,1436892566325,64.0848081102073
299,1436892567068,65.1974847320649
300,1436892567778,61.9213215718089
301,1436892568529,72.0411165432702
302,1436892569264,65.8300148079296
303,1436892570000,63.3204411084103
304,1436892570727,66.7618877355812
305,1436892571458,64.6285063994899
306,1436892572185,70.5657553128902
307,1436892572843,67.7250172715833
308,1436892573586,67.0444605912
309,1436892574316,70.0959587509416
310,1436892575060,73.0109757064984
311,1436892575766,67.8005178559424
312,1436892576507,68.5192413536999
313,1436892577187,69.9381362400858
314,1436892577887,67.3040993797509
315,1436892578656,66.5773092331782
316,1436892579391,69.843131143745
317,1436892580121,72.666577929512
318,1436892580853,68.6417395912553
319,1436892581572,66.3299197483274
320,1436892582264,61.7239366420346
321,1436892582935,70.5709900139411
322,1436892583631,72.0270254665255
323,1436892584374,68.0480315330823
324,1436892585068,65.4019593798957
325,1436892585814,65.6929294379518
326,1436892586633,69.0507777432449
327,1436892587365,65.9890887151903
328,1436892588095,64.0813834195202
329,1436892588833,66.5050392367376
330,1436892589577,67.4970320627699
331,1436892590314,67.7925542297027
332,1436892591044,67.7427797332292
333,1436892591781,70.7629535795962
334,1436892592549,71.5423599523723
335,1436892593268,68.8018903607039
336,1436892593991,58.7489014458292
337,1436892594727,69.8599665692416
338,1436892595476,67.7779651203339
339,1436892596196,67.0100914633178
340,1436892596935,72.4387083863394
341,1436892597691,69.6671152296687
342,1436892598409,64.5343515366122
343,1436892599147,68.9641128861936
344,1436892599890,71.1505355272767
345,1436892600665,69.9724055090246
346,1436892601285,63.9616643182746
347,1436892601955,62.1377750636678
348,1436892602658,72.4173391908888
349,1436892603343,70.4374503256652
350,1436892604016,65.278052640356
351,1436892604779,66.2706035861058
352,1436892605519,61.3456706091074
353,1436892606233,69.7332403735419
354,1436892606955,66.2585605737449
355,1436892607565,65.3378159117907
356,1436892608253,64.9447259211776
357,1436892608920,60.1502799045743
358,1436892609559,67.6313975676674
359,1436892610285,70.7149056365605
360,1436892611021,65.2567603786056
361,1436892611747,62.688157136023
362,1436892612480,64.5735076696729
363,1436892613210,70.4787076583642
364,1436892613849,69.1885012473126
365,1436892614542,68.8686828770744
366,1436892615275,68.8239711599799
367,1436892616009,73.5087623120338
368,1436892616757,68.487128918918
369,1436892617524,63.5700064307307
370,1436892618247,64.8965421895594
371,1436892618994,70.7758770058344
372,1436892619745,69.2463433229496
373,1436892620564,62.5147565480259
374,1436892621274,69.3502422372661
375,1436892622979,71.0770785479301
376,1436892623649,69.7994910599906
377,1436892624379,66.3510261378113
378,1436892625099,65.0441584027263
379,1436892625819,69.8192959948322
380,1436892626546,62.8715720964081
381,1436892627269,69.938559974522
382,1436892627986,69.0836787597348
383,1436892628701,61.967248827235
384,1436892629508,67.9659473485615
385,1436892630209,54.8384567071346
386,1436892630891,57.7919028585966
387,1436892631613,64.6084756027458
388,1436892632320,68.669248469303
389,1436892633050,63.1804273572481
390,1436892633726,62.8372960032019
391,1436892634356,69.5596787919339
392,1436892635058,70.7647069185115
393,1436892635763,69.7575950454338
394,1436892637494,62.49764714751
395,1436892638228,65.5015624698125
396,1436892638962,64.5280561727379
397,1436892639704,71.4704433091681
398,1436892640492,62.7354256766987
399,1436892641215,66.1935787750085
400,1436892641951,69.7072298396373
401,1436892642684,67.5291830486136
402,1436892643409,63.2749853933908
403,1436892644105,69.8187250730011
404,1436892644870,72.5218186545557
405,1436892645576,61.9564265998725
406,1436892646394,67.2518409697443
407,1436892647096,70.8157322251926
408,1436892647833,68.3947236992909
409,1436892648607,65.365003186643
410,1436892649358,67.04102881056
411,1436892650071,68.1037872156215
412,1436892650788,72.7786546505937
413,1436892651512,63.3316708629447
414,1436892652236,69.4308168391559
415,1436892652959,71.8019965781853
416,1436892653691,67.5236477083029
417,1436892654465,68.1720605352367
418,1436892655144,68.0033882373042
419,1436892655883,68.8645022598054
420,1436892656595,68.2137441984295
421,1436892657358,66.4286914401626
422,1436892658092,72.2885491040811
423,1436892658788,71.2682977196174
424,1436892660502,67.7962943901699
425,1436892661232,72.9256248386464
426,1436892661946,70.4995448083679
427,1436892662608,66.8774825680872
428,1436892663339,64.6372271300197
429,1436892664051,65.4094939835428
430,1436892664792,72.4699906273111
431,1436892665471,70.9716583486693
432,1436892666215,70.1172574416651
433,1436892666917,60.7590850105307
434,1436892667646,65.114080619623
435,1436892668411,68.4801287621957
436,1436892669126,65.5476205463163
437,1436892669881,56.0394203470589
438,1436892670620,70.2733412821035
439,1436892671336,66.932893449884
440,1436892672979,70.332209966883
441,1436892673709,63.0226966691635
442,1436892674405,63.1752073841267
443,1436892675060,64.6531945676497
444,1436892675791,64.5010143870661
445,1436892676517,72.0573337301404
446,1436892677225,68.4312948679746
447,1436892677902,63.4361245942549
448,1436892678641,63.511967790481
449,1436892679364,68.3393082786515
450,1436892680107,71.3969298711173
451,1436892680812,71.7145558200802
452,1436892681541,66.3745629103418
453,1436892682243,64.0078960254618
454,1436892682974,66.75403251184
455,1436892683720,69.2361034857592
456,1436892684415,67.4861095464922
457,1436892685119,66.6615680389343
458,1436892685850,67.4168573811758
459,1436892686557,58.2182461682179
460,1436892687287,72.2144799413266
461,1436892687980,71.1348804539969
462,1436892688649,59.8567387848177
463,1436892689424,64.4773595341047
464,1436892690115,63.2769054843464
465,1436892690849,70.7976188882141
466,1436892691569,71.2589960572571
467,1436892692277,68.8383911631463
468,1436892693008,67.0947403006598
469,1436892693744,65.9749908979851
470,1436892694472,72.3992726666113
471,1436892695205,70.7308908087917
472,1436892695883,66.2918414549856
473,1436892696602,65.8859414176489
474,1436892697361,62.9664948089794
475,1436892698082,68.502481721098
476,1436892698822,71.323076744099
477,1436892699568,64.5686742409114
478,1436892700249,67.7266985639465
479,1436892700981,67.0072456267148
480,1436892701715,54.2045067911581
481,1436892702454,67.6293543149552
482,1436892703180,69.7593664678943
483,1436892703910,68.6671438795465
484,1436892704636,67.1193577194695
485,1436892705374,66.6977375888256
486,1436892706091,67.335544457506
487,1436892706812,67.8006525135331
488,1436892707554,69.769412481941
489,1436892708301,67.9939383114843
490,1436892709037,61.1051836139151
491,1436892709750,67.6117195398793
492,1436892710476,69.7523033458189
493,1436892711226,72.810389546461
494,1436892711977,66.5950977865648
495,1436892712713,65.2860379949059
496,1436892713430,65.0092932809703
497,1436892714188,70.9355601345464
498,1436892714916,66.5233425755845
499,1436892715639,55.9378932136559
500,1436892716313,67.5682114476528
501,1436892717012,70.3621937793193
502,1436892717741,61.7967979286109
503,1436892718475,71.933262637998
504,1436892719140,72.7406218764521
505,1436892719864,64.8267736059171
506,1436892720589,67.7419348527931
507,1436892721327,68.0647931564475
508,1436892722047,65.94908636467
509,1436892722779,72.6284409575315
510,1436892723533,69.5025108662275
511,1436892724282,67.8634216100875
512,1436892725000,67.5058809490013
513,1436892725688,67.8182908785874
514,1436892726356,73.3276836883395
515,1436892727083,67.0275399052268
516,1436892727808,68.2898604152308
517,1436892728568,64.1125019401305
518,1436892729308,71.3824067934404
519,1436892729956,71.8343890709036
520,1436892730669,65.4263092321163
521,1436892731401,63.3707220655094
522,1436892732133,62.7985781418685
523,1436892732851,72.1179458358775
524,1436892733581,71.3170031568596
525,1436892734368,68.4249952813338
526,1436892735121,71.1311986994693
527,1436892735807,70.8879453917933
528,1436892736454,69.9392613721972
529,1436892737410,62.6052463455093
530,1436892738157,72.1717088129409
531,1436892738834,70.4618404474861
532,1436892739559,66.5684779485519
533,1436892740286,62.60606266425
534,1436892740948,69.7504492313889
535,1436892741651,71.9875575427505
536,1436892742382,69.2999127220916
537,1436892743116,66.0029742286671
538,1436892743848,66.0974717282717
539,1436892744813,67.814235300563
540,1436892745441,66.4566587776807
541,1436892746010,64.0000524496246
542,1436892746686,61.5689096270497
543,1436892747433,65.8057211764142
544,1436892748146,70.258182287019
545,1436892748891,69.9637649876429
546,1436892749602,69.1006114624183
547,1436892750336,66.4374150603988
548,1436892750972,65.7410109126194
549,1436892751682,60.2590371078202
550,1436892752401,63.6454494437795
551,1436892753144,72.2021435575525
552,1436892753892,68.1890435986916
553,1436892754683,61.833774339637
554,1436892755439,71.2845562782437
555,1436892756165,70.8370802011726
556,1436892756864,70.4961728334195
557,1436892757531,65.5162123874738
558,1436892758237,62.9667449407256
559,1436892758944,66.5603178107049
560,1436892759689,73.0802816342949
561,1436892760463,63.6573709158724
562,1436892761101,66.6699409484894
563,1436892761828,71.0176361078064
564,1436892762553,71.1175851561691
565,1436892763281,66.740103340198
566,1436892764024,72.0773869299421
567,1436892764737,71.4210618795304
568,1436892765479,67.674595327508
569,1436892766194,65.674427654664
570,1436892766868,62.9888502122672
571,1436892767531,72.1069525080359
572,1436892768249,71.4131363945521
573,1436892769027,64.8069090007413
574,1436892769753,69.7034652205831
575,1436892770484,70.4816793181085
