id,attr_time,attr_db
1,1436892348356,19.7678440690627
2,1436892348876,20.78731178488
3,1436892349360,16.8242541578036
4,1436892349867,19.6051307592253
5,1436892350380,20.8557427973889
6,1436892350886,25.0346066334755
7,1436892351417,18.4039271661819
8,1436892351886,21.949237364098
9,1436892352300,19.562956108961
10,1436892352774,19.0299835127052
11,1436892353279,20.7312459637308
12,1436892353783,20.3711313260301
13,1436892354192,25.6617864546607
14,1436892354677,23.7047287485893
15,1436892355170,23.7353273707278
16,1436892355654,26.9206530146616
17,1436892356142,21.5706146706906
18,1436892356641,23.9003767295846
19,1436892357031,46.6702387408835
20,1436892357473,24.1513875598735
21,1436892357925,20.1779423879245
22,1436892358402,19.9703515563536
23,1436892358941,20.4646029071269
24,1436892359436,18.5050632865387
25,1436892359936,21.5887026765177
26,1436892360445,17.8724013423101
27,1436892360927,15.873988803474
28,1436892361429,17.9412795621298
29,1436892361914,26.2824396725793
30,1436892362399,19.7886047785816
31,1436892362912,20.91135232497
32,1436892363354,20.547484004106
33,1436892363749,20.9625948271171
34,1436892364227,28.0789977439105
35,1436892364697,21.7281114578316
36,1436892365174,23.6826153665742
37,1436892365667,18.6577405988358
38,1436892366131,21.6334828839912
39,1436892366611,27.0065405857329
40,1436892366986,19.4132657081556
41,1436892367429,16.0557622087111
42,1436892367866,18.6217210232907
43,1436892368366,18.1615399729891
44,1436892368893,15.700061596059
45,1436892369391,19.033911349814
46,1436892369883,14.8722350868278
47,1436892370368,20.3903640583424
48,1436892370865,25.5608416909724
49,1436892371355,20.3046844922719
50,1436892371856,17.7929104963404
51,1436892372335,56.8407051195087
52,1436892372820,34.4640535142932
53,1436892373307,18.7562284654988
54,1436892373787,24.5025517241929
55,1436892374254,30.5093796596189
56,1436892374664,15.6788597429111
57,1436892375164,16.5985771266487
58,1436892375647,20.2984773570602
59,1436892376134,19.7612502850197
60,1436892376639,21.9016535794486
61,1436892377123,21.5155526959645
62,1436892377588,19.7613392887578
63,1436892377951,19.8694023581903
64,1436892378377,18.4702432372742
65,1436892378802,28.883715850832
66,1436892379270,20.2606729145109
67,1436892379719,13.8907312499595
68,1436892380146,16.8791664603383
69,1436892380647,14.8573815817757
70,1436892381144,20.079475668639
71,1436892381634,25.5698158507819
72,1436892382101,28.4084562477167
73,1436892382617,19.0229703428504
74,1436892383094,27.0018343241139
75,1436892383456,33.4868478257572
76,1436892383811,30.2531255581625
77,1436892384266,21.4249779021263
78,1436892384740,13.5526216108397
79,1436892385240,37.4329350523968
80,1436892385744,14.3094973857717
81,1436892386236,17.7536768001522
82,1436892386676,23.2798912746298
83,1436892387125,12.5591053759433
84,1436892387614,14.361329605013
85,1436892388089,14.0873389041457
86,1436892388616,14.5546686426546
87,1436892389111,18.3875058305588
88,1436892389605,20.2190871521154
89,1436892390107,35.9604876448504
90,1436892390604,39.4622128980956
91,1436892391085,26.3569556276439
92,1436892391606,25.5924857994538
93,1436892392625,16.4616918766597
94,1436892392999,55.637314242418
95,1436892393350,15.7459744201037
96,1436892393796,22.9231126005505
97,1436892394257,20.726657274228
98,1436892394688,41.7249748103807
99,1436892395176,26.5647236820091
100,1436892395674,45.235086278109
101,1436892396137,48.6211899340238
102,1436892396562,46.4293247800762
103,1436892397993,66.5926743162135
104,1436892398464,35.6996297874896
105,1436892398940,47.3627253855536
106,1436892399441,28.2834684163734
107,1436892399924,31.223059962628
108,1436892400425,45.1910270864291
109,1436892400922,39.7380787098748
110,1436892401423,27.9560657516643
111,1436892401896,17.7393159983611
112,1436892402380,60.3831800700941
113,1436892402883,27.2296515462498
114,1436892403384,23.341890660707
115,1436892403842,31.9735374486736
116,1436892404290,33.6598966428548
117,1436892404733,19.4505202241499
118,1436892405912,60.5883321047216
119,1436892406359,24.6739646588153
120,1436892406828,28.916440668421
121,1436892407274,17.115426354791
122,1436892407706,29.1898143750336
123,1436892408155,59.9888778294319
124,1436892408650,63.2117453664887
125,1436892409146,62.1231718666045
126,1436892409621,69.7123071459391
127,1436892410112,57.0281144391926
128,1436892410616,19.9632345842981
129,1436892411138,64.7480198513022
130,1436892411658,62.3816386271461
131,1436892412143,50.8311500063653
132,1436892412631,35.8226410815849
133,1436892413160,50.0143865586874
134,1436892413651,39.3367036964397
135,1436892414130,38.7208130484199
136,1436892414632,38.1599761225088
137,1436892415085,28.6436503697058
138,1436892415460,40.4242156132197
139,1436892415857,48.441352459554
140,1436892416293,40.3935198862238
141,1436892416782,52.848034494456
142,1436892417271,47.9674867359288
143,1436892417756,44.6906237743453
144,1436892418230,34.5487790130682
145,1436892418727,45.3953396769467
146,1436892419142,41.6625212699366
147,1436892419622,47.0612343429408
148,1436892420117,66.5842001101246
149,1436892420605,36.5604661313284
150,1436892421058,38.9578962744224
151,1436892422346,36.9476142787375
152,1436892422804,57.6154072334889
153,1436892423293,62.4848693701542
154,1436892423720,26.9525650012725
155,1436892424086,36.6548795922997
156,1436892424521,25.5350630856572
157,1436892424953,47.0887533925313
158,1436892425429,54.850387247932
159,1436892425904,44.6681822509835
160,1436892426409,50.1397243415744
161,1436892426883,38.4328102974252
162,1436892427345,65.8412213436621
163,1436892427783,34.4809856243527
164,1436892428231,27.928641701532
165,1436892428691,41.5175510642331
166,1436892429186,46.1182722472663
167,1436892429663,39.7570610007377
168,1436892430139,29.7531617277187
169,1436892430633,29.6885855517162
170,1436892431128,23.8122073533222
171,1436892431618,56.2783404877057
172,1436892432124,59.9070373235196
173,1436892432616,50.4937130290378
174,1436892433086,45.7581757289354
175,1436892433575,35.4112484281845
176,1436892434071,56.7492063718441
177,1436892434577,31.1937636221569
178,1436892435055,35.8832376044593
179,1436892435550,35.809467743162
180,1436892435949,47.490065905378
181,1436892436395,28.2525149170344
182,1436892436861,42.1438733264068
183,1436892437339,38.1802250298293
184,1436892437866,46.5504400418646
185,1436892438317,58.9086161928652
186,1436892438736,28.8782196838258
187,1436892439204,26.3978080747234
188,1436892439686,27.9145248479571
189,1436892440168,46.5592918983568
190,1436892440653,46.8328246608703
191,1436892441166,35.8697919023665
192,1436892441675,43.8802825649108
193,1436892442162,39.4503118892577
194,1436892442638,41.5375470361604
195,1436892443140,37.1488034971155
196,1436892443683,29.2501913542821
197,1436892444150,30.9449680351258
198,1436892444509,38.2620530477894
199,1436892444917,42.6445116638367
200,1436892445373,43.5119548108776
201,1436892445812,48.7954915332867
202,1436892446211,45.7841249647146
203,1436892446703,41.1676384598803
204,1436892447172,30.7461165263488
205,1436892447614,25.4472037624515
206,1436892448072,26.8784699687337
207,1436892448548,31.7239600505994
208,1436892449059,34.9937173614493
209,1436892449555,38.9756963391556
210,1436892450062,71.9111442636158
211,1436892450543,70.122609442049
212,1436892451022,70.6109321849252
213,1436892451514,71.3966774106446
214,1436892452012,53.4117001784021
215,1436892452517,42.0887002802059
216,1436892453036,73.8982435823603
217,1436892453525,37.0467825364354
218,1436892454005,36.3557193978745
219,1436892454508,57.5922929584997
220,1436892455003,35.9629658173629
221,1436892455439,33.7713864048909
222,1436892455820,31.370226670836
223,1436892457109,31.9195991548071
224,1436892457511,29.171051768616
225,1436892457975,32.9684099193942
226,1436892458479,37.9178643980025
227,1436892458941,72.0323210946593
228,1436892459304,70.3415167587923
229,1436892459757,46.1639866268033
230,1436892460250,57.2932130163058
231,1436892460755,39.3457798961439
232,1436892461244,31.9106435911316
233,1436892461745,67.7999830412552
234,1436892462255,63.5421587117406
235,1436892462783,37.2135589436348
236,1436892463276,41.5639031697104
237,1436892463806,45.9993259762042
238,1436892464291,45.1604694720904
239,1436892464746,37.1386432496884
240,1436892465226,42.6942418138429
241,1436892465714,52.3069538678285
242,1436892466099,44.9141879581755
243,1436892466550,45.4008269018338
244,1436892467029,68.0369214718848
245,1436892467539,36.5145858479341
246,1436892468093,41.0570419975938
247,1436892468617,35.8702920039578
248,1436892469046,36.8237057977185
249,1436892469429,37.4505508896253
250,1436892469882,38.733824444415
251,1436892470383,33.4340628587913
252,1436892470863,41.0733804663642
253,1436892471351,32.5366042960562
254,1436892471832,39.0574845714239
255,1436892472327,38.5717152523305
256,1436892472817,37.552149642406
257,1436892473313,63.6303787927927
258,1436892473804,37.2741543102479
259,1436892474283,60.1918307847876
260,1436892474774,35.6126391196485
261,1436892475267,43.7390106496202
262,1436892475749,37.6262286633805
263,1436892476209,47.2222663038249
264,1436892476628,40.1637056380835
265,1436892477064,45.2033224689023
266,1436892477522,42.9496605674235
267,1436892478023,33.9673525358077
268,1436892478553,34.0112239189468
269,1436892479050,43.9927763366024
270,1436892479539,42.021296657537
271,1436892479971,51.9953023433839
272,1436892480440,39.0245826684567
273,1436892480953,43.4869730499729
274,1436892481424,42.512831158912
275,1436892481925,31.728146912487
276,1436892482374,33.8968129701988
277,1436892482788,44.6105129245997
278,1436892483235,45.7589995292052
279,1436892483702,70.5375325443239
280,1436892484189,45.8870330600111
281,1436892484640,68.6811723497579
282,1436892484991,46.1801225890066
283,1436892485326,40.6793063350929
284,1436892485682,38.3688810811093
285,1436892486122,36.1987732441662
286,1436892486600,39.9885922188373
287,1436892487018,63.823557404229
288,1436892487454,61.2356814386999
289,1436892487917,69.5297416811323
290,1436892488416,61.1143128377652
291,1436892488892,49.0858242431298
292,1436892489383,59.6581324357779
293,1436892489827,42.7082205030433
294,1436892490244,51.0444452706977
295,1436892490718,51.641449158532
296,1436892491204,54.6111924835752
297,1436892491703,40.343955882473
298,1436892492190,35.2982895955807
299,1436892492714,55.3279143288018
300,1436892493220,43.9918689180689
301,1436892493737,33.7952973519406
302,1436892494218,69.5218199876215
303,1436892494713,39.765905126925
304,1436892495184,28.5487275368639
305,1436892495665,34.0460863189089
306,1436892496152,37.8247466640916
307,1436892496647,37.314126245839
308,1436892497127,36.9263955693151
309,1436892497504,51.9093099614841
310,1436892497908,42.9001074546624
311,1436892498393,32.3328616529997
312,1436892498900,63.4247043973086
313,1436892499373,39.7819146208955
314,1436892499819,29.979110856537
315,1436892500253,29.9101695113923
316,1436892500739,32.8627352753807
317,1436892501223,32.4688486333232
318,1436892501713,32.4631837822766
319,1436892502200,31.0252373850958
320,1436892502720,29.0384973591522
321,1436892503214,28.9138161927265
322,1436892503722,27.9860760266438
323,1436892504193,30.4816702865943
324,1436892504694,26.7140542604593
325,1436892505176,28.1575060209517
326,1436892505686,30.0614585880916
327,1436892506201,29.3374493460863
328,1436892506578,27.765634453749
329,1436892506913,28.7771224864534
330,1436892507323,62.7386880204479
331,1436892507814,42.2437146829658
332,1436892508284,41.15618487562
333,1436892508824,41.6884751090219
334,1436892509299,40.248921444702
335,1436892509784,41.0127825958982
336,1436892510246,42.2910066402887
337,1436892510723,35.5353685386227
338,1436892511162,33.3798445286352
339,1436892511645,33.7130872933415
340,1436892512130,34.6655835642708
341,1436892512631,39.6236811939482
342,1436892513122,30.004176146282
343,1436892513606,33.6932727376459
344,1436892514090,33.2705522801705
345,1436892514574,32.1465987788336
346,1436892515065,29.8118247094312
347,1436892515549,30.918132472311
348,1436892516048,30.8923575405137
349,1436892516544,35.6275480296815
350,1436892517054,26.1927638123622
351,1436892517447,24.7110384138915
352,1436892517858,32.9503578221716
353,1436892518317,31.1737476144452
354,1436892518800,34.6325735419194
355,1436892519271,32.9760642278852
356,1436892519751,32.3842073738966
357,1436892520228,34.865967575981
358,1436892520669,32.71470952746
359,1436892521072,33.1697931084719
360,1436892521582,30.6076853041407
361,1436892522076,26.5787386170344
362,1436892522565,26.5688757370945
363,1436892523064,30.5627893447237
364,1436892523564,31.1946021013855
365,1436892524035,34.8454512222231
366,1436892524524,41.7948394967373
367,1436892525024,36.658680028224
368,1436892525527,30.3052882356671
369,1436892526008,33.7558467601903
370,1436892526495,41.2169708376556
371,1436892526975,33.4976437536829
372,1436892527496,65.4983572737911
373,1436892527935,73.1520100098878
374,1436892528280,73.9403560993056
375,1436892528634,75.1766226482958
376,1436892529050,71.9014433297804
377,1436892529482,63.3945894825528
378,1436892529942,51.7636565020109
379,1436892530430,40.471508398755
380,1436892530838,39.1984124447446
381,1436892531192,67.1062049421152
382,1436892531611,72.4622164256834
383,1436892532082,58.5304671189851
384,1436892532562,73.4975746884969
385,1436892533040,68.4878654491398
386,1436892533535,52.9191414828696
387,1436892533968,35.3391186767797
388,1436892534427,26.1188995522629
389,1436892534923,47.902586479147
390,1436892535406,44.1885352343436
391,1436892535909,47.6031308351691
392,1436892536389,42.8153167207735
393,1436892536840,42.4280297772566
394,1436892537337,70.7509009667504
395,1436892537857,45.4383478830834
396,1436892538299,56.1382765274007
397,1436892538695,54.4638666674942
398,1436892539146,43.0849671954444
399,1436892539631,43.3219548542544
400,1436892540120,33.1126678331398
401,1436892540633,27.3163934045508
402,1436892541059,49.6665113893868
403,1436892541516,48.7473432877783
404,1436892541993,42.3392894743354
405,1436892542482,24.8093263211008
406,1436892543097,33.7952290683223
407,1436892543588,50.229133672646
408,1436892544073,54.8201011975173
409,1436892544576,54.8699156787814
410,1436892545076,46.900153025298
411,1436892545583,42.7216307622051
412,1436892546064,65.5550801680747
413,1436892546547,41.7124255396856
414,1436892547044,45.1682032320827
415,1436892547526,41.0400531115981
416,1436892548048,44.3146344854962
417,1436892548484,61.390333549657
418,1436892548824,36.9458784999971
419,1436892549159,41.0652969689036
420,1436892549490,42.4315538175015
421,1436892549960,38.7500587793552
422,1436892550471,51.5816249282419
423,1436892550961,45.2040717177647
424,1436892551446,57.2807437761255
425,1436892551879,44.4368883684801
426,1436892552335,44.2871051897456
427,1436892552858,27.8974609546977
428,1436892553356,70.4692748929292
429,1436892553852,47.1168963585042
430,1436892554347,41.9130320162499
431,1436892554852,43.7442568854805
432,1436892555349,26.942643496075
433,1436892555853,43.1454703988935
434,1436892556333,48.1907474154551
435,1436892556808,42.0678512685913
436,1436892557317,28.0360463726665
437,1436892557846,38.6876365239137
438,1436892558278,39.7433464940132
439,1436892558659,38.8800490592262
440,1436892559090,37.2317384245559
441,1436892559598,31.315489606871
442,1436892560070,47.7814770979082
443,1436892560574,33.508075538741
444,1436892561014,68.1387959802144
445,1436892561471,48.9860834775217
446,1436892561955,51.8997889667056
447,1436892562474,47.2349973466872
448,1436892562984,53.0389528957326
449,1436892563471,44.9695922335856
450,1436892563973,48.9830251085692
451,1436892564451,45.2088884955931
452,1436892564922,28.5432886634216
453,1436892565419,42.8591269022183
454,1436892565898,52.9167942628656
455,1436892566397,40.2443150611476
456,1436892566884,26.9063397861778
457,1436892567375,53.7747988561562
458,1436892567864,48.5594406518662
459,1436892568353,45.9172935048856
460,1436892568783,54.9471058050534
461,1436892569175,45.0601409018993
462,1436892569514,45.1285372635885
463,1436892569860,27.0399941955821
464,1436892570222,66.2989020724099
465,1436892570671,43.9459672620277
466,1436892571137,47.8405129520623
467,1436892571637,37.9558342716725
468,1436892571991,45.2233625001648
469,1436892572409,45.7231257225014
470,1436892572891,61.4033723449819
471,1436892573382,30.0879326141
472,1436892573880,39.2451518555035
473,1436892574382,66.6278348551267
474,1436892574864,51.943746886094
475,1436892575359,43.3181797854537
476,1436892575923,36.3700980296105
477,1436892576405,52.3101367450938
478,1436892576884,60.3325674151568
479,1436892577371,49.0685019841841
480,1436892577893,38.6714079457694
481,1436892578371,53.9245015316113
482,1436892578928,46.7063312811818
483,1436892579359,33.2151011837205
484,1436892579772,40.6319593058264
485,1436892580251,40.3959952741967
486,1436892580756,62.9257719361945
487,1436892581202,62.9331130399258
488,1436892581587,60.3052703903171
489,1436892582024,66.3356448012309
490,1436892582513,35.926765737615
491,1436892583082,36.5925552425161
492,1436892583576,52.7070683297804
493,1436892584061,49.2878476162101
494,1436892584555,45.8304430974266
495,1436892585061,55.4103543111609
496,1436892585553,47.4044903454048
497,1436892586054,47.4809671426881
498,1436892586513,44.7646837659673
499,1436892587004,54.6501639960665
500,1436892587483,73.137603796163
501,1436892587972,27.0938235784387
502,1436892588452,57.665801709326
503,1436892588911,64.5306137233497
504,1436892589352,46.0508265299985
505,1436892589779,59.1227894933595
506,1436892590247,35.5910960907002
507,1436892590634,28.1376670662731
508,1436892590975,28.4773104086178
509,1436892591334,26.8333561113347
510,1436892591728,34.6899028131993
511,1436892592201,30.9145903198356
512,1436892592682,31.7147729357135
513,1436892593186,26.9254192220846
514,1436892593670,26.7546765714615
515,1436892594155,26.2276942164814
516,1436892594604,30.8736591521707
517,1436892595084,61.471712705873
518,1436892595562,61.954960943408
519,1436892596020,59.092556761702
520,1436892596530,49.0623611328222
521,1436892597004,48.4793165992264
522,1436892597464,43.8075628800368
523,1436892597997,39.9721781208605
524,1436892598465,55.3203062814209
525,1436892598981,69.1129471186731
526,1436892599417,72.099862735309
527,1436892599859,56.3649668278365
528,1436892600396,48.7922266959955
529,1436892600917,52.7950227550577
530,1436892601403,75.8632595962877
531,1436892601860,62.0139984475436
532,1436892602307,33.2587754889425
533,1436892602778,56.9059708487869
534,1436892603339,28.4848625296942
535,1436892603814,28.5454768941101
536,1436892604321,28.0093234100854
537,1436892604818,29.1088496914438
538,1436892605328,30.3280838542615
539,1436892605762,26.9513873972808
540,1436892606138,27.7040540530358
541,1436892606533,34.4352608632341
542,1436892606992,24.9968248710699
543,1436892607476,24.1795410063895
544,1436892608048,33.3835566719969
545,1436892608526,27.6762453669341
546,1436892610571,28.9182452362187
547,1436892611069,35.5898422983845
548,1436892611590,24.9025227923136
549,1436892611950,25.0432622865957
550,1436892612295,26.5927921613341
551,1436892612637,23.0129198199829
552,1436892614191,26.6085201984724
553,1436892614641,27.1951761008239
554,1436892615123,24.8155098980085
555,1436892615602,26.0425761698174
556,1436892616079,23.1982193680973
557,1436892616563,24.3708963911173
558,1436892617056,26.8585140309296
559,1436892617558,25.3720645291245
560,1436892618105,25.5516934647357
561,1436892618586,22.3213814747447
562,1436892619086,34.4911323388623
563,1436892619557,22.4980449471465
564,1436892619951,22.7836198555205
565,1436892620378,29.0531541380691
566,1436892620829,26.9445653369466
567,1436892621317,25.6698069957498
568,1436892621805,27.4145740330186
569,1436892622288,27.9115175033448
570,1436892622722,29.7242044915148
571,1436892623222,29.45971599944
572,1436892623700,29.2487665870885
573,1436892624164,28.1881460704154
574,1436892624650,33.7385726994491
575,1436892625154,34.0643878939697
