id,attr_time,attr_db
1,1436892348370,19.5781737148469
2,1436892349104,20.3241972219673
3,1436892349835,17.2505670744014
4,1436892350471,23.7126391470536
5,1436892351165,25.2076538785876
6,1436892351887,17.563718335852
7,1436892352603,20.222992258135
8,1436892353370,18.1360750748429
9,1436892354104,21.2443834059984
10,1436892354831,17.7068065436595
11,1436892355584,20.2315146045747
12,1436892356293,20.7707006201648
13,1436892357032,20.0611186127779
14,1436892357864,14.7453364140132
15,1436892358593,31.306415383122
16,1436892359305,51.9871778675747
17,1436892360095,44.8211237679892
18,1436892360724,50.0500379449207
19,1436892361454,51.3729797455488
20,1436892362166,56.1112559839769
21,1436892362897,48.8560341134657
22,1436892363624,51.4479364838663
23,1436892364357,56.1767807126177
24,1436892365165,56.4781085480021
25,1436892365949,51.7956957566268
26,1436892366684,62.2527133108101
27,1436892367341,58.4859042939713
28,1436892368062,48.2490146361408
29,1436892368783,39.2396829341172
30,1436892371019,43.2589507237271
31,1436892371760,54.1936440274231
32,1436892372478,48.5318830176397
33,1436892373202,51.1062399940753
34,1436892373932,57.9495911682825
35,1436892374733,55.3649497554502
36,1436892375491,51.4567869656133
37,1436892376308,54.9142764021822
38,1436892377056,53.7525929652551
39,1436892377786,42.2710226362187
40,1436892378528,55.1459974471428
41,1436892380105,59.3889131027492
42,1436892380720,45.2752544200771
43,1436892381405,52.3689025596297
44,1436892382167,53.8977246920836
45,1436892382918,44.0714186617802
46,1436892383711,54.783272873186
47,1436892384284,49.5347195002821
48,1436892384968,56.4144159734467
49,1436892385701,54.7284750319241
50,1436892386413,57.6115660371655
51,1436892387089,60.0749517361319
52,1436892387812,56.076829182377
53,1436892388549,44.8776587645009
54,1436892389270,59.0899296924688
55,1436892390008,55.3124009473701
56,1436892390759,43.9308494094972
57,1436892391412,59.8995389336567
58,1436892392156,58.7631749525102
59,1436892392883,53.073331782054
60,1436892393637,52.6875043573466
61,1436892395292,58.1720664301613
62,1436892395969,53.0146038084343
63,1436892396699,53.4988173942004
64,1436892397427,47.9673802853933
65,1436892398133,54.524558928294
66,1436892398867,57.5960723651268
67,1436892399587,52.4068867134101
68,1436892400371,57.1080619044502
69,1436892401039,58.1532323575505
70,1436892401778,58.3921548451976
71,1436892402512,58.5478548828046
72,1436892404334,50.5169224785467
73,1436892405060,51.746636342039
74,1436892405795,43.2377368550131
75,1436892406555,56.1028566357672
76,1436892407231,49.1077265333368
77,1436892407956,55.3555852038278
78,1436892408689,45.5288353386145
79,1436892409495,64.8700906148846
80,1436892410250,53.2380801450122
81,1436892410979,55.275919931571
82,1436892411662,55.269384409142
83,1436892412355,46.3898132992089
84,1436892413082,57.5669159613732
85,1436892413816,62.422896837107
86,1436892414518,52.3130374933073
87,1436892415139,48.0307643816638
88,1436892415863,57.2578327052987
89,1436892416592,57.1449560495226
90,1436892417334,56.384180765001
91,1436892418057,61.6465888601718
92,1436892418849,60.9691398322007
93,1436892419617,59.1400100802112
94,1436892420348,59.2072928376977
95,1436892421075,55.2339276993127
96,1436892421752,60.4813927351919
97,1436892422472,61.3732580588786
98,1436892423202,53.5797656578737
99,1436892423925,46.2435069095691
100,1436892424682,47.6640905192327
101,1436892425402,45.678515168817
102,1436892426134,61.1330899160587
103,1436892426924,56.545679026379
104,1436892427564,60.0976122548687
105,1436892428295,55.9446381243332
106,1436892429026,57.5737181577119
107,1436892429825,46.9852257250953
108,1436892430558,54.9839524629792
109,1436892431276,59.0002750948617
110,1436892431977,60.3480263668985
111,1436892432643,51.4721355099625
112,1436892433391,55.5105015700791
113,1436892434136,56.5614724383513
114,1436892434868,59.0791055599123
115,1436892435597,63.3446990272368
116,1436892436350,45.8600192257974
117,1436892436994,57.8452034126183
118,1436892437712,54.4102415154367
119,1436892438445,54.619603685444
120,1436892439126,47.0477868062364
121,1436892439857,57.0497359486786
122,1436892440633,57.0135517079133
123,1436892441354,54.7126457040097
124,1436892442024,47.0710563681617
125,1436892442721,51.6617181954749
126,1436892443450,51.5363670499
127,1436892444164,49.6576504385247
128,1436892444873,50.6821699207286
129,1436892445555,53.8108374569104
130,1436892446291,48.0657907846059
131,1436892447023,59.9757729805642
132,1436892447749,57.230573225127
133,1436892448487,51.604197130532
134,1436892449214,61.2118330673752
135,1436892449952,62.8208220184008
136,1436892450681,61.2821771929158
137,1436892451411,58.5153901983337
138,1436892452130,56.2781259135778
139,1436892452794,48.3522701444979
140,1436892453543,65.0586901874468
141,1436892454276,49.925254223337
142,1436892455007,51.2118347295097
143,1436892455746,50.9446637419618
144,1436892456402,43.688846974271
145,1436892456989,62.4933317700145
146,1436892457689,57.9869151640354
147,1436892458421,59.0369972741941
148,1436892459152,58.5582814386718
149,1436892459879,58.1405254347883
150,1436892460642,67.8318826761312
151,1436892461375,58.6194955517665
152,1436892462089,47.5178964547261
153,1436892462808,63.6211375159602
154,1436892463532,60.8195880347404
155,1436892464279,62.6719567251971
156,1436892464999,57.5165567283044
157,1436892465746,48.5505719044331
158,1436892466470,60.0717373098974
159,1436892467272,58.7599806397256
160,1436892467928,60.0311902155054
161,1436892468633,53.5596342449053
162,1436892469351,59.4744533113842
163,1436892470105,61.5928103426388
164,1436892470838,56.1052826500198
165,1436892471569,47.9733903847752
166,1436892472311,50.9393215216793
167,1436892473001,53.2676607265095
168,1436892473674,58.0791523484367
169,1436892474406,54.1877003938111
170,1436892475115,49.428875491966
171,1436892475763,43.3733511364949
172,1436892476477,57.0306134149461
173,1436892477207,60.7272498117229
174,1436892477941,57.1489368123858
175,1436892479215,62.2178397780676
176,1436892479814,56.5580032015803
177,1436892480509,51.9751494121355
178,1436892481241,57.7914913631771
179,1436892481987,54.6972321334787
180,1436892482702,46.2949585034739
181,1436892483358,47.0443521813662
182,1436892484058,61.4360275164599
183,1436892484900,52.4598527953584
184,1436892485679,57.7794738957122
185,1436892486412,67.1664902660158
186,1436892487149,49.0562703290967
187,1436892487869,45.5289979744688
188,1436892488577,48.1667852777596
189,1436892489287,56.9257954717031
190,1436892490028,56.6259207254817
191,1436892490746,56.1164930406274
192,1436892491484,50.0485093840025
193,1436892492204,65.5424761218414
194,1436892492913,51.9583899917715
195,1436892493579,63.3171384651262
196,1436892494300,54.4714569526934
197,1436892495031,51.3346176980223
198,1436892495767,53.0101211873033
199,1436892496445,56.7372203263178
200,1436892497043,47.396611761953
201,1436892497738,56.0974529317911
202,1436892498484,45.9411669262689
203,1436892499214,63.319412735261
204,1436892500013,55.7355906272436
205,1436892500683,53.3506798730603
206,1436892501420,49.5967974875936
207,1436892502139,54.742689215665
208,1436892502858,53.6109053445246
209,1436892503507,50.1490420957587
210,1436892504310,46.0064445669717
211,1436892505037,63.4803142076895
212,1436892505763,52.1011438433446
213,1436892506495,55.9208123899863
214,1436892507232,60.9660741664453
215,1436892507953,59.9495411753279
216,1436892508695,48.8443185508582
217,1436892509448,55.2657311086705
218,1436892510198,60.8511981926349
219,1436892510949,57.5470048352698
220,1436892511707,57.3003858490942
221,1436892512412,62.8852429323002
222,1436892513111,62.2403405963281
223,1436892513757,53.2102717116089
224,1436892514495,45.6963980960242
225,1436892515203,64.5789602665961
226,1436892515946,56.1213238158261
227,1436892516690,52.5461186820114
228,1436892517407,58.6406239373127
229,1436892518133,59.8656588541248
230,1436892518867,57.1170736291987
231,1436892519598,49.2708605112359
232,1436892520343,53.6081395406448
233,1436892521048,54.4813267638875
234,1436892521765,52.9647721292647
235,1436892522489,55.767577640869
236,1436892523214,61.5300473343189
237,1436892523918,58.3627095102559
238,1436892524678,49.6965687626674
239,1436892525399,63.1845343640201
240,1436892526146,53.6118990302064
241,1436892526862,53.6140232833716
242,1436892527642,56.7100886981442
243,1436892528324,56.8462729506413
244,1436892529033,57.8106201408076
245,1436892529760,60.4011776502883
246,1436892530504,62.6477879016356
247,1436892531224,61.0458370213993
248,1436892531978,49.0985699890388
249,1436892532662,61.7206609366846
250,1436892533333,68.1020585982175
251,1436892534050,58.686668836783
252,1436892534690,57.9019486817076
253,1436892535412,57.2816790543747
254,1436892536136,50.3797550682235
255,1436892536869,64.6456966307879
256,1436892537630,53.0308164304704
257,1436892538365,55.4888817468811
258,1436892539098,57.6846335186135
259,1436892539840,54.3101534339068
260,1436892540486,58.089369899448
261,1436892541219,55.3483444987164
262,1436892541971,59.2828947332797
263,1436892542693,60.7410869664979
264,1436892543417,56.6954506035774
265,1436892544154,51.0458216062413
266,1436892544823,65.528509299456
267,1436892545560,57.35266206642
268,1436892546277,55.4607019221013
269,1436892547031,58.8353492155448
270,1436892547753,51.9437960250224
271,1436892548450,57.1360122272457
272,1436892549066,55.0084939386991
273,1436892549748,60.9447020808279
274,1436892550499,46.1893156892167
275,1436892551233,58.4463474678603
276,1436892551964,60.4746412572022
277,1436892552740,58.8426546216844
278,1436892553470,49.9295911397544
279,1436892554187,62.6125157992714
280,1436892554839,61.5419428489307
281,1436892555585,59.6027598201394
282,1436892556331,56.5022174403389
283,1436892557086,43.0198198021971
284,1436892557821,58.7149908270468
285,1436892558494,62.6709420549618
286,1436892559192,56.4889305852675
287,1436892559847,57.6516258547136
288,1436892560641,52.8759063135318
289,1436892561346,64.4146918728938
290,1436892562034,55.0013867769875
291,1436892562676,52.9518302544049
292,1436892563302,57.1869994463656
293,1436892563911,58.918359269894
294,1436892564620,54.136818572663
295,1436892565336,54.409222565087
296,1436892566068,57.4205335240804
297,1436892566834,63.1031835333844
298,1436892567554,54.1304449678561
299,1436892568296,55.9725172240164
300,1436892569047,55.9717980814348
301,1436892569802,59.7577136858892
302,1436892570556,58.1011754844735
303,1436892571276,62.0602312707594
304,1436892572029,57.5878211088336
305,1436892572794,50.9337096433152
306,1436892573460,60.2662333434537
307,1436892574909,58.605748208496
308,1436892575573,53.6379036235759
309,1436892576306,48.4301644797708
310,1436892577025,55.3684280141356
311,1436892577787,63.0687399623838
312,1436892578542,62.5469597014588
313,1436892579297,59.7414889153065
314,1436892580046,46.6202959318214
315,1436892580755,55.0023087288848
316,1436892581485,60.9765106768049
317,1436892582216,60.7990746901531
318,1436892582949,57.4707484797071
319,1436892583674,55.7698317847146
320,1436892584495,58.5597056578489
321,1436892585235,58.4381174620109
322,1436892585941,61.6928653861921
323,1436892586660,59.7323352461846
324,1436892588374,61.1383322266609
325,1436892589177,58.8788161511095
326,1436892589858,56.4608458519609
327,1436892590618,48.8884518253779
328,1436892591336,57.0420513962117
329,1436892592058,60.0061038951433
330,1436892592829,63.2184509364151
331,1436892593578,47.125446251909
332,1436892594366,58.519705347226
333,1436892595083,60.175737833979
334,1436892595805,53.6955127018017
335,1436892596569,57.8945232870513
336,1436892597305,61.0698418572682
337,1436892598021,55.821486627734
338,1436892598780,60.7252986733963
339,1436892599589,58.657424738223
340,1436892600303,71.718002513396
341,1436892601026,47.4731496864967
342,1436892601748,59.9008670256148
343,1436892602498,52.4220136822793
344,1436892603229,57.5944163050305
345,1436892603969,57.1863393863366
346,1436892604709,59.4803236017609
347,1436892605418,57.1861566198506
348,1436892606092,56.237982272535
349,1436892606820,57.8872511281979
350,1436892607575,66.7192445047637
351,1436892608318,50.4878746903155
352,1436892609054,51.5473586507967
353,1436892609756,63.7621228860532
354,1436892611123,59.0271256076921
355,1436892611818,53.0952562245843
356,1436892612560,57.4997792864092
357,1436892613296,63.7485214468738
358,1436892614043,52.8316282443036
359,1436892614795,48.0841682536143
360,1436892615517,57.4664894436438
361,1436892616204,58.0474531708869
362,1436892616946,56.3554485354893
363,1436892617711,48.1663625326594
364,1436892618465,56.347477927996
365,1436892619259,53.3269266883649
366,1436892620004,52.5029404053337
367,1436892620728,57.9660054417904
368,1436892621445,61.3381754223329
369,1436892622187,51.5524845338779
370,1436892622877,46.4039311818244
371,1436892624321,52.2679996468838
372,1436892625049,47.2420585682553
373,1436892625770,51.5844171077202
374,1436892626484,55.369629237396
375,1436892627140,57.0865520867024
376,1436892627891,50.4737572270321
377,1436892628659,56.1689584156943
378,1436892629351,56.7672403884702
379,1436892629924,43.9207749627402
380,1436892630599,56.288363215388
381,1436892631336,61.2915362045508
382,1436892632055,52.5004479684287
383,1436892632804,50.1903835474741
384,1436892633574,63.1278620674581
385,1436892634303,56.9644080995291
386,1436892635034,44.2607289472049
387,1436892635769,53.3564747360523
388,1436892636498,51.1258342678743
389,1436892637152,46.5132570422043
390,1436892637888,59.2450879653275
391,1436892638664,58.2707806026335
392,1436892639387,58.0019222997897
393,1436892640122,44.1305890568734
394,1436892640885,68.3046024940157
395,1436892641607,49.6540593134731
396,1436892642333,49.6071667482166
397,1436892643073,50.6064561732036
398,1436892643807,61.5012505369608
399,1436892644533,61.305829144231
400,1436892645279,58.7023812785317
401,1436892646012,57.7345341621249
402,1436892646704,65.3539823610378
403,1436892647348,58.1266961491163
404,1436892648089,60.0850262985948
405,1436892648827,45.0238456733557
406,1436892649511,45.4642111292761
407,1436892650153,53.5500186707038
408,1436892650816,54.5252966834423
409,1436892651495,61.1596072657222
410,1436892652194,56.720598710994
411,1436892652862,55.3902592208687
412,1436892653638,64.6757671887662
413,1436892654368,60.5614636354582
414,1436892655113,59.9049246981092
415,1436892655856,52.4482877912704
416,1436892656584,49.6637380546189
417,1436892657251,51.8101949283042
418,1436892657984,57.1780741114426
419,1436892658737,55.5768965922508
420,1436892659470,61.3505474931298
421,1436892660232,62.8469531343108
422,1436892660999,56.9274546860094
423,1436892661731,47.4840464368247
424,1436892662412,48.8011531487291
425,1436892663147,66.0598281744668
426,1436892663887,57.9055910846236
427,1436892664600,59.9091027721213
428,1436892665327,56.5085790599565
429,1436892666008,57.8372571101993
430,1436892666737,57.3857879942649
431,1436892667415,53.6119046622916
432,1436892668062,62.5633360055067
433,1436892668810,45.8793470937848
434,1436892669652,49.6462918215829
435,1436892670337,62.6444649931078
436,1436892670983,54.171271539745
437,1436892671670,52.8870951203409
438,1436892672382,58.5741925198363
439,1436892673114,55.486007303604
440,1436892673860,54.5193725662766
441,1436892674517,47.647425536826
442,1436892675243,50.3858833273323
443,1436892675984,59.615841251336
444,1436892676723,61.3703236140119
445,1436892677446,53.5866774068812
446,1436892678097,55.8581873951825
447,1436892678810,58.4933257886126
448,1436892679560,57.3681652403759
449,1436892680259,57.9543989454255
450,1436892680951,58.8769742261633
451,1436892681685,55.9403118472775
452,1436892682424,58.8515625559139
453,1436892683145,50.5645132328115
454,1436892683887,65.617214552432
455,1436892684616,57.0788928951621
456,1436892685345,51.0710551080183
457,1436892686068,45.4523483988768
458,1436892686817,49.6614208294387
459,1436892687535,58.4013711342367
460,1436892688164,52.3057758230814
461,1436892688864,58.1241375547779
462,1436892689623,52.5992920189331
463,1436892690333,58.3184378143993
464,1436892691047,63.744253904266
465,1436892691769,59.1116811221559
466,1436892692482,56.2444341969191
467,1436892693140,58.9622412447992
468,1436892693886,58.6570111975292
469,1436892694609,56.8631293201307
470,1436892695359,63.2845809325625
471,1436892696083,58.9600114608268
472,1436892696813,59.6643317314995
473,1436892697540,57.0425434488893
474,1436892698211,53.2359585265048
475,1436892698915,59.9538898733856
476,1436892699688,59.1266069283815
477,1436892700425,62.9532376451785
478,1436892701153,60.5748916742001
479,1436892701873,52.1047500506013
480,1436892702549,65.5501997124681
481,1436892703270,59.5703413620404
482,1436892704012,53.9065913976603
483,1436892704766,54.3702008838847
484,1436892705508,57.2633945132015
485,1436892706235,62.8796987536144
486,1436892706969,54.4687280875946
487,1436892707694,59.3137009133945
488,1436892708372,47.9226234803835
489,1436892709028,60.2728626605583
490,1436892709789,54.6862046797656
491,1436892710640,60.8767771287496
492,1436892711339,56.9572070438347
493,1436892712063,61.3681940919466
494,1436892712835,58.1261595998169
495,1436892713521,58.6382817145458
496,1436892714256,58.4775865815594
497,1436892714981,60.87587588799
498,1436892716107,55.8039902540738
499,1436892716704,59.3632683410009
500,1436892717294,62.4854486252133
501,1436892718025,45.4986303421603
502,1436892718708,60.7614707899547
503,1436892719440,54.9725381359916
504,1436892720188,47.5285837378418
505,1436892720914,57.4497537196429
506,1436892721690,57.4610737682933
507,1436892722422,57.9616896258147
508,1436892723127,50.3113657389708
509,1436892723784,55.448786461082
510,1436892724517,67.0879894461487
511,1436892725317,62.276395219119
512,1436892726076,57.4336004560772
513,1436892726808,57.8588642893916
514,1436892727526,51.0063710043423
515,1436892728313,69.2225602902405
516,1436892729064,47.4328476254325
517,1436892729781,55.6756219466529
518,1436892730520,67.388092614761
519,1436892731247,62.948712309583
520,1436892731963,64.46594080873
521,1436892732550,51.5582130995233
522,1436892733231,63.3299729968887
523,1436892733924,71.6950386587432
524,1436892734627,58.0046919704965
525,1436892735342,64.4585135167264
526,1436892736148,51.3267916274472
527,1436892736897,54.2282259493
528,1436892737544,48.0801807402823
529,1436892738226,60.5413118232843
530,1436892738880,61.1948911342754
531,1436892739601,69.02425616898
532,1436892740332,52.4619715686527
533,1436892741071,54.4294616445553
534,1436892741807,54.2812850502159
535,1436892742498,61.3050072195484
536,1436892743087,62.5220225585136
537,1436892743827,56.7393498004948
538,1436892744567,57.0711580858671
539,1436892745308,57.8034137203231
540,1436892746046,60.0772895815679
541,1436892746787,47.5622637333751
542,1436892747553,53.4829845396929
543,1436892748264,47.4669617724603
544,1436892748965,59.2368530707007
545,1436892749629,63.5903949543596
546,1436892750314,58.9031938782024
547,1436892751050,56.326849318374
548,1436892751796,57.64940895538
549,1436892752477,61.1254630937662
550,1436892753110,48.0111429401257
551,1436892753853,54.217484322548
552,1436892754590,54.1975289171272
553,1436892755333,53.8746315107117
554,1436892756056,61.0558202351722
555,1436892756800,54.857779976415
556,1436892757522,62.5747122015856
557,1436892758249,55.9160738251238
558,1436892759029,59.5389858729413
559,1436892759714,55.5085942232958
560,1436892760400,56.8383402203818
561,1436892761131,46.472646836626
562,1436892761863,45.5990333648131
563,1436892762632,50.0754854499165
564,1436892763350,57.6362823764345
565,1436892764090,55.4576212850686
566,1436892764853,52.8728507918979
567,1436892765581,64.1561490716513
568,1436892766305,56.6606409555384
569,1436892767039,44.2287499873959
570,1436892767729,52.0605118835743
571,1436892768458,59.014873812365
572,1436892769174,55.5580684065906
573,1436892769879,60.2503073320594
574,1436892770531,56.4257169568281
575,1436892771250,47.6350263160454
576,1436892772023,53.7483740758006
