id,attr_time,attr_x,attr_y,attr_z
1,1436372950615,-24.392,10.186,13.362
2,1436372950637,-24.392,10.186,13.362
3,1436372950658,-24.392,10.186,13.362
4,1436372950677,-24.392,10.186,13.362
5,1436372950695,-24.392,10.511,13.362
6,1436372950717,-24.392,10.511,13.362
7,1436372950738,-24.392,10.511,13.362
8,1436372950758,-24.392,10.511,13.362
9,1436372950778,-24.392,10.511,13.362
10,1436372950798,-24.392,10.511,13.362
11,1436372950819,-24.392,10.511,13.362
12,1436372950837,-24.392,10.511,13.362
13,1436372950864,-24.392,10.511,13.362
14,1436372950929,-24.392,10.511,13.362
15,1436372950930,-24.392,10.511,13.362
16,1436372950943,-24.392,10.511,13.362
17,1436372950944,-24.392,10.511,13.362
18,1436372950957,-24.392,10.511,13.362
19,1436372950977,-24.392,10.511,13.362
20,1436372950996,-24.392,10.511,13.362
21,1436372951015,-24.392,10.511,13.362
22,1436372951037,-24.392,10.511,13.362
23,1436372951055,-24.392,10.511,13.362
24,1436372951078,-24.392,10.511,13.362
25,1436372951101,-24.392,10.511,13.362
26,1436372951117,-24.392,10.844,13.362
27,1436372951135,-24.392,10.844,13.362
28,1436372951159,-24.392,10.844,13.362
29,1436372951179,-24.392,10.844,13.362
30,1436372951199,-24.392,10.844,13.362
31,1436372951218,-24.392,10.844,13.362
32,1436372951239,-24.392,10.844,13.362
33,1436372951259,-24.392,10.844,13.362
34,1436372951278,-24.392,10.844,13.362
35,1436372951300,-24.392,10.844,13.362
36,1436372951322,-24.392,10.844,13.362
37,1436372951341,-24.392,11.148,13.362
38,1436372951358,-24.392,11.148,13.362
39,1436372951380,-24.392,11.148,13.362
40,1436372951398,-24.392,11.148,13.362
41,1436372951418,-24.392,11.148,13.362
42,1436372951439,-24.392,11.148,13.362
43,1436372951459,-24.392,11.148,13.362
44,1436372951479,-24.392,11.148,13.362
45,1436372951499,-24.392,11.148,13.362
46,1436372951518,-24.392,11.148,13.362
47,1436372951539,-24.392,11.148,13.362
48,1436372951559,-24.392,11.148,13.021
49,1436372951669,-24.392,11.148,13.021
50,1436372951670,-24.392,11.148,13.021
51,1436372951671,-24.392,11.148,13.021
52,1436372951672,-24.392,11.148,13.021
53,1436372951673,-24.392,11.148,13.021
54,1436372951697,-24.392,11.148,13.021
55,1436372951698,-24.392,11.148,13.021
56,1436372951722,-24.392,11.148,13.021
57,1436372951737,-24.392,11.148,13.021
58,1436372951756,-24.392,11.148,13.021
59,1436372951776,-24.392,11.148,13.021
60,1436372951797,-24.392,11.148,13.021
61,1436372951824,-24.392,11.148,13.021
62,1436372951837,-24.392,11.148,13.021
63,1436372951857,-24.392,11.148,13.021
64,1436372951879,-24.392,11.148,13.021
65,1436372951900,-24.392,11.148,13.021
66,1436372951919,-24.392,11.148,13.021
67,1436372951940,-24.392,11.148,13.021
68,1436372951959,-24.392,11.148,13.021
69,1436372951979,-24.392,11.148,13.021
70,1436372952000,-24.392,11.148,13.021
71,1436372952019,-24.392,11.148,13.021
72,1436372952041,-24.392,11.148,13.021
73,1436372952057,-24.392,11.148,13.021
74,1436372952080,-24.392,11.148,13.021
75,1436372952099,-24.392,11.148,13.021
76,1436372952119,-24.392,11.148,13.021
77,1436372952139,-24.392,11.148,13.021
78,1436372952159,-24.392,11.148,13.021
79,1436372952180,-24.392,11.148,13.021
80,1436372952200,-24.392,11.148,13.021
81,1436372952220,-24.392,11.148,13.021
82,1436372952238,-24.392,11.148,13.021
83,1436372952261,-24.392,11.148,13.021
84,1436372952284,-24.392,11.148,13.021
85,1436372952300,-24.392,11.148,13.021
86,1436372952406,-24.392,11.148,13.021
87,1436372952428,-24.392,11.148,13.021
88,1436372952429,-24.392,11.148,13.021
89,1436372952430,-24.392,11.148,13.021
90,1436372952431,-24.392,11.148,13.021
91,1436372952432,-24.392,11.148,13.021
92,1436372952438,-24.392,11.148,13.021
93,1436372952457,-24.392,11.148,13.021
94,1436372952477,-24.392,11.148,13.021
95,1436372952502,-24.392,11.148,13.021
96,1436372952518,-24.392,11.148,13.021
97,1436372952539,-24.392,11.148,13.342
98,1436372952558,-24.392,11.148,13.342
99,1436372952577,-24.392,11.148,13.342
100,1436372952597,-24.392,11.148,13.342
101,1436372952620,-24.392,11.148,13.342
102,1436372952641,-24.392,11.148,13.342
103,1436372952660,-24.392,11.148,13.342
104,1436372952680,-24.392,11.148,13.342
105,1436372952700,-24.392,11.148,13.342
106,1436372952720,-24.392,11.46,13.342
107,1436372952741,-24.392,11.46,13.342
108,1436372952760,-24.392,11.46,13.342
109,1436372952780,-24.392,11.46,13.342
110,1436372952802,-24.392,11.46,13.342
111,1436372952817,-24.392,11.46,13.342
112,1436372952840,-24.392,11.46,13.653
113,1436372952861,-24.392,11.46,13.653
114,1436372952881,-24.392,11.46,13.653
115,1436372952902,-24.392,11.46,13.653
116,1436372952920,-24.392,11.46,13.653
117,1436372952941,-24.392,11.77,13.653
118,1436372952959,-24.392,11.77,13.653
119,1436372952981,-24.392,11.77,13.653
120,1436372953002,-24.392,11.77,13.653
121,1436372953022,-24.392,11.77,13.653
122,1436372953042,-24.392,11.77,13.653
123,1436372953059,-24.392,11.77,13.653
124,1436372953127,-24.392,11.77,13.653
125,1436372953131,-24.392,11.77,13.653
126,1436372953132,-24.392,11.77,13.653
127,1436372953143,-24.392,11.77,13.653
128,1436372953157,-24.392,12.074,13.653
129,1436372953183,-24.392,12.074,13.653
130,1436372953199,-24.392,12.074,13.653
131,1436372953219,-24.392,12.074,13.653
132,1436372953239,-24.392,12.074,13.653
133,1436372953258,-24.392,12.074,13.653
134,1436372953281,-24.392,12.074,13.653
135,1436372953307,-24.392,12.074,13.32
136,1436372953322,-24.392,12.074,13.32
137,1436372953342,-24.392,12.074,13.32
138,1436372953358,-24.392,12.377,13.32
139,1436372953379,-24.392,12.377,13.32
140,1436372953399,-24.392,12.377,13.32
141,1436372953422,-24.392,12.377,13.32
142,1436372953438,-24.392,12.377,13.32
143,1436372953458,-24.392,12.377,13.32
144,1436372953478,-24.392,12.695,13.32
145,1436372953500,-24.392,12.695,13.32
146,1436372953522,-24.392,12.695,13.32
147,1436372953539,-24.392,12.695,13.32
148,1436372953559,-24.392,12.695,13.32
149,1436372953582,-24.392,12.695,13.32
150,1436372953599,-24.392,12.695,13.32
151,1436372953619,-24.392,12.695,13.32
152,1436372953641,-24.392,12.695,13.32
153,1436372953662,-24.392,12.998,13.32
154,1436372953682,-24.392,12.998,13.32
155,1436372953702,-24.392,12.998,13.32
156,1436372953721,-24.392,12.998,13.32
157,1436372953741,-24.392,12.998,13.32
158,1436372953760,-24.392,12.998,13.32
159,1436372953779,-24.392,12.998,13.32
160,1436372953800,-24.392,12.998,13.32
161,1436372953885,-24.392,12.998,13.32
162,1436372953886,-24.392,12.998,13.32
163,1436372953887,-24.392,12.998,13.32
164,1436372953888,-24.392,12.998,13.32
165,1436372953899,-24.392,12.998,13.32
166,1436372953922,-24.392,12.998,13.32
167,1436372953939,-24.392,12.998,13.32
168,1436372953959,-24.392,12.998,13.32
169,1436372953981,-24.392,12.998,13.32
170,1436372953999,-24.392,12.998,13.32
171,1436372954020,-24.392,12.998,13.32
172,1436372954040,-24.392,12.998,13.32
173,1436372954060,-24.392,12.998,13.32
174,1436372954078,-24.392,12.998,13.32
175,1436372954102,-24.392,12.998,13.32
176,1436372954119,-24.392,12.998,13.32
177,1436372954142,-24.392,12.998,13.32
178,1436372954161,-24.392,12.998,13.32
179,1436372954179,-24.392,12.998,13.32
180,1436372954202,-24.392,12.998,13.32
181,1436372954222,-24.392,12.998,13.673
182,1436372954242,-24.392,12.998,13.673
183,1436372954263,-24.075,12.998,13.673
184,1436372954281,-24.075,12.998,13.673
185,1436372954300,-24.075,12.998,13.984
186,1436372954325,-24.075,12.998,13.984
187,1436372954349,-24.075,12.998,13.984
188,1436372954373,-24.075,12.998,13.984
189,1436372954382,-24.075,12.998,14.292
190,1436372954400,-24.075,12.998,14.292
191,1436372954421,-24.075,12.998,14.292
192,1436372954441,-24.075,12.998,14.292
193,1436372954462,-24.075,12.998,14.292
194,1436372954485,-24.075,12.998,14.292
195,1436372954504,-24.075,12.998,14.292
196,1436372954521,-24.075,12.998,14.292
197,1436372954545,-24.075,12.998,14.292
198,1436372954621,-24.075,12.998,14.292
199,1436372954622,-24.075,12.998,14.292
200,1436372954623,-24.075,12.998,14.292
201,1436372954624,-24.075,12.998,14.292
202,1436372954640,-24.075,12.998,14.292
203,1436372954661,-24.075,12.998,13.967
204,1436372954679,-24.075,12.998,13.967
205,1436372954704,-24.075,12.998,13.967
206,1436372954719,-24.075,12.998,13.967
207,1436372954739,-24.075,12.998,13.65
208,1436372954765,-24.075,12.998,13.65
209,1436372954780,-24.075,12.998,13.65
210,1436372954803,-24.075,12.998,13.65
211,1436372954823,-24.075,12.998,13.65
212,1436372954842,-24.075,12.998,13.319
213,1436372954862,-24.075,12.998,13.319
214,1436372954882,-24.075,12.998,13.319
215,1436372954902,-24.075,12.998,13.319
216,1436372954923,-24.075,12.998,13.319
217,1436372954942,-24.075,12.998,13.319
218,1436372954962,-24.075,12.998,13.319
219,1436372954982,-24.075,12.998,13.319
220,1436372955001,-24.075,12.998,13.003
221,1436372955022,-24.075,12.998,13.003
222,1436372955042,-24.075,12.998,13.003
223,1436372955062,-24.075,12.998,13.003
224,1436372955082,-24.075,12.998,13.003
225,1436372955099,-24.075,12.998,13.003
226,1436372955122,-24.075,12.998,13.003
227,1436372955142,-24.075,12.998,13.003
228,1436372955162,-24.075,13.308,13.003
229,1436372955182,-24.075,13.308,12.696
230,1436372955201,-24.075,13.308,12.696
231,1436372955221,-24.075,13.308,12.696
232,1436372955241,-24.075,13.308,12.696
233,1436372955260,-24.075,13.308,12.696
234,1436372955409,-24.075,13.308,12.696
235,1436372955410,-24.075,13.308,12.696
236,1436372955411,-24.075,13.308,12.382
237,1436372955412,-24.075,13.308,12.382
238,1436372955413,-24.075,13.308,12.382
239,1436372955414,-24.075,13.308,12.382
240,1436372955415,-24.394,13.308,12.382
241,1436372955482,-24.394,13.308,12.382
242,1436372955483,-24.394,13.308,12.382
243,1436372955484,-24.394,13.308,12.382
244,1436372955485,-24.394,13.308,12.382
245,1436372955532,-24.394,13.308,12.382
246,1436372955533,-24.394,13.308,12.382
247,1436372955554,-24.394,13.308,12.382
248,1436372955560,-24.394,13.308,12.382
249,1436372955661,-24.394,13.308,12.382
250,1436372955662,-24.394,13.308,12.382
251,1436372955663,-24.394,13.308,12.382
252,1436372955664,-24.394,13.308,12.382
253,1436372955665,-24.394,13.006,12.382
254,1436372955690,-24.394,13.006,12.382
255,1436372955700,-24.394,13.006,12.382
256,1436372955720,-24.394,13.006,12.382
257,1436372955740,-24.394,13.006,12.382
258,1436372955762,-24.394,13.006,12.382
259,1436372955783,-24.394,13.006,12.382
260,1436372955804,-24.394,13.006,12.382
261,1436372955821,-24.394,13.006,12.382
262,1436372955842,-24.394,13.006,12.382
263,1436372955862,-24.394,13.006,12.382
264,1436372955882,-24.394,13.006,12.382
265,1436372955902,-24.394,13.006,12.382
266,1436372955920,-24.394,13.006,12.382
267,1436372955941,-24.394,12.69,12.382
268,1436372955960,-24.394,12.69,12.382
269,1436372955980,-24.394,12.69,12.382
270,1436372956000,-24.394,12.69,12.382
271,1436372956023,-24.394,12.69,12.382
272,1436372956042,-24.394,12.69,12.382
273,1436372956062,-24.394,12.69,12.382
274,1436372956088,-24.394,12.69,12.382
275,1436372956154,-24.394,12.69,12.382
276,1436372956155,-24.394,12.69,12.382
277,1436372956156,-24.394,12.69,12.382
278,1436372956163,-24.394,12.69,12.382
279,1436372956183,-24.394,12.69,12.382
280,1436372956205,-24.394,12.69,12.068
281,1436372956221,-24.394,12.69,12.068
282,1436372956240,-24.394,12.69,12.068
283,1436372956262,-24.394,12.69,12.068
284,1436372956282,-24.394,12.69,12.068
285,1436372956301,-24.394,12.69,12.068
286,1436372956322,-24.394,12.69,12.068
287,1436372956342,-24.394,12.69,12.068
288,1436372956363,-24.394,12.69,12.068
289,1436372956384,-24.394,12.69,12.068
290,1436372956404,-24.394,12.69,12.068
291,1436372956423,-24.394,12.69,12.068
292,1436372956442,-24.394,12.69,12.068
293,1436372956464,-24.394,12.69,12.068
294,1436372956482,-24.394,12.69,12.068
295,1436372956503,-24.394,12.69,12.068
296,1436372956523,-24.394,12.69,12.068
297,1436372956543,-24.394,12.69,12.068
298,1436372956562,-24.394,12.69,12.068
299,1436372956584,-24.394,12.69,12.068
300,1436372956603,-24.394,12.69,12.068
301,1436372956622,-24.394,12.69,12.068
302,1436372956642,-24.394,12.69,12.068
303,1436372956664,-24.394,12.69,12.068
304,1436372956684,-24.394,12.69,12.068
305,1436372956705,-24.394,12.69,12.068
306,1436372956722,-24.394,12.69,12.068
307,1436372956741,-24.394,12.69,12.068
308,1436372956762,-24.394,12.69,12.068
309,1436372956783,-24.394,12.69,12.068
310,1436372956801,-24.394,12.69,12.068
311,1436372956868,-24.394,12.69,12.068
312,1436372956869,-24.394,12.69,12.068
313,1436372956870,-24.394,12.69,12.068
314,1436372956889,-24.394,12.69,12.068
315,1436372956902,-24.394,12.69,12.068
316,1436372956921,-24.394,12.69,12.068
317,1436372956941,-24.394,12.69,12.068
318,1436372956962,-24.394,12.69,12.068
319,1436372956983,-24.394,12.69,12.068
320,1436372957002,-24.394,12.69,12.068
321,1436372957022,-24.394,12.69,12.068
322,1436372957043,-24.394,12.69,12.068
323,1436372957062,-24.394,12.69,12.068
324,1436372957084,-24.394,12.69,12.068
325,1436372957104,-24.394,12.69,12.068
326,1436372957124,-24.394,12.69,12.068
327,1436372957144,-24.394,12.69,12.068
328,1436372957163,-24.394,12.69,12.068
329,1436372957184,-24.394,12.69,12.068
330,1436372957204,-24.394,12.69,12.068
331,1436372957225,-24.394,12.69,11.744
332,1436372957245,-24.394,12.69,11.744
333,1436372957264,-24.394,12.69,11.744
334,1436372957282,-24.394,12.69,11.744
335,1436372957303,-24.394,12.69,11.744
336,1436372957321,-24.394,12.69,11.744
337,1436372957341,-24.394,12.69,11.744
338,1436372957368,-24.394,12.69,11.744
339,1436372957381,-24.394,12.69,11.744
340,1436372957401,-24.394,12.69,11.744
341,1436372957421,-24.394,12.69,11.744
342,1436372957441,-24.394,12.69,11.744
343,1436372957462,-24.394,12.69,11.744
344,1436372957482,-24.394,12.69,12.084
345,1436372957502,-24.394,12.69,12.084
346,1436372957523,-24.394,12.69,12.084
347,1436372957545,-24.394,12.69,12.084
348,1436372957624,-24.394,12.69,12.084
349,1436372957625,-24.394,12.69,12.442
350,1436372957626,-24.394,12.69,12.442
351,1436372957627,-24.394,12.69,12.442
352,1436372957643,-24.394,12.69,12.442
353,1436372957665,-24.394,12.69,12.442
354,1436372957682,-24.394,12.69,12.442
355,1436372957702,-24.394,12.69,12.442
356,1436372957722,-24.394,12.69,12.442
357,1436372957742,-24.394,12.69,12.442
358,1436372957764,-24.394,12.69,12.442
359,1436372957783,-24.394,12.69,12.742
360,1436372957803,-24.394,12.69,12.742
361,1436372957825,-24.394,12.69,12.742
362,1436372957845,-24.394,12.69,12.742
363,1436372957865,-24.394,12.69,12.742
364,1436372957883,-24.394,12.69,12.742
365,1436372957903,-24.394,12.69,12.742
366,1436372957925,-24.394,12.69,12.742
367,1436372957945,-24.394,12.69,12.742
368,1436372957965,-24.394,12.69,12.742
369,1436372957982,-24.394,12.69,12.742
370,1436372958004,-24.394,12.69,12.742
371,1436372958023,-24.394,12.69,12.742
372,1436372958045,-24.394,12.69,12.742
373,1436372958065,-24.394,12.69,12.742
374,1436372958087,-24.394,12.69,12.742
375,1436372958102,-24.394,12.69,12.742
376,1436372958125,-24.394,12.69,12.742
377,1436372958145,-24.394,12.69,12.742
378,1436372958165,-24.394,12.69,12.742
379,1436372958187,-24.394,12.69,12.742
380,1436372958203,-24.394,12.69,12.742
381,1436372958225,-24.394,12.69,12.742
382,1436372958244,-24.394,12.69,12.742
383,1436372958264,-24.394,12.69,12.742
384,1436372958287,-24.394,12.69,12.742
385,1436372958346,-24.394,12.69,12.742
386,1436372958347,-24.394,12.69,12.742
387,1436372958356,-24.394,12.69,12.742
388,1436372958364,-24.394,12.69,12.742
389,1436372958383,-24.394,12.69,12.742
390,1436372958405,-24.394,12.69,12.742
391,1436372958463,-24.394,12.69,12.742
392,1436372958464,-24.394,12.69,12.742
393,1436372958465,-24.394,12.69,12.742
394,1436372958518,-24.394,12.69,12.742
395,1436372958519,-24.394,12.69,12.742
396,1436372958522,-24.394,12.69,12.742
397,1436372958544,-24.394,12.69,12.742
398,1436372958565,-24.394,12.69,12.742
399,1436372958584,-24.394,12.69,12.742
400,1436372958605,-24.394,12.69,12.742
401,1436372958623,-24.394,12.69,12.742
402,1436372958646,-24.394,12.69,12.742
403,1436372958666,-24.394,12.69,12.742
404,1436372958683,-24.394,12.69,12.742
405,1436372958707,-24.394,12.69,12.742
406,1436372958723,-24.394,12.69,12.742
407,1436372958744,-24.394,12.69,12.742
408,1436372958766,-24.394,12.69,13.052
409,1436372958783,-24.394,12.69,13.052
410,1436372958809,-24.394,12.69,13.052
411,1436372958824,-24.394,12.69,13.052
412,1436372958843,-24.394,12.69,13.052
413,1436372958868,-24.394,12.69,13.052
414,1436372958886,-24.394,12.69,13.052
415,1436372958907,-24.394,12.69,13.052
416,1436372958923,-24.394,12.69,13.052
417,1436372958943,-24.394,12.69,13.052
418,1436372958964,-24.394,12.69,13.052
419,1436372958983,-24.394,12.69,13.052
420,1436372959008,-24.394,12.69,13.375
421,1436372959029,-24.394,12.69,13.375
422,1436372959048,-24.394,12.69,13.375
423,1436372959066,-24.394,12.69,13.375
424,1436372959088,-24.394,12.69,13.375
425,1436372959142,-24.394,12.39,13.739
426,1436372959143,-24.394,12.39,13.739
427,1436372959144,-24.394,12.39,13.739
428,1436372959165,-24.394,12.39,13.739
429,1436372959185,-24.394,12.39,13.739
430,1436372959204,-24.394,12.39,13.739
431,1436372959223,-24.394,12.39,13.739
432,1436372959243,-24.394,12.39,14.057
433,1436372959286,-24.394,12.077,14.057
434,1436372959287,-24.394,12.077,14.057
435,1436372959307,-24.394,12.077,14.057
436,1436372959326,-24.394,12.077,14.057
437,1436372959349,-24.394,12.077,14.057
438,1436372959367,-24.394,12.077,14.057
439,1436372959387,-24.394,12.077,14.057
440,1436372959406,-24.394,12.077,14.057
441,1436372959425,-24.394,12.077,14.057
442,1436372959444,-24.394,12.077,14.057
443,1436372959465,-24.394,12.077,14.057
444,1436372959487,-24.394,12.077,14.057
445,1436372959505,-24.394,12.077,14.057
446,1436372959524,-24.394,12.077,14.057
447,1436372959550,-24.394,12.077,14.057
448,1436372959567,-24.394,12.077,14.057
449,1436372959583,-24.394,12.077,14.057
450,1436372959603,-24.394,12.077,14.057
451,1436372959623,-24.394,12.077,14.057
452,1436372959644,-24.394,12.077,14.057
453,1436372959666,-24.394,12.077,14.057
454,1436372959687,-24.394,12.077,14.057
455,1436372959704,-24.394,12.077,14.057
456,1436372959724,-24.394,12.077,14.057
457,1436372959744,-24.394,12.077,14.057
458,1436372959764,-24.394,12.077,14.057
459,1436372959784,-24.394,12.077,14.057
460,1436372959804,-24.394,12.077,14.057
461,1436372959824,-24.394,12.077,14.057
462,1436372959872,-24.394,12.077,14.057
463,1436372959873,-24.394,12.077,14.057
464,1436372959884,-24.394,12.077,14.057
465,1436372959904,-24.394,12.077,14.057
466,1436372959924,-24.394,12.077,14.418
467,1436372959944,-24.394,12.077,14.418
468,1436372959964,-24.394,12.077,14.418
469,1436372959984,-24.394,12.077,14.418
470,1436372960002,-24.394,11.758,14.418
471,1436372960022,-24.394,11.758,14.779
472,1436372960043,-24.394,11.758,14.779
473,1436372960062,-24.394,11.758,14.779
474,1436372960085,-24.394,11.758,14.779
475,1436372960105,-24.394,11.419,15.13
476,1436372960123,-24.394,11.419,15.13
477,1436372960145,-24.394,11.419,15.13
478,1436372960163,-24.394,11.419,15.13
479,1436372960184,-24.394,11.029,15.13
480,1436372960205,-24.394,11.029,15.512
481,1436372960233,-24.073,11.029,15.512
482,1436372960243,-24.073,11.029,15.512
483,1436372960263,-24.073,10.707,15.512
484,1436372960283,-24.073,10.707,15.87
485,1436372960303,-24.073,10.707,15.87
486,1436372960323,-24.073,10.707,15.87
487,1436372960344,-24.073,10.707,15.87
488,1436372960365,-24.073,10.375,16.229
489,1436372960386,-24.073,10.375,16.229
490,1436372960406,-24.073,10.375,16.229
491,1436372960426,-23.774,10.375,16.593
492,1436372960445,-23.774,9.936,16.593
493,1436372960464,-23.774,9.936,16.593
494,1436372960484,-23.774,9.561,16.903
495,1436372960509,-23.774,9.167,16.903
496,1436372960537,-23.774,8.16,16.903
497,1436372960544,-23.774,7.568,17.233
498,1436372960567,-23.774,6.855,17.233
499,1436372960584,-23.774,6.271,17.233
500,1436372960604,-23.774,6.271,17.233
501,1436372960624,-23.774,6.271,17.233
502,1436372960645,-23.774,6.271,17.576
503,1436372960665,-23.774,5.97,17.576
504,1436372960685,-23.774,5.97,17.576
505,1436372960705,-23.774,5.97,17.576
506,1436372960728,-23.774,5.63,17.576
507,1436372960744,-23.774,5.63,17.576
508,1436372960767,-23.774,5.63,17.576
