id,attr_time,attr_x,attr_y,attr_z
1,1436372950617,-2.322,-47.975,7.159
2,1436372950637,-2.0,-47.975,7.159
3,1436372950657,-2.0,-47.975,7.159
4,1436372950677,-2.0,-47.975,7.159
5,1436372950697,-2.0,-47.975,7.159
6,1436372950717,-2.0,-47.975,7.159
7,1436372950737,-2.0,-47.975,7.159
8,1436372950799,-2.0,-47.975,7.159
9,1436372950800,-2.0,-47.975,6.858
10,1436372950801,-2.0,-47.975,6.858
11,1436372950817,-2.0,-47.975,6.858
12,1436372950838,-2.0,-47.975,6.858
13,1436372950857,-2.0,-47.975,6.858
14,1436372950877,-2.0,-47.975,6.858
15,1436372950897,-2.0,-47.975,6.858
16,1436372950917,-2.0,-47.975,6.858
17,1436372950937,-2.0,-47.975,6.858
18,1436372950957,-2.0,-47.975,6.858
19,1436372950978,-2.0,-47.975,6.858
20,1436372950999,-2.0,-47.975,6.858
21,1436372951023,-2.0,-47.975,6.858
22,1436372951039,-2.0,-47.975,6.858
23,1436372951059,-2.0,-47.975,6.858
24,1436372951080,-2.0,-47.975,6.858
25,1436372951099,-2.0,-47.975,6.858
26,1436372951118,-2.0,-47.975,6.858
27,1436372951139,-2.0,-47.975,6.858
28,1436372951162,-2.0,-47.975,6.858
29,1436372951181,-2.0,-47.975,6.858
30,1436372951199,-2.0,-47.975,6.858
31,1436372951220,-2.0,-47.975,6.858
32,1436372951242,-2.0,-47.975,6.858
33,1436372951266,-2.0,-47.975,6.858
34,1436372951277,-2.0,-47.975,6.858
35,1436372951299,-2.0,-47.975,6.858
36,1436372951317,-2.0,-47.975,6.858
37,1436372951338,-2.0,-47.975,6.858
38,1436372951360,-2.0,-47.975,6.858
39,1436372951379,-2.0,-47.975,6.858
40,1436372951399,-2.0,-47.975,6.858
41,1436372951421,-2.0,-47.975,6.858
42,1436372951441,-2.0,-47.975,6.858
43,1436372951460,-2.301,-47.975,6.858
44,1436372951478,-2.301,-47.975,6.858
45,1436372951500,-2.301,-47.975,6.858
46,1436372951521,-2.301,-47.975,6.858
47,1436372951542,-2.301,-47.975,6.858
48,1436372951562,-2.301,-47.975,6.858
49,1436372951581,-2.301,-47.975,6.858
50,1436372951600,-2.301,-47.975,6.858
51,1436372951619,-2.301,-47.975,6.858
52,1436372951640,-2.301,-47.975,6.858
53,1436372951660,-2.606,-47.975,6.858
54,1436372951701,-2.606,-47.975,6.858
55,1436372951702,-2.606,-47.975,6.858
56,1436372951719,-2.606,-47.975,6.858
57,1436372951739,-2.606,-47.975,6.858
58,1436372951761,-2.606,-47.975,6.858
59,1436372951780,-2.606,-47.975,6.858
60,1436372951799,-2.606,-47.975,6.858
61,1436372951819,-2.606,-47.975,6.858
62,1436372951840,-2.606,-47.975,6.858
63,1436372951859,-2.606,-47.975,6.858
64,1436372951880,-2.606,-47.975,6.858
65,1436372951901,-2.606,-47.975,6.858
66,1436372951920,-2.606,-47.975,6.858
67,1436372951942,-2.606,-47.975,6.858
68,1436372951962,-2.908,-47.975,6.858
69,1436372951984,-2.908,-47.975,6.858
70,1436372952001,-2.908,-47.975,6.858
71,1436372952021,-2.908,-47.975,6.858
72,1436372952040,-2.908,-47.975,6.858
73,1436372952062,-2.908,-47.975,6.858
74,1436372952183,-2.908,-47.975,6.858
75,1436372952184,-2.908,-47.975,6.858
76,1436372952185,-2.908,-47.975,6.858
77,1436372952186,-2.908,-47.975,6.858
78,1436372952187,-2.908,-47.975,6.858
79,1436372952188,-3.244,-47.975,6.858
80,1436372952228,-3.244,-47.975,6.858
81,1436372952229,-3.244,-47.975,6.858
82,1436372952457,-3.244,-47.975,6.858
83,1436372952458,-3.244,-47.975,6.858
84,1436372952459,-3.244,-47.975,6.858
85,1436372952460,-3.244,-47.975,6.858
86,1436372952461,-3.244,-47.975,6.858
87,1436372952462,-3.244,-47.975,6.858
88,1436372952463,-3.244,-47.975,6.858
89,1436372952464,-3.244,-47.975,6.858
90,1436372952465,-3.244,-47.975,6.858
91,1436372952466,-3.244,-47.975,6.858
92,1436372952467,-3.244,-47.975,6.858
93,1436372952468,-3.244,-47.975,7.171
94,1436372952506,-3.244,-47.975,7.171
95,1436372952507,-3.244,-47.975,7.171
96,1436372952523,-3.244,-47.975,7.171
97,1436372952543,-3.244,-47.975,7.501
98,1436372952561,-3.244,-47.975,7.501
99,1436372952627,-3.244,-47.975,7.501
100,1436372952628,-3.244,-47.975,7.501
101,1436372952629,-3.244,-47.975,7.501
102,1436372952651,-3.244,-47.975,7.501
103,1436372952669,-3.244,-47.975,7.82
104,1436372952685,-3.244,-47.975,7.82
105,1436372952701,-3.244,-47.975,7.82
106,1436372952722,-3.244,-47.975,7.82
107,1436372952743,-3.244,-47.975,7.82
108,1436372952762,-3.244,-47.975,7.82
109,1436372952782,-3.244,-47.975,7.82
110,1436372952804,-3.244,-47.975,8.16
111,1436372952824,-3.244,-47.975,8.16
112,1436372952841,-3.244,-47.975,8.16
113,1436372952861,-3.244,-47.975,8.16
114,1436372952880,-3.244,-47.975,8.16
115,1436372952900,-3.244,-47.975,8.16
116,1436372952921,-3.244,-47.975,8.16
117,1436372952940,-3.244,-47.975,8.16
118,1436372952961,-3.244,-47.975,8.16
119,1436372952981,-3.244,-47.975,8.16
120,1436372953001,-3.244,-47.975,8.16
121,1436372953022,-3.244,-47.975,8.16
122,1436372953041,-3.244,-47.975,8.16
123,1436372953060,-3.244,-47.975,8.16
124,1436372953082,-3.244,-47.975,8.47
125,1436372953113,-3.244,-47.975,8.47
126,1436372953125,-3.244,-47.975,8.47
127,1436372953145,-3.244,-47.975,8.47
128,1436372953159,-3.562,-47.669,8.47
129,1436372953181,-3.562,-47.669,8.47
130,1436372953200,-3.562,-47.669,8.47
131,1436372953221,-3.562,-47.669,8.47
132,1436372953240,-3.562,-47.669,8.47
133,1436372953259,-3.562,-47.669,8.47
134,1436372953284,-3.562,-47.669,8.47
135,1436372953302,-3.562,-47.669,8.47
136,1436372953321,-3.863,-47.669,8.47
137,1436372953341,-3.863,-47.669,8.47
138,1436372953360,-3.863,-47.669,8.47
139,1436372953381,-3.863,-47.669,8.47
140,1436372953402,-3.863,-47.669,8.07
141,1436372953420,-3.863,-47.669,8.07
142,1436372953448,-3.863,-47.669,8.07
143,1436372953468,-3.863,-47.669,7.763
144,1436372953489,-3.863,-47.669,7.763
145,1436372953502,-3.863,-47.669,7.763
146,1436372953527,-3.863,-47.669,7.763
147,1436372953574,-3.863,-47.669,7.386
148,1436372953575,-3.863,-47.669,7.386
149,1436372953593,-4.179,-47.669,7.386
150,1436372953604,-4.179,-47.669,7.386
151,1436372953625,-4.179,-47.669,7.386
152,1436372953641,-4.179,-47.669,7.386
153,1436372953661,-4.179,-47.669,7.061
154,1436372953683,-4.179,-47.669,7.061
155,1436372953725,-4.179,-47.669,7.061
156,1436372953726,-4.528,-47.669,7.061
157,1436372953743,-4.528,-47.669,7.061
158,1436372953763,-4.528,-47.669,7.061
159,1436372953785,-4.528,-47.669,7.061
160,1436372953803,-4.528,-47.669,7.061
161,1436372953822,-4.528,-47.669,7.061
162,1436372953845,-4.844,-47.669,7.061
163,1436372953866,-4.844,-47.669,7.061
164,1436372953883,-4.844,-47.669,7.061
165,1436372953902,-4.844,-47.669,7.061
166,1436372953922,-4.844,-47.669,7.061
167,1436372953941,-4.844,-47.669,7.061
168,1436372953962,-4.844,-47.669,6.756
169,1436372953983,-4.844,-47.669,6.756
170,1436372954003,-4.844,-47.669,6.756
171,1436372954068,-4.844,-47.669,6.756
172,1436372954069,-4.844,-47.669,6.756
173,1436372954070,-4.844,-47.669,6.414
174,1436372954090,-4.844,-47.978,6.414
175,1436372954125,-4.844,-47.978,6.414
176,1436372954126,-4.844,-47.978,6.414
177,1436372954141,-4.844,-47.978,6.414
178,1436372954161,-4.844,-47.978,6.414
179,1436372954183,-4.844,-47.978,6.109
180,1436372954203,-4.844,-47.978,6.109
181,1436372954227,-4.844,-47.978,6.109
182,1436372954244,-4.844,-47.978,6.109
183,1436372954263,-4.844,-47.978,6.109
184,1436372954285,-4.844,-47.978,6.109
185,1436372954302,-4.539,-47.978,6.109
186,1436372954324,-4.539,-47.978,6.109
187,1436372954344,-4.539,-47.978,6.109
188,1436372954415,-4.539,-47.978,6.109
189,1436372954416,-4.539,-47.978,5.799
190,1436372954417,-4.203,-47.978,5.799
191,1436372954422,-4.203,-47.978,5.799
192,1436372954443,-4.203,-47.978,5.799
193,1436372954462,-4.203,-47.978,5.799
194,1436372954486,-4.203,-47.978,5.799
195,1436372954504,-4.203,-47.978,5.799
196,1436372954523,-3.889,-47.978,5.799
197,1436372954557,-3.889,-47.978,5.799
198,1436372954569,-3.889,-47.978,5.799
199,1436372954583,-3.889,-47.978,5.799
200,1436372954605,-3.889,-47.978,5.799
201,1436372954622,-3.889,-47.978,5.799
202,1436372954643,-3.889,-47.978,5.799
203,1436372954663,-3.889,-47.978,5.799
204,1436372954685,-3.889,-47.978,5.799
205,1436372954702,-3.889,-47.978,5.799
206,1436372954723,-3.889,-47.978,5.799
207,1436372954742,-3.889,-47.978,5.799
208,1436372954763,-3.585,-47.978,5.799
209,1436372954782,-3.585,-47.978,5.799
210,1436372954802,-3.585,-47.978,5.799
211,1436372954822,-3.585,-47.978,5.799
212,1436372954842,-3.585,-47.978,5.799
213,1436372954861,-3.585,-47.978,5.799
214,1436372954882,-3.585,-47.978,5.799
215,1436372954902,-3.585,-47.978,5.799
216,1436372954924,-3.585,-47.978,5.799
217,1436372954942,-3.585,-47.978,5.799
218,1436372954962,-3.585,-47.978,5.799
219,1436372954981,-3.585,-47.978,5.799
220,1436372955002,-3.585,-47.978,5.799
221,1436372955021,-3.585,-47.978,5.799
222,1436372955041,-3.585,-47.978,5.799
223,1436372955061,-3.585,-47.978,5.799
224,1436372955082,-3.585,-47.978,5.799
225,1436372955101,-3.585,-47.978,5.799
226,1436372955121,-3.585,-47.978,5.799
227,1436372955143,-3.585,-47.978,5.799
228,1436372955164,-3.585,-47.978,5.799
229,1436372955185,-3.585,-47.978,5.799
230,1436372955204,-3.585,-47.978,5.799
231,1436372955223,-3.585,-47.978,5.799
232,1436372955241,-3.585,-47.978,5.799
233,1436372955262,-3.585,-47.978,5.799
234,1436372955284,-3.585,-47.978,5.799
235,1436372955304,-3.585,-47.978,5.799
236,1436372955325,-3.585,-47.978,5.799
237,1436372955345,-3.585,-47.978,5.799
238,1436372955362,-3.585,-47.978,5.799
239,1436372955408,-3.585,-47.978,5.799
240,1436372955409,-3.585,-47.978,5.799
241,1436372955422,-3.585,-47.978,5.799
242,1436372955442,-3.585,-47.978,5.799
243,1436372955462,-3.585,-47.978,5.799
244,1436372955483,-3.585,-47.978,5.799
245,1436372955502,-3.585,-47.978,5.799
246,1436372955524,-3.585,-47.978,5.799
247,1436372955542,-3.585,-47.978,5.799
248,1436372955563,-3.585,-47.978,5.799
249,1436372955584,-3.585,-47.978,6.103
250,1436372955602,-3.585,-47.978,6.103
251,1436372955623,-3.585,-47.978,6.103
252,1436372955644,-3.585,-47.978,6.103
253,1436372955663,-3.585,-47.978,6.103
254,1436372955684,-3.585,-47.978,6.103
255,1436372955704,-3.585,-47.978,6.103
256,1436372955723,-3.585,-47.978,6.103
257,1436372955742,-3.585,-47.978,6.103
258,1436372955764,-3.585,-47.978,6.103
259,1436372955783,-3.585,-47.978,6.103
260,1436372955805,-3.585,-47.978,6.103
261,1436372955916,-3.585,-47.978,6.103
262,1436372955957,-3.585,-47.978,6.103
263,1436372955958,-3.585,-47.978,6.103
264,1436372955959,-3.585,-47.978,6.103
265,1436372955960,-3.585,-47.978,6.103
266,1436372955961,-3.585,-47.978,6.103
267,1436372955962,-3.585,-47.978,6.103
268,1436372955993,-3.585,-47.978,6.103
269,1436372955994,-3.585,-47.978,6.103
270,1436372956007,-3.585,-47.978,6.103
271,1436372956028,-3.585,-47.978,6.103
272,1436372956059,-3.585,-47.978,6.103
273,1436372956078,-3.585,-47.978,6.103
274,1436372956091,-3.585,-47.978,6.103
275,1436372956107,-3.585,-47.978,6.103
276,1436372956125,-3.585,-47.978,6.103
277,1436372956144,-3.585,-47.978,6.103
278,1436372956163,-3.585,-47.978,6.103
279,1436372956186,-3.585,-47.978,6.103
280,1436372956206,-3.585,-47.978,6.103
281,1436372956226,-3.585,-47.978,6.103
282,1436372956244,-3.585,-47.978,6.103
283,1436372956264,-3.585,-47.978,6.103
284,1436372956286,-3.282,-47.978,6.103
285,1436372956306,-3.282,-47.978,6.103
286,1436372956337,-3.282,-47.978,6.103
287,1436372956381,-3.282,-47.978,6.103
288,1436372956382,-3.282,-47.978,6.103
289,1436372956386,-3.282,-47.978,6.103
290,1436372956404,-3.282,-47.978,6.103
291,1436372956425,-3.282,-47.978,5.783
292,1436372956444,-3.282,-47.978,5.783
293,1436372956464,-3.282,-47.978,5.783
294,1436372956486,-3.282,-47.978,5.783
295,1436372956505,-3.591,-47.978,5.783
296,1436372956524,-3.591,-47.978,5.406
297,1436372956546,-3.591,-47.978,5.406
298,1436372956566,-3.591,-47.978,5.406
299,1436372956585,-3.591,-47.978,5.406
300,1436372956605,-3.591,-47.978,5.406
301,1436372956626,-3.591,-47.978,5.102
302,1436372956645,-3.591,-47.978,5.102
303,1436372956664,-3.591,-47.978,5.102
304,1436372956684,-3.591,-47.978,5.102
305,1436372956704,-3.894,-47.978,5.102
306,1436372956725,-3.894,-48.28,5.102
307,1436372956744,-3.894,-48.28,5.102
308,1436372956766,-3.894,-48.28,5.102
309,1436372956785,-3.894,-48.28,5.102
310,1436372956861,-3.894,-48.28,5.102
311,1436372956863,-3.894,-48.28,5.102
312,1436372956864,-3.894,-48.28,5.102
313,1436372956865,-3.894,-48.28,5.102
314,1436372956889,-3.894,-48.28,5.102
315,1436372956905,-3.894,-48.28,5.102
316,1436372956924,-3.894,-48.28,5.102
317,1436372956944,-3.894,-48.28,5.102
318,1436372956967,-3.894,-48.28,5.102
319,1436372956985,-3.894,-48.28,5.102
320,1436372957005,-3.894,-48.28,5.102
321,1436372957027,-3.894,-48.28,5.102
322,1436372957044,-3.894,-48.28,5.102
323,1436372957066,-3.894,-48.28,5.102
324,1436372957085,-3.894,-48.28,5.102
325,1436372957105,-3.894,-48.28,5.102
326,1436372957130,-3.894,-48.28,5.102
327,1436372957146,-3.894,-48.28,5.102
328,1436372957165,-3.894,-48.28,5.102
329,1436372957184,-3.894,-48.28,5.102
330,1436372957205,-3.894,-48.28,5.102
331,1436372957226,-3.894,-48.28,5.412
332,1436372957246,-3.894,-48.28,5.412
333,1436372957265,-3.894,-48.28,5.412
334,1436372957343,-3.894,-48.28,5.412
335,1436372957344,-3.894,-48.28,5.412
336,1436372957345,-3.894,-48.28,5.412
337,1436372957346,-3.894,-48.28,5.412
338,1436372957373,-3.894,-48.28,5.412
339,1436372957385,-3.894,-48.28,5.412
340,1436372957405,-3.894,-48.28,5.412
341,1436372957429,-3.579,-48.28,5.412
342,1436372957447,-3.579,-48.28,5.412
343,1436372957465,-3.579,-48.28,5.412
344,1436372957486,-3.579,-48.28,5.412
345,1436372957507,-3.579,-48.28,5.412
346,1436372957527,-3.579,-48.28,5.412
347,1436372957545,-3.579,-48.28,5.412
348,1436372957566,-3.579,-48.28,5.412
349,1436372957587,-3.579,-48.28,5.412
350,1436372957608,-3.579,-48.28,5.726
351,1436372957628,-3.579,-48.28,5.726
352,1436372957649,-3.579,-48.28,5.726
353,1436372957666,-3.254,-48.28,5.726
354,1436372957689,-3.254,-48.28,5.726
355,1436372957707,-3.254,-48.28,6.094
356,1436372957727,-3.254,-48.28,6.094
357,1436372957756,-3.254,-48.28,6.094
358,1436372957805,-3.254,-48.28,6.094
359,1436372957806,-3.254,-48.28,6.094
360,1436372957808,-3.254,-48.28,6.094
361,1436372957832,-3.254,-48.28,6.407
362,1436372957850,-3.254,-48.28,6.407
363,1436372957865,-3.254,-48.28,6.407
364,1436372957885,-3.254,-48.28,6.407
365,1436372957911,-3.254,-48.28,6.407
366,1436372957926,-3.254,-48.28,6.407
367,1436372957947,-3.254,-48.28,6.407
368,1436372957965,-3.254,-48.28,6.407
369,1436372957987,-3.254,-48.28,6.407
370,1436372958006,-3.254,-48.28,6.407
371,1436372958028,-3.254,-48.28,6.407
372,1436372958049,-3.254,-48.28,6.407
373,1436372958067,-3.254,-48.28,6.407
374,1436372958092,-3.254,-48.28,6.407
375,1436372958113,-3.254,-48.28,6.407
376,1436372958134,-3.561,-48.28,6.407
377,1436372958153,-3.561,-48.28,6.407
378,1436372958167,-3.561,-48.28,6.407
379,1436372958185,-3.561,-48.28,6.407
380,1436372958207,-3.561,-48.28,6.407
381,1436372958226,-3.561,-47.979,6.407
382,1436372958246,-3.561,-47.979,6.407
383,1436372958307,-3.561,-47.979,6.407
384,1436372958308,-3.561,-47.979,6.407
385,1436372958309,-3.561,-47.979,6.407
386,1436372958327,-3.561,-47.979,6.407
387,1436372958350,-3.561,-47.979,6.407
388,1436372958370,-3.561,-47.979,6.712
389,1436372958385,-3.561,-47.979,6.712
390,1436372958407,-3.561,-47.979,6.712
391,1436372958426,-3.561,-47.979,6.712
392,1436372958445,-3.561,-47.979,6.712
393,1436372958468,-3.561,-47.979,6.712
394,1436372958485,-3.561,-47.979,6.712
395,1436372958511,-3.561,-47.979,6.712
396,1436372958528,-3.561,-47.979,6.712
397,1436372958551,-3.561,-47.979,6.712
398,1436372958569,-3.561,-47.979,6.712
399,1436372958588,-3.561,-47.979,6.712
400,1436372958606,-3.561,-47.979,6.712
401,1436372958626,-3.561,-47.979,6.712
402,1436372958650,-3.561,-47.979,6.712
403,1436372958669,-3.561,-47.979,7.015
404,1436372958689,-3.561,-47.979,7.015
405,1436372958709,-3.561,-47.979,7.015
406,1436372958731,-3.561,-47.979,7.015
407,1436372958791,-3.561,-47.979,7.341
408,1436372958792,-3.561,-47.979,7.341
409,1436372958793,-3.561,-47.979,7.341
410,1436372958814,-3.561,-47.979,7.774
411,1436372958831,-3.234,-47.979,7.774
412,1436372958850,-3.234,-47.979,8.122
413,1436372958871,-3.234,-47.979,8.122
414,1436372958897,-3.234,-47.979,8.744
415,1436372958910,-3.234,-47.676,8.744
416,1436372958932,-3.234,-47.676,8.744
417,1436372958947,-2.865,-47.676,9.06
418,1436372958968,-2.865,-47.676,9.06
419,1436372958990,-2.865,-47.676,9.06
420,1436372959007,-2.865,-47.676,9.515
421,1436372959030,-2.865,-47.676,9.515
422,1436372959052,-2.525,-47.676,9.875
423,1436372959068,-2.525,-47.375,9.875
424,1436372959093,-2.525,-47.375,10.25
425,1436372959113,-2.525,-47.375,10.25
426,1436372959131,-2.525,-47.375,10.58
427,1436372959150,-2.525,-47.375,10.58
428,1436372959169,-2.185,-47.375,10.913
429,1436372959189,-2.185,-47.375,10.913
430,1436372959209,-2.185,-47.05,11.213
431,1436372959226,-1.826,-47.05,11.213
432,1436372959291,-1.826,-47.05,11.213
433,1436372959292,-1.473,-47.05,11.605
434,1436372959293,-1.036,-47.05,11.605
435,1436372959313,0.059,-47.05,11.605
436,1436372959327,0.953,-47.05,11.92
437,1436372959346,1.664,-47.05,11.92
438,1436372959366,2.51,-47.05,11.92
439,1436372959390,3.005,-47.05,11.92
440,1436372959406,3.005,-47.05,11.92
441,1436372959430,3.507,-47.05,11.92
442,1436372959451,3.507,-47.05,11.92
443,1436372959470,3.507,-47.05,11.92
444,1436372959487,3.507,-47.05,11.92
445,1436372959506,3.507,-47.05,11.92
446,1436372959527,3.507,-47.05,11.92
447,1436372959550,3.507,-47.05,11.595
448,1436372959569,3.507,-47.05,11.595
449,1436372959589,3.507,-47.05,11.595
450,1436372959609,3.507,-47.05,11.595
451,1436372959629,3.507,-47.05,11.595
452,1436372959651,3.507,-47.05,11.268
453,1436372959670,3.507,-47.05,11.268
454,1436372959691,3.507,-47.05,11.268
455,1436372959710,3.507,-47.05,11.268
456,1436372959729,3.507,-47.05,11.268
457,1436372959793,3.507,-47.05,11.268
458,1436372959794,3.507,-47.05,11.268
459,1436372959795,3.507,-47.05,11.268
460,1436372959813,3.507,-47.05,11.268
461,1436372959831,3.193,-47.05,11.268
462,1436372959853,3.193,-47.05,11.268
463,1436372959867,2.857,-47.05,11.268
464,1436372959889,2.857,-47.05,11.268
465,1436372959907,2.514,-47.05,11.268
466,1436372959927,2.514,-47.05,11.268
467,1436372959950,2.145,-47.05,11.268
468,1436372959974,2.145,-47.05,11.268
469,1436372959990,1.756,-47.05,11.268
470,1436372960012,1.756,-47.05,11.268
471,1436372960031,1.313,-47.05,11.268
472,1436372960057,0.927,-47.05,10.134
473,1436372960076,0.36,-47.05,9.681
474,1436372960093,-0.132,-47.05,9.681
475,1436372960109,-0.5,-47.05,9.681
476,1436372960129,-0.5,-47.05,9.681
477,1436372960210,-1.071,-47.05,9.681
478,1436372960224,-1.071,-47.05,9.289
479,1436372960225,-1.071,-47.05,9.289
480,1436372960226,-1.071,-47.407,9.289
481,1436372960227,-1.071,-47.407,9.289
482,1436372960372,-1.071,-47.407,9.289
483,1436372960373,-1.071,-47.407,9.289
484,1436372960374,-1.071,-47.407,9.289
485,1436372960375,-1.071,-47.407,9.289
486,1436372960376,-1.39,-47.407,8.964
487,1436372960377,-1.39,-47.407,8.964
488,1436372960378,-1.39,-47.407,8.964
489,1436372960389,-1.39,-47.407,8.964
490,1436372960407,-1.39,-47.407,8.964
491,1436372960426,-1.39,-47.407,8.964
492,1436372960446,-1.39,-47.407,8.964
493,1436372960466,-1.39,-47.407,9.294
494,1436372960489,-1.39,-47.407,9.294
495,1436372960512,-1.39,-47.407,9.294
496,1436372960529,-1.007,-47.407,9.294
497,1436372960549,-1.007,-47.407,9.294
498,1436372960567,-0.656,-47.744,9.294
499,1436372960589,-0.656,-47.744,9.294
500,1436372960611,-0.656,-47.744,9.294
501,1436372960630,-0.228,-47.744,9.294
502,1436372960650,-0.228,-47.744,8.963
503,1436372960670,-0.228,-47.744,8.963
504,1436372960691,0.093,-47.744,8.963
505,1436372960709,0.093,-47.744,8.963
506,1436372960729,0.093,-47.744,8.963
507,1436372960750,0.093,-47.744,8.963
508,1436372960768,0.093,-47.744,8.963
509,1436372960787,0.093,-47.744,8.963
510,1436372960822,0.093,-47.744,8.963
511,1436372960827,0.093,-47.744,8.963
512,1436372960847,0.399,-47.744,8.963
513,1436372960867,0.399,-47.744,8.963
514,1436372960891,0.399,-47.744,9.284
515,1436372960909,0.399,-47.744,9.284
516,1436372960928,0.399,-47.744,9.284
517,1436372960947,0.399,-47.744,9.284
518,1436372960968,0.399,-47.744,9.284
519,1436372960991,0.399,-47.744,9.657
520,1436372961009,0.399,-47.744,9.657
521,1436372961033,0.399,-47.744,9.657
522,1436372961051,0.399,-47.744,9.657
