id,attr_time,attr_x,attr_y,attr_z
1,1436625480214,-54.28,-15.702,5.833
2,1436625480236,-54.28,-15.702,5.833
3,1436625480254,-54.28,-15.702,5.833
4,1436625480274,-54.28,-15.702,5.833
5,1436625480293,-54.28,-15.702,5.833
6,1436625480313,-54.28,-15.702,5.833
7,1436625480333,-54.28,-15.702,5.833
8,1436625480353,-54.28,-15.702,5.833
9,1436625480373,-54.28,-15.702,5.833
10,1436625480393,-54.28,-15.702,5.833
11,1436625480413,-54.28,-15.702,6.158
12,1436625480433,-54.28,-15.702,6.158
13,1436625480453,-54.28,-15.702,6.158
14,1436625480473,-54.28,-15.702,6.158
15,1436625480493,-54.28,-15.702,6.158
16,1436625480518,-54.28,-15.702,6.158
17,1436625480541,-54.28,-15.702,6.457
18,1436625480553,-54.28,-15.702,6.457
19,1436625480573,-54.28,-15.702,6.457
20,1436625480593,-54.28,-15.702,6.457
21,1436625480613,-54.28,-15.702,6.457
22,1436625480633,-54.28,-15.702,6.457
23,1436625480653,-54.28,-15.702,6.77
24,1436625480673,-54.28,-15.702,6.77
25,1436625480693,-54.28,-15.702,6.77
26,1436625480713,-54.28,-15.702,6.77
27,1436625480734,-54.28,-15.702,6.77
28,1436625480754,-54.28,-15.702,6.77
29,1436625480774,-54.28,-15.702,7.124
30,1436625480830,-54.28,-15.702,7.124
31,1436625480831,-54.28,-15.702,7.124
32,1436625480834,-54.28,-15.702,7.124
33,1436625480854,-54.28,-15.702,7.124
34,1436625480874,-54.28,-15.702,7.124
35,1436625480894,-54.28,-15.702,7.124
36,1436625480914,-54.28,-15.702,7.124
37,1436625480947,-54.28,-15.702,7.124
38,1436625480954,-54.28,-15.702,7.124
39,1436625480974,-54.28,-15.702,7.124
40,1436625480995,-54.28,-15.702,7.124
41,1436625481018,-54.28,-15.702,7.124
42,1436625481037,-54.28,-15.702,7.124
43,1436625481055,-54.28,-15.702,7.124
44,1436625481076,-54.28,-15.702,7.124
45,1436625481098,-54.28,-15.702,7.124
46,1436625481117,-54.28,-15.702,7.124
47,1436625481153,-54.28,-15.702,7.124
48,1436625481154,-54.28,-15.702,7.124
49,1436625481174,-54.28,-15.702,7.124
50,1436625481195,-54.28,-15.702,6.813
51,1436625481215,-54.28,-15.702,6.813
52,1436625481237,-54.28,-15.702,6.813
53,1436625481254,-54.28,-15.702,6.813
54,1436625481276,-54.28,-15.702,6.813
55,1436625481298,-54.28,-15.702,6.449
56,1436625481314,-54.28,-15.702,6.449
57,1436625481339,-54.28,-15.702,6.449
58,1436625481355,-54.28,-15.702,6.449
59,1436625481377,-54.28,-15.702,6.449
60,1436625481399,-54.28,-15.702,6.06
61,1436625481418,-54.28,-15.702,6.06
62,1436625481436,-54.28,-15.702,6.06
63,1436625481457,-54.28,-15.702,6.06
64,1436625481474,-54.28,-15.702,5.738
65,1436625481496,-54.28,-15.702,5.738
66,1436625481518,-54.28,-15.702,5.738
67,1436625481535,-54.28,-15.702,5.738
68,1436625481558,-54.591,-15.702,5.398
69,1436625481575,-54.591,-15.702,5.398
70,1436625481596,-54.591,-15.702,5.398
71,1436625481621,-54.591,-15.702,5.398
72,1436625481636,-54.591,-15.702,5.032
73,1436625481655,-54.591,-15.702,5.032
74,1436625481674,-54.591,-15.702,5.032
75,1436625481695,-54.591,-15.702,5.032
76,1436625481722,-54.591,-15.702,4.711
77,1436625481736,-54.591,-15.702,4.711
78,1436625481756,-54.591,-15.702,4.711
79,1436625481777,-54.591,-15.702,4.711
80,1436625481804,-54.591,-15.702,4.711
81,1436625481863,-54.591,-15.702,4.711
82,1436625481876,-54.591,-15.702,4.711
83,1436625481877,-54.591,-15.373,4.711
84,1436625481878,-54.591,-15.373,4.356
85,1436625481897,-54.591,-15.373,4.356
86,1436625481917,-54.591,-15.373,4.356
87,1436625481935,-54.591,-15.373,4.356
88,1436625481955,-54.591,-15.373,4.356
89,1436625481989,-54.591,-15.373,4.356
90,1436625481997,-54.591,-15.373,4.356
91,1436625482017,-54.591,-15.373,4.356
92,1436625482036,-54.591,-15.373,4.356
93,1436625482057,-54.591,-15.373,4.356
94,1436625482078,-54.591,-15.373,4.356
95,1436625482099,-54.591,-15.373,4.356
96,1436625482119,-54.591,-15.373,4.356
97,1436625482137,-54.591,-15.373,4.356
98,1436625482159,-54.591,-15.373,4.356
99,1436625482178,-54.591,-15.373,4.356
100,1436625482197,-54.591,-15.373,4.356
101,1436625482219,-54.591,-15.373,4.356
102,1436625482238,-54.591,-15.373,4.356
103,1436625482258,-54.591,-15.373,4.356
104,1436625482283,-54.591,-15.373,4.356
105,1436625482298,-54.591,-15.373,4.356
106,1436625482319,-54.591,-15.373,4.356
107,1436625482339,-54.591,-15.373,4.356
108,1436625482358,-54.591,-15.373,4.661
109,1436625482376,-54.591,-15.373,4.661
110,1436625482396,-54.591,-15.373,4.661
111,1436625482416,-54.591,-15.373,4.661
112,1436625482438,-54.591,-15.373,4.661
113,1436625482459,-54.591,-15.373,4.661
114,1436625482477,-54.591,-15.373,4.661
115,1436625482498,-54.591,-15.373,4.661
116,1436625482517,-54.591,-15.373,4.661
117,1436625482545,-54.591,-15.373,4.962
118,1436625482603,-54.591,-15.373,4.962
119,1436625482613,-54.591,-15.373,4.962
120,1436625482616,-54.591,-15.373,4.962
121,1436625482617,-54.591,-15.373,4.962
122,1436625482638,-54.591,-15.373,4.962
123,1436625482657,-54.591,-15.373,4.962
124,1436625482676,-54.591,-15.373,5.299
125,1436625482696,-54.591,-15.373,5.299
126,1436625482720,-54.591,-15.711,5.299
127,1436625482736,-54.591,-15.711,5.299
128,1436625482758,-54.591,-15.711,5.299
129,1436625482778,-54.591,-15.711,5.299
130,1436625482797,-54.591,-15.711,5.299
131,1436625482819,-54.591,-15.711,5.299
132,1436625482840,-54.591,-15.711,5.299
133,1436625482858,-54.591,-15.711,5.61
134,1436625482879,-54.591,-15.711,5.61
135,1436625482898,-54.591,-15.711,5.61
136,1436625482927,-54.591,-15.711,5.61
137,1436625482940,-54.591,-15.711,5.61
138,1436625482959,-54.591,-15.711,5.61
139,1436625482980,-54.591,-15.711,5.61
140,1436625482998,-54.591,-15.711,5.61
141,1436625483022,-54.591,-15.711,5.61
142,1436625483040,-54.591,-15.711,5.947
143,1436625483059,-54.591,-15.711,5.947
144,1436625483080,-54.591,-15.711,5.947
145,1436625483100,-54.591,-15.711,5.947
146,1436625483119,-54.284,-15.711,5.947
147,1436625483139,-54.284,-15.711,5.947
148,1436625483159,-54.284,-15.711,5.947
149,1436625483180,-54.284,-15.711,5.947
150,1436625483199,-54.284,-15.711,6.311
151,1436625483220,-54.284,-15.711,6.311
152,1436625483240,-54.284,-15.711,6.311
153,1436625483258,-54.284,-15.711,6.311
154,1436625483286,-54.284,-15.711,6.648
155,1436625483344,-54.284,-15.711,6.648
156,1436625483355,-54.284,-15.711,6.648
157,1436625483357,-54.284,-15.711,6.648
158,1436625483358,-54.284,-15.711,7.0
159,1436625483379,-54.284,-15.711,7.0
160,1436625483402,-54.284,-15.711,7.0
161,1436625483420,-54.284,-15.711,7.0
162,1436625483436,-54.284,-15.711,7.35
163,1436625483459,-54.284,-15.711,7.35
164,1436625483477,-53.953,-15.711,7.35
165,1436625483499,-53.953,-15.711,7.693
166,1436625483518,-53.953,-15.711,7.693
167,1436625483538,-53.953,-15.711,7.693
168,1436625483561,-53.953,-15.711,8.007
169,1436625483580,-53.953,-15.711,8.007
170,1436625483600,-53.634,-16.052,8.007
171,1436625483619,-53.634,-16.052,8.375
172,1436625483640,-53.634,-16.052,8.375
173,1436625483661,-53.634,-16.497,8.375
174,1436625483680,-53.326,-16.497,8.758
175,1436625483701,-53.326,-16.874,8.758
176,1436625483719,-53.326,-16.874,8.758
177,1436625483740,-53.326,-17.591,9.06
178,1436625483757,-52.944,-17.591,9.06
179,1436625483780,-52.944,-17.591,9.06
180,1436625483801,-52.944,-18.09,9.06
181,1436625483818,-52.944,-18.09,9.431
182,1436625483837,-52.575,-18.09,9.431
183,1436625483857,-52.575,-18.479,9.431
184,1436625483913,-52.575,-18.479,9.431
185,1436625483914,-52.575,-18.809,9.808
186,1436625483917,-52.575,-18.809,9.808
187,1436625483941,-52.244,-19.177,9.808
188,1436625483963,-52.244,-19.177,9.808
189,1436625483978,-52.244,-19.177,10.108
190,1436625484001,-52.244,-19.538,10.108
191,1436625484021,-52.244,-19.538,10.108
192,1436625484091,-52.244,-19.538,10.108
193,1436625484092,-52.244,-19.538,10.108
194,1436625484137,-52.244,-19.538,10.108
195,1436625484138,-52.244,-19.538,10.108
196,1436625484139,-52.244,-19.538,10.108
197,1436625484140,-52.621,-19.538,10.108
198,1436625484163,-52.621,-19.538,10.108
199,1436625484189,-52.941,-19.538,10.108
200,1436625484197,-53.504,-18.945,9.689
201,1436625484217,-54.077,-17.938,9.689
202,1436625484237,-54.57,-16.798,9.388
203,1436625484258,-54.96,-16.361,9.388
204,1436625484278,-55.278,-15.486,9.388
205,1436625484297,-55.278,-14.588,9.066
206,1436625484317,-55.77,-14.588,9.066
207,1436625484337,-55.77,-13.818,9.066
208,1436625484357,-56.094,-13.363,8.688
209,1436625484377,-56.094,-13.363,8.688
210,1436625484397,-56.477,-12.94,8.688
211,1436625484417,-56.477,-12.442,8.166
212,1436625484439,-56.477,-12.442,7.789
213,1436625484458,-56.477,-12.112,6.759
214,1436625484481,-56.997,-12.112,5.941
215,1436625484498,-56.997,-12.112,5.584
216,1436625484521,-56.997,-12.112,5.189
217,1436625484540,-56.997,-12.112,4.434
218,1436625484559,-57.368,-12.112,3.668
219,1436625484578,-57.368,-12.437,2.987
220,1436625484600,-57.368,-12.437,1.988
221,1436625484621,-57.775,-12.437,0.787
222,1436625484642,-57.775,-12.437,-0.373
223,1436625484662,-57.775,-12.437,-1.199
224,1436625484681,-57.775,-12.437,-2.499
225,1436625484699,-57.775,-12.437,-1.918
226,1436625484718,-57.775,-12.437,-2.94
227,1436625484738,-57.775,-13.256,-3.967
228,1436625484761,-57.775,-14.022,-4.44
229,1436625484781,-57.775,-14.646,-5.281
230,1436625484808,-57.775,-15.106,-4.57
231,1436625484817,-57.775,-15.106,-4.57
232,1436625484837,-57.775,-15.435,-5.422
233,1436625484864,-57.289,-16.011,-6.135
234,1436625484877,-56.845,-16.011,-8.346
235,1436625484897,-56.454,-16.011,-8.715
236,1436625484917,-56.454,-16.011,-7.447
237,1436625484937,-56.007,-16.793,-6.481
238,1436625484959,-56.007,-16.793,-7.456
239,1436625484981,-55.593,-16.793,-8.251
240,1436625485002,-55.593,-16.793,-9.385
241,1436625485018,-55.593,-16.793,-9.385
242,1436625485040,-55.593,-16.793,-10.031
243,1436625485062,-55.258,-16.793,-10.031
244,1436625485082,-55.258,-16.793,-11.277
245,1436625485102,-54.84,-17.199,-10.844
246,1436625485122,-54.84,-17.199,-11.41
247,1436625485141,-54.403,-17.568,-11.41
248,1436625485161,-54.403,-17.568,-11.924
249,1436625485179,-53.991,-17.568,-11.924
250,1436625485200,-53.991,-17.979,-11.924
251,1436625485222,-53.526,-17.979,-12.306
252,1436625485241,-52.836,-17.979,-12.879
253,1436625485259,-51.986,-18.295,-13.816
254,1436625485278,-50.822,-18.295,-14.581
255,1436625485302,-49.827,-18.295,-15.515
256,1436625485322,-48.974,-18.295,-15.515
257,1436625485345,-48.098,-18.295,-15.515
258,1436625485361,-47.154,-18.295,-15.515
259,1436625485380,-46.235,-18.295,-15.515
260,1436625485399,-45.01,-18.597,-16.485
261,1436625485420,-43.922,-18.597,-16.485
262,1436625485441,-43.211,-18.597,-15.618
263,1436625485461,-42.817,-18.597,-15.618
264,1436625485523,-42.247,-18.597,-15.618
265,1436625485524,-42.247,-18.597,-16.116
266,1436625485525,-41.398,-18.597,-16.862
267,1436625485563,-41.398,-18.597,-16.862
268,1436625485564,-41.398,-18.597,-16.862
269,1436625485582,-40.771,-18.597,-16.862
270,1436625485609,-40.403,-18.597,-16.862
271,1436625485619,-40.403,-18.597,-16.862
272,1436625485651,-40.403,-18.597,-16.862
273,1436625485666,-40.074,-18.597,-16.862
274,1436625485681,-40.074,-18.917,-16.862
275,1436625485703,-39.517,-18.917,-16.862
276,1436625485722,-39.517,-18.917,-17.205
277,1436625485742,-39.105,-18.917,-17.205
278,1436625485762,-38.468,-19.242,-17.205
279,1436625485782,-38.085,-19.242,-17.62
280,1436625485802,-37.399,-19.242,-17.62
281,1436625485822,-36.798,-19.558,-17.62
282,1436625485842,-36.065,-19.558,-17.982
283,1436625485861,-35.694,-19.558,-17.982
284,1436625485879,-34.661,-19.558,-17.982
285,1436625485899,-33.966,-19.558,-18.341
286,1436625485922,-33.366,-19.891,-18.341
287,1436625485939,-32.147,-19.891,-18.341
288,1436625485959,-32.147,-19.891,-18.341
289,1436625485982,-31.217,-19.891,-18.341
290,1436625486002,-30.751,-19.891,-18.341
291,1436625486022,-30.751,-19.891,-18.341
292,1436625486042,-30.751,-19.891,-18.341
293,1436625486061,-30.22,-19.891,-18.037
294,1436625486079,-30.22,-19.891,-18.037
295,1436625486103,-30.22,-19.891,-18.037
296,1436625486123,-29.74,-19.891,-18.037
297,1436625486143,-30.232,-19.891,-18.037
298,1436625486164,-30.232,-19.891,-18.037
299,1436625486180,-30.232,-19.891,-18.037
300,1436625486202,-30.232,-19.891,-18.037
301,1436625486262,-30.232,-19.891,-17.633
302,1436625486275,-30.232,-19.891,-17.633
303,1436625486276,-30.232,-19.586,-17.318
304,1436625486283,-30.232,-19.586,-17.318
305,1436625486301,-29.905,-19.586,-17.013
306,1436625486323,-29.905,-19.586,-17.013
307,1436625486339,-29.565,-19.586,-16.636
308,1436625486363,-29.565,-19.586,-16.636
309,1436625486390,-29.565,-19.586,-16.636
310,1436625486402,-29.156,-19.586,-16.212
311,1436625486421,-29.156,-19.586,-16.212
312,1436625486440,-28.849,-19.586,-15.406
313,1436625486463,-28.849,-19.586,-15.406
314,1436625486480,-28.546,-19.586,-14.692
315,1436625486503,-28.164,-19.586,-14.692
316,1436625486522,-28.164,-19.586,-14.118
317,1436625486540,-27.821,-19.586,-14.118
318,1436625486567,-27.821,-19.586,-14.118
319,1436625486580,-27.479,-19.894,-14.118
320,1436625486601,-27.479,-19.894,-14.118
321,1436625486620,-27.479,-19.894,-13.681
322,1436625486643,-27.139,-20.251,-13.032
323,1436625486660,-27.139,-20.251,-13.032
324,1436625486682,-26.829,-20.251,-13.032
325,1436625486703,-26.829,-20.584,-13.032
326,1436625486720,-26.829,-20.584,-13.032
327,1436625486742,-26.411,-20.584,-13.032
328,1436625486763,-26.411,-20.933,-12.638
329,1436625486781,-26.104,-20.933,-12.638
330,1436625486805,-26.104,-20.933,-12.638
331,1436625486825,-25.775,-21.289,-12.638
332,1436625486841,-25.775,-21.289,-12.638
333,1436625486861,-25.775,-21.289,-12.638
334,1436625486881,-25.433,-21.289,-12.638
335,1436625486901,-25.433,-21.606,-12.638
336,1436625486922,-25.433,-21.606,-12.638
337,1436625486941,-25.433,-21.606,-12.638
338,1436625486995,-25.433,-21.936,-12.638
339,1436625487008,-25.433,-21.936,-12.638
340,1436625487009,-25.433,-21.936,-12.638
341,1436625487020,-25.433,-21.936,-12.638
342,1436625487045,-25.433,-21.936,-12.638
343,1436625487061,-25.433,-21.936,-13.063
344,1436625487081,-25.132,-21.936,-13.063
345,1436625487102,-25.132,-21.936,-13.375
346,1436625487121,-25.132,-21.936,-13.375
347,1436625487150,-25.132,-21.936,-13.375
348,1436625487160,-25.132,-21.936,-13.74
349,1436625487181,-25.132,-21.936,-13.74
350,1436625487232,-25.132,-21.936,-13.74
351,1436625487233,-25.132,-21.936,-13.74
352,1436625487241,-25.132,-21.936,-13.74
353,1436625487260,-25.132,-21.936,-13.74
354,1436625487284,-25.48,-21.936,-13.74
355,1436625487302,-25.48,-21.936,-13.74
356,1436625487324,-25.48,-21.936,-13.74
357,1436625487342,-25.48,-21.936,-13.74
358,1436625487361,-25.48,-22.259,-13.74
359,1436625487381,-25.48,-23.219,-13.74
360,1436625487400,-25.48,-23.661,-13.74
361,1436625487420,-25.48,-23.661,-13.41
362,1436625487441,-25.48,-23.661,-13.41
363,1436625487461,-25.48,-23.661,-13.41
364,1436625487481,-25.48,-23.661,-13.41
365,1436625487501,-25.48,-23.661,-12.998
366,1436625487522,-25.48,-23.661,-12.998
367,1436625487547,-25.48,-23.661,-12.62
368,1436625487569,-25.48,-23.661,-12.62
369,1436625487582,-25.48,-23.661,-12.31
370,1436625487604,-25.48,-23.976,-12.31
371,1436625487625,-25.48,-23.976,-12.31
372,1436625487644,-25.48,-23.976,-11.911
373,1436625487668,-25.48,-23.976,-11.911
374,1436625487727,-25.48,-24.299,-11.911
375,1436625487728,-25.48,-24.299,-11.911
376,1436625487729,-25.48,-24.299,-11.911
377,1436625487745,-25.48,-24.299,-11.911
378,1436625487762,-25.794,-24.299,-11.911
379,1436625487781,-25.794,-24.299,-11.911
380,1436625487801,-26.132,-24.299,-11.911
381,1436625487821,-26.132,-24.299,-11.911
382,1436625487844,-27.761,-24.716,-11.569
383,1436625487861,-28.912,-25.126,-11.569
384,1436625487882,-29.899,-25.73,-11.569
385,1436625487903,-30.352,-25.73,-11.569
386,1436625487925,-30.352,-26.17,-11.569
387,1436625487945,-30.352,-26.17,-11.569
388,1436625487964,-29.913,-26.17,-11.569
389,1436625487984,-29.913,-26.17,-11.569
390,1436625488004,-29.913,-26.17,-11.569
391,1436625488023,-30.261,-26.17,-11.978
392,1436625488045,-30.261,-26.17,-11.978
393,1436625488064,-30.586,-26.17,-11.978
394,1436625488084,-30.586,-26.17,-12.301
395,1436625488104,-30.586,-26.17,-12.301
396,1436625488122,-30.586,-26.17,-12.301
397,1436625488141,-31.088,-26.17,-12.301
398,1436625488165,-31.088,-26.17,-12.301
399,1436625488184,-31.587,-26.17,-12.678
400,1436625488203,-32.217,-26.17,-12.678
401,1436625488222,-33.309,-26.17,-12.678
402,1436625488242,-34.375,-26.17,-12.678
403,1436625488265,-35.401,-26.17,-12.678
404,1436625488284,-36.302,-26.17,-12.678
405,1436625488304,-37.797,-26.17,-12.678
406,1436625488325,-38.977,-26.17,-12.678
407,1436625488343,-39.666,-26.17,-12.678
408,1436625488363,-40.202,-26.17,-12.678
409,1436625488384,-40.202,-27.888,-12.678
410,1436625488402,-40.573,-29.008,-12.312
411,1436625488423,-40.573,-29.563,-12.312
412,1436625488493,-41.137,-29.563,-12.312
413,1436625488494,-41.137,-29.563,-12.312
414,1436625488495,-41.613,-29.217,-12.312
415,1436625488501,-41.613,-28.906,-11.964
416,1436625488526,-41.613,-28.906,-11.964
417,1436625488551,-41.242,-28.906,-11.964
418,1436625488567,-40.728,-28.401,-11.964
419,1436625488582,-40.728,-28.401,-11.657
420,1436625488602,-40.728,-28.401,-11.657
421,1436625488622,-40.728,-28.401,-11.657
422,1436625488641,-40.728,-28.082,-11.657
423,1436625488663,-40.728,-28.082,-11.657
424,1436625488688,-41.221,-27.711,-11.657
425,1436625488702,-41.221,-27.711,-11.657
426,1436625488725,-41.558,-27.053,-11.657
427,1436625488744,-41.558,-27.053,-11.657
428,1436625488764,-41.9,-26.205,-11.657
429,1436625488782,-41.9,-25.709,-11.657
430,1436625488803,-43.576,-24.931,-11.657
431,1436625488825,-44.787,-23.861,-11.657
432,1436625488842,-46.073,-22.711,-12.028
433,1436625488864,-46.78,-21.017,-12.028
434,1436625488884,-47.61,-19.514,-12.028
435,1436625488905,-48.138,-17.99,-12.443
436,1436625488922,-48.667,-15.835,-12.443
437,1436625488941,-49.272,-14.253,-12.786
438,1436625488964,-49.751,-12.307,-12.786
439,1436625488984,-50.378,-10.493,-12.786
440,1436625489004,-50.378,-9.071,-12.786
441,1436625489024,-51.004,-8.137,-12.786
442,1436625489046,-51.004,-7.388,-12.786
443,1436625489065,-51.004,-7.388,-13.11
444,1436625489085,-50.456,-7.058,-13.11
445,1436625489104,-50.456,-7.058,-13.11
446,1436625489124,-50.456,-7.058,-13.11
447,1436625489144,-50.456,-7.058,-13.11
448,1436625489164,-50.456,-6.451,-13.11
449,1436625489183,-50.456,-6.451,-13.11
450,1436625489203,-50.456,-6.451,-13.11
451,1436625489253,-50.456,-6.451,-13.11
452,1436625489254,-50.456,-6.826,-13.11
453,1436625489263,-50.456,-7.188,-13.11
454,1436625489282,-50.793,-6.771,-13.11
455,1436625489302,-50.793,-6.771,-13.11
456,1436625489323,-50.793,-6.771,-13.11
457,1436625489342,-50.793,-6.771,-13.11
458,1436625489362,-50.793,-6.771,-13.11
459,1436625489382,-50.793,-6.771,-13.11
460,1436625489403,-50.793,-6.771,-13.11
461,1436625489426,-50.793,-6.771,-13.11
462,1436625489443,-50.793,-6.771,-13.11
463,1436625489465,-50.793,-6.771,-14.909
464,1436625489484,-50.793,-6.771,-16.479
465,1436625489506,-50.793,-6.771,-18.428
466,1436625489522,-50.793,-6.771,-20.135
467,1436625489545,-50.793,-8.129,-21.984
468,1436625489563,-50.793,-9.426,-24.13
469,1436625489588,-50.419,-10.569,-25.349
470,1436625489602,-50.419,-11.946,-27.203
471,1436625489623,-50.419,-12.982,-28.327
472,1436625489642,-50.419,-14.387,-29.536
473,1436625489665,-50.117,-14.842,-28.776
474,1436625489810,-50.117,-15.379,-28.213
475,1436625489814,-50.117,-16.676,-28.213
476,1436625489815,-50.117,-17.948,-28.971
477,1436625489816,-50.117,-19.598,-30.033
478,1436625489817,-49.72,-21.292,-29.705
479,1436625489818,-49.72,-23.484,-29.164
480,1436625489819,-49.72,-25.468,-29.513
481,1436625489871,-49.244,-26.98,-29.513
482,1436625489872,-49.244,-28.109,-29.513
483,1436625489873,-48.88,-29.107,-30.13
484,1436625489883,-48.88,-30.303,-30.13
485,1436625489903,-48.576,-32.542,-31.646
486,1436625489927,-48.576,-34.214,-31.982
487,1436625489988,-48.576,-36.946,-32.556
488,1436625489989,-48.164,-39.494,-33.322
489,1436625489990,-48.164,-42.562,-32.981
490,1436625490003,-48.164,-44.589,-32.551
491,1436625490023,-47.85,-46.243,-32.189
492,1436625490043,-47.85,-47.845,-30.589
493,1436625490064,-48.912,-48.44,-27.804
494,1436625490084,-52.008,-48.44,-22.242
495,1436625490105,-54.603,-47.106,-16.749
