id,attr_time,attr_x,attr_y,attr_z
1,1436963023623,41.1163,-3.35236,-24.9481
2,1436963023642,41.4673,-2.99988,-27.301
3,1436963023663,40.9409,-2.47345,-25.7889
4,1436963023684,40.9409,-2.47345,-25.7889
5,1436963023702,43.3945,-2.12097,-24.7787
6,1436963023721,41.4673,-1.9455,-23.6023
7,1436963023742,41.4673,-1.9455,-23.6023
8,1436963023761,40.9409,-3.87878,-25.7889
9,1436963023782,40.9409,-2.47345,-25.7889
10,1436963023801,40.9409,-2.47345,-25.7889
11,1436963023819,42.5186,-1.59454,-25.2838
12,1436963023841,40.7669,-3.35236,-25.6195
13,1436963023859,40.7669,-3.35236,-25.6195
14,1436963023882,40.9409,-2.47345,-24.4431
15,1436963023900,41.4673,-2.99988,-25.9567
16,1436963023919,41.4673,-2.99988,-25.9567
17,1436963023939,41.9922,-1.41907,-25.4517
18,1436963023959,40.9409,-3.17688,-24.1074
19,1436963023979,40.9409,-3.17688,-24.1074
20,1436963023998,40.7669,-3.35236,-24.9481
21,1436963024018,41.4673,-2.64893,-24.2752
22,1436963024037,41.4673,-2.64893,-24.2752
23,1436963024058,41.1163,-2.64893,-24.6109
24,1436963024078,42.868,-2.64893,-24.2752
25,1436963024097,42.868,-2.64893,-24.2752
26,1436963024117,41.6428,-3.17688,-25.116
27,1436963024136,41.6428,-2.12097,-24.1074
28,1436963024156,41.6428,-2.12097,-24.1074
29,1436963024175,41.4673,-1.9455,-25.2838
30,1436963024196,41.8167,-1.59454,-24.9481
31,1436963024216,41.8167,-1.59454,-24.9481
32,1436963024236,41.8167,-3.70331,-26.2924
33,1436963024256,40.5914,-3.52783,-26.1246
34,1436963024276,40.5914,-3.52783,-26.1246
35,1436963024295,41.1163,-2.29797,-24.2752
36,1436963024315,41.8167,-1.24207,-25.2838
37,1436963024335,41.8167,-1.24207,-25.2838
38,1436963024353,41.2918,-3.17688,-25.7889
39,1436963024374,41.1163,-2.64893,-25.2838
40,1436963024395,41.1163,-2.64893,-25.2838
41,1436963024413,40.5914,-3.52783,-24.4431
42,1436963024434,41.6428,-2.8244,-25.116
43,1436963024451,41.6428,-2.8244,-25.116
44,1436963024475,41.4673,-4.05579,-25.6195
45,1436963024491,41.1163,-1.59454,-25.6195
46,1436963024513,41.1163,-1.59454,-25.6195
47,1436963024532,41.2918,-2.47345,-25.7889
48,1436963024552,42.3431,-2.8244,-25.7889
49,1436963024572,42.3431,-2.8244,-25.7889
50,1436963024592,42.3431,-2.8244,-26.1246
51,1436963024612,40.9409,-3.17688,-23.0972
52,1436963024631,40.9409,-3.17688,-23.0972
53,1436963024653,40.5914,-1.77002,-23.7701
54,1436963024670,42.6926,-2.47345,-24.7787
55,1436963024690,42.6926,-2.47345,-24.7787
56,1436963024710,41.2918,-1.41907,-24.4431
57,1436963024730,42.3431,-3.52783,-25.4517
58,1436963024752,42.3431,-3.52783,-25.4517
59,1436963024768,42.3431,-2.8244,-25.4517
60,1436963024790,41.1163,-2.99988,-24.2752
61,1436963024809,41.1163,-2.99988,-24.2752
62,1436963024829,41.4673,-3.70331,-25.9567
63,1436963024851,40.9409,-3.52783,-24.1074
64,1436963024868,40.9409,-3.52783,-24.1074
65,1436963024888,41.4673,-2.64893,-25.2838
66,1436963024909,41.2918,-2.47345,-25.116
67,1436963024928,41.2918,-2.47345,-25.116
68,1436963024946,42.868,-2.29797,-25.2838
69,1436963024968,41.6428,-2.12097,-25.4517
70,1436963024986,41.6428,-2.12097,-25.4517
71,1436963025007,42.868,-3.35236,-24.9481
72,1436963025027,41.1163,-3.35236,-25.2838
73,1436963025046,41.1163,-3.35236,-25.2838
74,1436963025066,42.1677,-2.29797,-25.2838
75,1436963025085,40.416,-1.24207,-24.2752
76,1436963025106,40.416,-1.24207,-24.2752
77,1436963025125,43.219,-2.29797,-25.2838
78,1436963025148,42.1677,-4.05579,-25.6195
79,1436963025165,42.1677,-4.05579,-25.6195
80,1436963025185,41.1163,-2.64893,-25.2838
81,1436963025205,40.5914,-2.8244,-25.4517
82,1436963025224,40.5914,-2.8244,-25.4517
83,1436963025244,40.5914,-2.12097,-26.4603
84,1436963025262,41.6428,-2.12097,-25.7889
85,1436963025284,41.6428,-2.12097,-25.7889
86,1436963025303,42.3431,-1.77002,-26.1246
87,1436963025324,41.1163,-2.64893,-24.9481
88,1436963025343,41.1163,-2.64893,-24.9481
89,1436963025362,41.6428,-2.47345,-24.7787
90,1436963025381,41.9922,-1.77002,-25.4517
91,1436963025403,41.9922,-1.77002,-25.4517
92,1436963025421,40.7669,-1.59454,-25.2838
93,1436963025444,41.2918,-2.47345,-24.7787
94,1436963025462,41.2918,-2.47345,-24.7787
95,1436963025482,40.2405,-1.77002,-25.4517
96,1436963025502,42.3431,-2.47345,-25.4517
97,1436963025521,42.3431,-2.47345,-25.4517
98,1436963025541,41.2918,-3.87878,-26.4603
99,1436963025560,41.6428,-1.06659,-25.4517
100,1436963025579,41.6428,-1.06659,-25.4517
101,1436963025600,42.3431,-1.41907,-24.4431
102,1436963025619,41.6428,-2.12097,-25.116
103,1436963025640,41.6428,-2.12097,-25.116
104,1436963025659,40.5914,-0.012207,-24.4431
105,1436963025682,42.6926,-2.8244,-26.1246
106,1436963025698,42.6926,-2.8244,-26.1246
107,1436963025719,42.5186,-0.540161,-24.9481
108,1436963025739,40.2405,-2.47345,-25.116
109,1436963025758,40.2405,-2.47345,-25.116
110,1436963025778,42.1677,-1.59454,-24.6109
111,1436963025797,41.9922,-2.47345,-25.116
112,1436963025817,41.9922,-2.47345,-25.116
113,1436963025838,42.1677,-0.891113,-25.2838
114,1436963025857,41.6428,-1.77002,-24.4431
115,1436963025877,41.6428,-1.77002,-24.4431
116,1436963025895,41.8167,-1.59454,-23.2651
117,1436963025917,41.6428,-2.47345,-25.116
118,1436963025936,41.6428,-2.47345,-25.116
119,1436963025956,41.6428,-1.77002,-24.7787
120,1436963025976,41.1163,-1.9455,-24.6109
121,1436963025995,41.1163,-1.9455,-24.6109
122,1436963026015,41.9922,-2.12097,-27.1332
123,1436963026035,43.7439,-2.12097,-24.4431
124,1436963026055,43.7439,-2.12097,-24.4431
125,1436963026077,43.0435,-0.012207,-24.7787
126,1436963026095,42.868,-1.9455,-24.2752
127,1436963026113,42.868,-1.9455,-24.2752
128,1436963026134,41.1163,-0.540161,-24.6109
129,1436963026154,42.1677,-1.59454,-24.6109
130,1436963026176,42.1677,-1.59454,-24.6109
131,1436963026193,42.1677,-1.9455,-26.2924
132,1436963026211,40.416,-0.540161,-24.6109
133,1436963026233,40.416,-0.540161,-24.6109
134,1436963026252,41.6428,-1.41907,-25.4517
135,1436963026275,40.416,-1.59454,-24.9481
136,1436963026292,40.416,-1.59454,-24.9481
137,1436963026312,42.868,-0.891113,-24.9481
138,1436963026332,40.416,-0.891113,-25.2838
139,1436963026351,40.416,-0.891113,-25.2838
140,1436963026369,41.2918,-1.06659,-25.4517
141,1436963026389,40.7669,-2.99988,-25.6195
142,1436963026410,40.7669,-2.99988,-25.6195
143,1436963026430,42.1677,-0.891113,-23.938
144,1436963026450,41.1163,-1.59454,-25.9567
145,1436963026472,41.1163,-1.59454,-25.9567
146,1436963026490,41.6428,-1.06659,-25.116
147,1436963026510,42.1677,-0.891113,-24.2752
148,1436963026529,42.1677,-0.891113,-24.2752
149,1436963026548,41.4673,-1.59454,-25.6195
150,1436963026571,41.8167,-2.29797,-24.9481
151,1436963026588,41.8167,-2.29797,-24.9481
152,1436963026608,42.1677,-2.29797,-25.6195
153,1436963026629,40.7669,-1.9455,-24.6109
154,1436963026648,40.7669,-1.9455,-24.6109
155,1436963026668,41.8167,-2.29797,-25.6195
156,1436963026688,41.1163,-0.891113,-24.9481
157,1436963026706,41.1163,-0.891113,-24.9481
158,1436963026727,42.6926,-2.47345,-23.0972
159,1436963026746,41.2918,-2.8244,-24.7787
160,1436963026767,41.2918,-2.8244,-24.7787
161,1436963026786,41.4673,-1.59454,-25.9567
162,1436963026809,40.416,-1.59454,-25.6195
163,1436963026826,40.416,-1.59454,-25.6195
164,1436963026846,41.1163,-2.29797,-24.9481
165,1436963026866,43.3945,-1.77002,-24.4431
166,1436963026885,43.3945,-1.77002,-24.4431
167,1436963026907,41.4673,-0.891113,-24.9481
168,1436963026925,43.5699,-1.24207,-25.2838
169,1436963026944,43.5699,-1.24207,-25.2838
170,1436963026965,41.6428,-0.363159,-25.4517
171,1436963026984,42.1677,-0.540161,-24.2752
172,1436963027006,42.1677,-0.540161,-24.2752
173,1436963027021,42.1677,-1.59454,-24.9481
174,1436963027043,40.416,-1.59454,-22.5937
175,1436963027062,40.416,-1.59454,-22.5937
176,1436963027083,41.6428,-1.41907,-25.4517
177,1436963027105,40.2405,-2.8244,-24.7787
178,1436963027122,40.2405,-2.8244,-24.7787
179,1436963027142,41.4673,-1.9455,-23.938
180,1436963027163,40.5914,-2.47345,-23.0972
181,1436963027182,40.5914,-2.47345,-23.0972
182,1436963027203,41.6428,-2.12097,-24.7787
183,1436963027374,42.1677,-2.29797,-25.6195
184,1436963027375,42.1677,-2.29797,-25.6195
185,1436963027376,41.4673,-2.29797,-24.2752
186,1436963027377,41.6428,-0.715637,-24.7787
187,1436963027378,41.6428,-0.715637,-24.7787
188,1436963027379,40.5914,0.691223,-23.0972
189,1436963027380,42.6926,-0.363159,-24.1074
190,1436963027381,42.6926,-0.363159,-24.1074
191,1436963027382,41.6428,1.04218,-23.0972
192,1436963027402,41.4673,0.515747,-23.6023
193,1436963027418,41.4673,0.515747,-23.6023
194,1436963027439,41.9922,-1.41907,-24.7787
195,1436963027458,41.9922,-4.23126,-23.7701
196,1436963027478,41.9922,-4.23126,-23.7701
197,1436963027498,41.8167,-3.35236,-22.5937
198,1436963027518,43.7439,-3.87878,-24.1074
199,1436963027538,43.7439,-3.87878,-24.1074
200,1436963027556,43.0435,-3.17688,-24.1074
201,1436963027578,42.1677,-4.05579,-24.6109
202,1436963027598,42.1677,-4.05579,-24.6109
203,1436963027617,43.219,-4.05579,-23.2651
204,1436963027637,42.5186,-5.8136,-23.6023
205,1436963027655,42.5186,-5.8136,-23.6023
206,1436963027676,41.4673,-6.16455,-24.2752
207,1436963027695,43.3945,-8.09784,-23.0972
208,1436963027715,43.3945,-8.09784,-23.0972
209,1436963027735,43.219,-6.5155,-23.6023
210,1436963027755,43.5699,-8.62579,-22.2565
211,1436963027774,43.5699,-8.62579,-22.2565
212,1436963027794,43.7439,-7.74689,-23.0972
213,1436963027815,43.9194,-8.97675,-22.5937
214,1436963027833,43.9194,-8.97675,-22.5937
215,1436963027854,43.0435,-7.74689,-22.0886
216,1436963027875,43.0435,-9.5047,-22.0886
217,1436963027893,43.0435,-9.5047,-22.0886
218,1436963027913,44.7952,-8.45032,-21.4157
219,1436963027934,42.3431,-8.80127,-21.7529
220,1436963027953,42.3431,-8.80127,-21.7529
221,1436963027973,44.9707,-10.0311,-21.5836
222,1436963027993,43.219,-10.0311,-21.2479
223,1436963028012,43.219,-10.0311,-21.2479
224,1436963028031,44.7952,-11.6135,-21.7529
225,1436963028052,43.5699,-12.4924,-21.5836
226,1436963028074,43.5699,-12.4924,-21.5836
227,1436963028091,44.2703,-11.7889,-20.2393
228,1436963028111,41.4673,-11.087,-20.575
229,1436963028131,41.4673,-11.087,-20.575
230,1436963028149,41.4673,-12.8448,-22.2565
231,1436963028173,43.0435,-11.9659,-22.7615
232,1436963028189,43.0435,-11.9659,-22.7615
233,1436963028210,42.6926,-12.6678,-24.4431
234,1436963028230,42.3431,-13.3713,-24.1074
235,1436963028249,42.3431,-13.3713,-24.1074
236,1436963028271,41.9922,-11.9659,-23.0972
237,1436963028289,41.4673,-12.4924,-25.6195
238,1436963028308,41.4673,-12.4924,-25.6195
239,1436963028328,43.7439,-9.85565,-25.7889
240,1436963028348,42.868,-6.16455,-27.6382
241,1436963028366,42.868,-6.16455,-27.6382
242,1436963028388,41.6428,-2.47345,-28.8147
243,1436963028408,42.5186,3.67889,-28.6469
244,1436963028427,42.5186,3.67889,-28.6469
245,1436963028447,41.2918,5.26123,-29.1519
246,1436963028468,40.065,10.7101,-29.3198
247,1436963028486,40.065,10.7101,-29.3198
248,1436963028505,39.1891,14.4012,-29.1519
249,1436963028527,38.3133,15.2802,-28.9841
250,1436963028545,38.3133,15.2802,-28.9841
251,1436963028568,37.262,17.3904,-30.6656
252,1436963028585,37.262,16.687,-30.3284
253,1436963028605,37.262,16.687,-30.3284
254,1436963028625,37.7884,18.9728,-29.8248
255,1436963028644,37.9623,17.7414,-31.337
256,1436963028667,37.9623,17.7414,-31.337
257,1436963028683,37.7884,16.5115,-31.842
258,1436963028703,39.3646,11.4136,-32.6828
259,1436963028724,39.3646,11.4136,-32.6828
260,1436963028743,39.8895,7.37,-30.8334
261,1436963028764,41.4673,3.67889,-28.9841
262,1436963028781,41.4673,3.67889,-28.9841
263,1436963028803,40.5914,0.691223,-27.4704
264,1436963028822,40.7669,-3.35236,-27.9739
265,1436963028842,40.7669,-3.35236,-27.9739
266,1436963028862,42.1677,-4.05579,-29.3198
267,1436963028882,40.065,-8.97675,-27.9739
268,1436963028904,40.065,-8.97675,-27.9739
269,1436963028921,42.5186,-12.1414,-28.3112
270,1436963028941,42.868,-11.7889,-26.9653
271,1436963028959,42.868,-11.7889,-26.9653
272,1436963028981,43.5699,-10.3836,-28.9841
273,1436963029002,42.6926,-8.80127,-28.1433
274,1436963029019,42.6926,-8.80127,-28.1433
275,1436963029040,43.7439,-5.6366,-27.4704
276,1436963029061,43.5699,-2.99988,-26.6296
277,1436963029079,43.5699,-2.99988,-26.6296
278,1436963029101,43.0435,3.15247,-25.4517
279,1436963029119,42.3431,3.85437,-26.7975
280,1436963029138,42.3431,3.85437,-26.7975
281,1436963029159,43.0435,6.31561,-26.4603
282,1436963029179,42.868,6.14014,-26.2924
283,1436963029199,42.868,6.14014,-26.2924
284,1436963029218,41.6428,7.72247,-26.7975
285,1436963029238,41.9922,6.66809,-25.7889
286,1436963029258,41.9922,6.66809,-25.7889
287,1436963029276,41.8167,4.73328,-25.9567
288,1436963029298,41.9922,5.26123,-26.4603
289,1436963029316,41.9922,5.26123,-26.4603
290,1436963029336,41.4673,2.62451,-27.301
291,1436963029356,41.8167,0.515747,-27.6382
292,1436963029376,41.8167,0.515747,-27.6382
293,1436963029398,41.4673,0.163269,-28.6469
294,1436963029415,40.2405,0.338745,-29.8248
295,1436963029435,40.2405,0.338745,-29.8248
296,1436963029455,40.9409,-2.47345,-30.1605
297,1436963029475,41.9922,-1.41907,-30.4962
298,1436963029497,41.9922,-1.41907,-30.4962
299,1436963029514,41.9922,-0.715637,-29.4876
300,1436963029534,40.065,-0.187683,-30.6656
301,1436963029554,40.065,-0.187683,-30.6656
302,1436963029574,40.5914,1.04218,-30.8334
303,1436963029595,40.9409,0.691223,-30.4962
304,1436963029613,40.9409,0.691223,-30.4962
305,1436963029632,40.2405,5.96466,-31.842
306,1436963029654,38.4888,6.31561,-32.515
307,1436963029673,38.4888,6.31561,-32.515
308,1436963029692,39.8895,8.07343,-30.4962
309,1436963029713,38.1378,7.37,-30.1605
310,1436963029732,38.1378,7.37,-30.1605
311,1436963029752,39.0137,6.14014,-31.6742
312,1436963029772,37.6129,6.49109,-32.3471
313,1436963029792,37.6129,6.49109,-32.3471
314,1436963029810,37.6129,7.19452,-31.337
315,1436963029831,38.3133,7.89795,-31.0013
316,1436963029851,38.3133,7.89795,-31.0013
317,1436963029870,40.2405,6.31561,-29.8248
318,1436963029891,39.7156,3.67889,-28.9841
319,1436963029908,39.7156,3.67889,-28.9841
320,1436963029932,39.7156,2.62451,-28.3112
321,1436963029949,40.2405,0.338745,-28.479
322,1436963029969,40.2405,0.338745,-28.479
323,1436963029989,41.1163,0.163269,-26.6296
324,1436963030009,41.2918,-0.715637,-28.8147
325,1436963030028,41.2918,-0.715637,-28.8147
326,1436963030048,40.2405,-2.47345,-26.7975
327,1436963030068,41.9922,-3.52783,-28.479
328,1436963030087,41.9922,-3.52783,-28.479
329,1436963030105,41.8167,-5.11017,-29.3198
330,1436963030129,41.8167,-6.5155,-28.9841
331,1436963030147,41.8167,-6.5155,-28.9841
332,1436963030167,41.6428,-5.98907,-29.4876
333,1436963030187,42.5186,-5.8136,-30.6656
334,1436963030206,42.5186,-5.8136,-30.6656
335,1436963030227,42.5186,-4.75769,-29.6555
336,1436963030246,41.9922,-3.87878,-28.479
337,1436963030265,41.9922,-3.87878,-28.479
338,1436963030286,42.6926,-2.12097,-29.8248
339,1436963030305,42.1677,-1.59454,-28.3112
340,1436963030327,42.1677,-1.59454,-28.3112
341,1436963030345,42.1677,0.163269,-28.6469
342,1436963030364,40.7669,4.03137,-27.9739
343,1436963030385,40.7669,4.03137,-27.9739
344,1436963030402,41.1163,5.43671,-27.301
345,1436963030424,41.4673,6.49109,-27.9739
346,1436963030443,41.4673,6.49109,-27.9739
347,1436963030463,40.416,7.19452,-25.9567
348,1436963030484,38.3133,7.547,-28.6469
349,1436963030503,38.3133,7.547,-28.6469
350,1436963030525,41.6428,7.37,-25.4517
351,1436963030542,41.2918,5.96466,-27.8061
352,1436963030562,41.2918,5.96466,-27.8061
353,1436963030582,41.9922,4.91028,-28.479
354,1436963030602,39.0137,2.97546,-27.6382
355,1436963030624,39.0137,2.97546,-27.6382
356,1436963030641,41.1163,0.163269,-27.9739
357,1436963030661,41.2918,-2.8244,-27.4704
358,1436963030680,41.2918,-2.8244,-27.4704
359,1436963030701,41.4673,-6.5155,-28.3112
360,1436963030721,40.9409,-8.80127,-29.4876
361,1436963030740,40.9409,-8.80127,-29.4876
362,1436963030759,41.6428,-8.09784,-30.4962
363,1436963030780,40.065,-7.92236,-30.6656
364,1436963030799,40.065,-7.92236,-30.6656
365,1436963030821,41.4673,-6.86798,-32.3471
366,1436963030839,42.3431,-3.87878,-31.5063
367,1436963030859,42.3431,-3.87878,-31.5063
368,1436963030879,40.7669,-3.35236,-33.3557
369,1436963030898,40.5914,-1.41907,-31.5063
370,1436963030918,40.5914,-1.41907,-31.5063
371,1436963030937,42.1677,3.67889,-33.02
372,1436963030958,40.2405,3.85437,-32.8506
373,1436963030977,40.2405,3.85437,-32.8506
374,1436963030998,38.6642,4.38232,-32.0099
375,1436963031017,38.1378,3.85437,-31.1691
376,1436963031034,38.1378,3.85437,-31.1691
377,1436963031057,39.1891,5.61218,-32.1793
378,1436963031076,38.3133,4.03137,-30.6656
379,1436963031098,38.3133,4.03137,-30.6656
380,1436963031116,38.3133,4.73328,-29.9927
381,1436963031136,37.9623,2.62451,-28.6469
382,1436963031156,37.9623,2.62451,-28.6469
383,1436963031175,40.2405,1.04218,-28.1433
384,1436963031198,39.7156,-0.891113,-28.9841
385,1436963031214,39.7156,-0.891113,-28.9841
386,1436963031234,41.9922,-6.34003,-27.8061
387,1436963031254,39.5401,-9.15222,-27.8061
388,1436963031274,39.5401,-9.15222,-27.8061
389,1436963031296,41.4673,-10.7346,-26.9653
390,1436963031314,41.2918,-11.2625,-27.8061
391,1436963031333,41.2918,-11.2625,-27.8061
392,1436963031352,41.9922,-12.3169,-27.1332
393,1436963031373,41.4673,-12.1414,-28.6469
394,1436963031393,41.4673,-12.1414,-28.6469
395,1436963031412,42.6926,-9.5047,-30.4962
396,1436963031432,41.1163,-7.57141,-29.3198
397,1436963031452,41.1163,-7.57141,-29.3198
398,1436963031472,41.8167,-4.40674,-28.3112
399,1436963031494,41.8167,-2.99988,-28.3112
400,1436963031511,41.8167,-2.99988,-28.3112
401,1436963031529,40.9409,-2.8244,-27.4704
402,1436963031551,40.9409,-1.06659,-27.1332
403,1436963031570,40.9409,-1.06659,-27.1332
404,1436963031593,41.9922,0.691223,-26.7975
405,1436963031610,41.6428,0.338745,-26.4603
406,1436963031630,41.6428,0.338745,-26.4603
407,1436963031650,40.9409,0.691223,-25.7889
408,1436963031668,41.9922,1.39465,-24.7787
409,1436963031689,41.9922,1.39465,-24.7787
410,1436963031710,41.6428,2.44904,-24.7787
411,1436963031729,41.6428,0.338745,-24.7787
412,1436963031749,41.6428,0.338745,-24.7787
413,1436963031768,42.3431,1.04218,-25.7889
414,1436963031791,41.1163,-2.29797,-25.2838
415,1436963031808,41.1163,-2.29797,-25.2838
416,1436963031827,42.6926,-3.87878,-27.8061
417,1436963031846,42.3431,-4.93469,-26.7975
418,1436963031867,42.3431,-4.93469,-26.7975
419,1436963031888,42.6926,-5.98907,-26.7975
420,1436963031907,42.868,-8.62579,-26.6296
421,1436963031926,42.868,-8.62579,-26.6296
422,1436963031946,43.3945,-9.85565,-27.4704
423,1436963031966,43.219,-10.3836,-27.9739
424,1436963031986,43.219,-10.3836,-27.9739
425,1436963032005,41.8167,-8.62579,-26.6296
426,1436963032025,43.3945,-7.04346,-28.479
427,1436963032045,43.3945,-7.04346,-28.479
428,1436963032065,42.6926,-3.52783,-28.8147
429,1436963032085,44.0949,-6.34003,-29.8248
430,1436963032104,44.0949,-6.34003,-29.8248
431,1436963032124,43.9194,-3.35236,-30.6656
432,1436963032144,43.219,-4.05579,-30.3284
433,1436963032162,43.219,-4.05579,-30.3284
434,1436963032184,41.9922,-3.52783,-31.5063
435,1436963032202,42.3431,-3.87878,-29.4876
436,1436963032223,42.3431,-3.87878,-29.4876
437,1436963032243,40.9409,-2.47345,-29.8248
438,1436963032263,42.6926,-2.47345,-28.8147
439,1436963032282,42.6926,-2.47345,-28.8147
440,1436963032302,41.4673,-1.9455,-27.6382
441,1436963032324,41.4673,-5.8136,-27.301
442,1436963032341,41.4673,-5.8136,-27.301
443,1436963032361,41.2918,-7.39441,-25.7889
444,1436963032381,40.9409,-8.80127,-27.8061
445,1436963032401,40.9409,-8.80127,-27.8061
446,1436963032417,41.8167,-9.32922,-26.9653
447,1436963032441,40.7669,-13.8992,-25.9567
448,1436963032460,40.7669,-13.8992,-25.9567
449,1436963032478,42.6926,-15.4816,-24.4431
450,1436963032500,41.9922,-19.6991,-22.4243
451,1436963032521,41.9922,-19.6991,-22.4243
452,1436963032538,42.868,-19.8761,-22.2565
453,1436963032559,45.3217,-19.5236,-20.2393
454,1436963032579,45.3217,-19.5236,-20.2393
455,1436963032598,46.373,-19.1727,-21.9208
456,1436963032621,46.8979,-17.9413,-19.0613
457,1436963032638,46.8979,-17.9413,-19.0613
458,1436963032657,48.3002,-13.7238,-18.3884
459,1436963032678,47.9492,-13.0203,-17.3798
460,1436963032696,47.9492,-13.0203,-17.3798
