id,attr_time,attr_x,attr_y,attr_z
1,1436281189258,-15.304,-45.761,-13.549
2,1436281189259,-15.304,-45.761,-13.549
3,1436281189260,-15.304,-45.761,-13.549
4,1436281189261,-15.304,-45.761,-13.549
5,1436281189262,-15.304,-45.761,-13.549
6,1436281189263,-15.304,-45.761,-13.549
7,1436281189273,-15.304,-45.761,-13.549
8,1436281189287,-15.304,-45.761,-13.549
9,1436281189306,-15.304,-45.761,-13.549
10,1436281189325,-15.304,-45.761,-13.549
11,1436281189351,-15.304,-45.761,-13.549
12,1436281189365,-15.304,-45.761,-13.549
13,1436281189386,-15.304,-45.761,-13.549
14,1436281189408,-15.304,-45.761,-13.206
15,1436281189426,-15.304,-45.761,-13.206
16,1436281189450,-15.304,-45.761,-13.206
17,1436281189466,-15.608,-45.761,-13.206
18,1436281189489,-15.608,-45.761,-13.206
19,1436281189509,-15.608,-45.761,-13.206
20,1436281189528,-15.608,-45.761,-13.206
21,1436281189549,-15.608,-45.761,-13.206
22,1436281189566,-15.608,-45.761,-13.206
23,1436281189588,-15.608,-45.761,-13.206
24,1436281189606,-15.608,-45.761,-13.206
25,1436281189626,-15.608,-45.761,-13.206
26,1436281189646,-15.608,-45.761,-13.206
27,1436281189672,-15.608,-45.761,-13.206
28,1436281189686,-15.608,-45.761,-13.206
29,1436281189706,-15.608,-45.761,-13.206
30,1436281189726,-15.608,-45.761,-13.206
31,1436281189746,-15.608,-45.761,-13.206
32,1436281189766,-15.608,-45.761,-13.206
33,1436281189788,-15.608,-45.761,-13.206
34,1436281189810,-15.608,-45.761,-13.206
35,1436281189828,-15.608,-45.761,-13.206
36,1436281189848,-15.608,-45.761,-13.206
37,1436281189867,-15.608,-46.064,-13.206
38,1436281189886,-15.608,-46.064,-13.206
39,1436281189908,-15.608,-46.064,-13.206
40,1436281189928,-15.608,-46.064,-13.206
41,1436281190000,-15.608,-46.064,-13.206
42,1436281190001,-15.608,-46.064,-13.206
43,1436281190002,-15.608,-46.064,-13.206
44,1436281190010,-15.608,-46.064,-13.206
45,1436281190027,-15.608,-46.064,-13.206
46,1436281190047,-15.608,-46.064,-13.206
47,1436281190066,-15.608,-46.064,-13.206
48,1436281190090,-15.608,-46.064,-13.206
49,1436281190117,-15.608,-46.064,-13.206
50,1436281190130,-15.608,-46.064,-13.206
51,1436281190149,-15.608,-46.064,-13.206
52,1436281190166,-15.608,-46.064,-13.206
53,1436281190189,-15.608,-46.064,-13.206
54,1436281190208,-15.608,-46.064,-13.206
55,1436281190228,-15.608,-46.064,-13.206
56,1436281190247,-15.608,-46.064,-13.206
57,1436281190268,-15.608,-46.064,-13.206
58,1436281190290,-15.608,-46.064,-13.206
59,1436281190310,-15.608,-46.064,-13.206
60,1436281190330,-15.608,-46.064,-13.206
61,1436281190350,-15.608,-46.064,-13.206
62,1436281190367,-15.608,-46.064,-13.206
63,1436281190389,-15.608,-46.064,-13.206
64,1436281190406,-15.608,-46.064,-13.206
65,1436281190430,-15.608,-46.064,-13.206
66,1436281190447,-15.608,-46.064,-13.206
67,1436281190466,-15.608,-46.064,-13.206
68,1436281190487,-15.608,-46.064,-13.206
69,1436281190513,-15.608,-46.064,-13.206
70,1436281190532,-15.608,-46.064,-13.206
71,1436281190553,-15.608,-46.064,-13.206
72,1436281190569,-15.608,-46.064,-13.206
73,1436281190587,-15.608,-46.064,-13.206
74,1436281190607,-15.608,-46.064,-13.206
75,1436281190626,-15.608,-46.064,-13.206
76,1436281190661,-15.608,-46.064,-13.206
77,1436281190725,-15.608,-46.064,-13.206
78,1436281190740,-15.608,-45.759,-13.206
79,1436281190741,-15.608,-45.759,-13.206
80,1436281190742,-15.608,-45.759,-13.206
81,1436281190755,-15.608,-45.759,-13.206
82,1436281190768,-15.608,-45.759,-13.206
83,1436281190787,-15.608,-45.759,-13.206
84,1436281190807,-15.608,-45.759,-13.206
85,1436281190838,-15.608,-45.759,-13.206
86,1436281190857,-15.608,-45.759,-13.206
87,1436281190867,-15.608,-45.759,-13.206
88,1436281190887,-15.608,-45.759,-13.206
89,1436281190907,-15.608,-45.759,-13.206
90,1436281190930,-15.608,-45.759,-13.206
91,1436281190950,-15.608,-45.759,-13.206
92,1436281190969,-15.608,-45.759,-13.206
93,1436281190990,-15.608,-45.759,-13.206
94,1436281191010,-15.608,-45.759,-13.206
95,1436281191030,-15.608,-45.759,-13.52
96,1436281191050,-15.608,-45.759,-13.52
97,1436281191069,-15.608,-45.759,-13.52
98,1436281191090,-15.608,-45.759,-13.52
99,1436281191109,-15.608,-45.759,-13.52
100,1436281191130,-15.608,-45.759,-13.52
101,1436281191151,-15.608,-45.759,-13.52
102,1436281191167,-15.608,-45.759,-13.52
103,1436281191188,-15.608,-45.759,-13.195
104,1436281191207,-15.284,-45.759,-13.195
105,1436281191234,-15.284,-46.086,-13.195
106,1436281191250,-15.284,-46.086,-13.195
107,1436281191273,-15.284,-46.086,-13.195
108,1436281191291,-15.284,-46.086,-13.195
109,1436281191308,-15.284,-46.086,-12.867
110,1436281191328,-15.284,-46.086,-12.867
111,1436281191351,-15.284,-46.086,-12.867
112,1436281191374,-15.284,-46.086,-12.867
113,1436281191440,-14.953,-46.392,-12.867
114,1436281191441,-14.953,-46.392,-12.867
115,1436281191442,-14.953,-46.392,-12.867
116,1436281191448,-14.953,-46.392,-12.867
117,1436281191471,-14.953,-46.392,-12.867
118,1436281191491,-14.953,-46.392,-12.867
119,1436281191507,-14.953,-46.392,-12.867
120,1436281191534,-14.953,-46.392,-12.867
121,1436281191550,-14.953,-46.392,-12.867
122,1436281191570,-14.953,-46.392,-12.867
123,1436281191589,-15.348,-46.049,-12.867
124,1436281191612,-15.348,-46.049,-13.208
125,1436281191628,-15.348,-46.049,-13.208
126,1436281191651,-15.745,-45.622,-13.208
127,1436281191670,-16.046,-45.622,-13.583
128,1436281191691,-16.514,-44.567,-13.583
129,1436281191711,-16.514,-43.807,-13.909
130,1436281191731,-17.179,-43.276,-13.909
131,1436281191751,-17.637,-42.443,-14.486
132,1436281191855,-18.646,-41.352,-15.055
133,1436281191856,-20.452,-38.603,-15.055
134,1436281191857,-22.676,-36.122,-15.055
135,1436281191858,-23.648,-34.573,-15.055
136,1436281191859,-23.648,-32.887,-15.522
137,1436281191914,-23.648,-31.997,-16.326
138,1436281191915,-23.648,-30.625,-16.706
139,1436281191916,-23.648,-29.762,-17.112
140,1436281191928,-23.648,-29.762,-17.594
141,1436281191968,-23.648,-29.762,-17.594
142,1436281191969,-23.648,-30.661,-17.156
143,1436281191988,-23.959,-31.234,-16.709
144,1436281192008,-23.959,-32.632,-16.709
145,1436281192028,-23.959,-34.042,-16.709
146,1436281192049,-23.562,-34.848,-15.995
147,1436281192069,-22.756,-36.346,-14.971
148,1436281192088,-22.346,-37.457,-14.19
149,1436281192108,-22.346,-39.309,-13.116
150,1436281192128,-22.346,-39.706,-12.309
151,1436281192158,-22.782,-40.31,-12.309
152,1436281192182,-22.782,-40.31,-11.607
153,1436281192191,-21.878,-40.31,-11.607
154,1436281192211,-21.878,-40.704,-10.638
155,1436281192229,-21.165,-40.704,-11.95
156,1436281192248,-21.165,-40.704,-11.95
157,1436281192270,-20.773,-40.704,-12.315
158,1436281192288,-20.773,-40.704,-12.315
159,1436281192318,-20.08,-40.704,-12.907
160,1436281192328,-20.08,-40.704,-12.907
161,1436281192351,-19.59,-40.704,-12.907
162,1436281192369,-19.19,-40.704,-12.907
163,1436281192391,-19.19,-41.195,-12.342
164,1436281192412,-19.19,-40.881,-12.342
165,1436281192432,-18.811,-40.881,-12.342
166,1436281192452,-18.811,-40.881,-12.342
167,1436281192469,-18.811,-40.881,-12.342
168,1436281192492,-18.281,-40.881,-12.342
169,1436281192512,-17.932,-41.285,-12.342
170,1436281192532,-17.599,-41.285,-12.342
171,1436281192552,-17.15,-41.285,-12.905
172,1436281192571,-16.477,-41.285,-12.905
173,1436281192592,-15.698,-41.653,-13.464
174,1436281192609,-15.332,-41.653,-13.464
175,1436281192631,-14.895,-41.653,-13.464
176,1436281192652,-13.96,-41.653,-14.154
177,1436281192671,-13.523,-41.976,-14.633
178,1436281192692,-13.523,-41.976,-15.016
179,1436281192712,-13.523,-41.976,-15.016
180,1436281192731,-13.885,-41.976,-15.802
181,1436281192751,-13.885,-41.976,-16.218
182,1436281192771,-13.885,-41.976,-16.535
183,1436281192792,-13.885,-41.976,-16.857
184,1436281192811,-13.885,-41.976,-17.33
185,1436281192832,-13.885,-41.976,-18.13
186,1436281192850,-13.885,-41.976,-18.684
187,1436281192869,-13.885,-41.976,-18.684
188,1436281192914,-13.885,-40.428,-17.82
189,1436281192915,-15.281,-39.042,-17.28
190,1436281192928,-18.002,-37.355,-16.856
191,1436281192948,-20.466,-35.382,-16.856
192,1436281192969,-21.234,-34.576,-16.856
193,1436281192993,-21.6,-33.876,-16.856
194,1436281193009,-21.6,-32.876,-17.279
195,1436281193032,-21.192,-32.142,-17.279
196,1436281193051,-20.881,-32.142,-17.593
197,1436281193070,-20.881,-31.781,-17.593
198,1436281193093,-21.388,-31.781,-17.593
199,1436281193112,-21.885,-32.289,-17.03
200,1436281193129,-21.885,-33.189,-16.122
201,1436281193151,-21.885,-34.143,-15.415
202,1436281193173,-20.951,-35.145,-14.137
203,1436281193191,-19.793,-36.051,-14.137
204,1436281193211,-18.777,-37.265,-13.742
205,1436281193231,-18.417,-37.751,-13.366
206,1436281193251,-18.417,-38.264,-13.366
207,1436281193272,-18.919,-38.264,-12.945
208,1436281193293,-19.265,-38.264,-11.972
209,1436281193309,-19.265,-38.264,-12.283
210,1436281193333,-18.428,-38.264,-12.73
211,1436281193354,-18.428,-37.805,-13.227
212,1436281193375,-18.428,-37.805,-13.227
213,1436281193393,-18.428,-37.295,-13.227
214,1436281193413,-18.428,-37.295,-13.227
215,1436281193433,-18.428,-37.295,-13.227
216,1436281193453,-18.069,-37.295,-13.227
217,1436281193471,-18.069,-37.661,-13.227
218,1436281193493,-17.703,-38.146,-12.869
219,1436281193514,-17.198,-38.146,-12.869
220,1436281193534,-17.198,-38.146,-12.869
221,1436281193552,-17.614,-38.146,-12.869
222,1436281193571,-17.614,-38.146,-12.869
223,1436281193641,-17.205,-38.603,-12.869
224,1436281193642,-17.205,-38.603,-12.869
225,1436281193643,-16.862,-38.603,-12.869
226,1436281193650,-16.54,-38.603,-12.869
227,1436281193670,-16.156,-38.928,-13.206
228,1436281193692,-15.846,-38.928,-13.206
229,1436281193710,-15.534,-38.928,-13.511
230,1436281193732,-15.534,-38.928,-13.511
231,1436281193750,-15.534,-38.928,-13.511
232,1436281193771,-15.534,-39.323,-13.511
233,1436281193791,-15.534,-39.323,-13.903
234,1436281193813,-15.534,-39.323,-13.903
235,1436281193833,-15.534,-39.323,-13.903
236,1436281193853,-15.226,-39.643,-13.903
237,1436281193873,-15.226,-39.643,-13.903
238,1436281193893,-15.226,-39.643,-14.28
239,1436281193913,-15.226,-39.643,-14.28
240,1436281193933,-15.226,-39.643,-14.28
241,1436281193953,-15.226,-38.179,-14.63
242,1436281193973,-15.226,-36.63,-14.63
243,1436281193993,-18.357,-34.716,-14.63
244,1436281194012,-20.855,-33.064,-14.63
245,1436281194033,-21.778,-31.997,-14.63
246,1436281194053,-22.441,-31.04,-14.63
247,1436281194073,-23.168,-30.142,-14.63
248,1436281194091,-24.113,-29.4,-14.303
249,1436281194112,-24.595,-29.4,-13.569
250,1436281194140,-24.595,-29.4,-13.006
251,1436281194156,-24.595,-30.316,-12.226
252,1436281194175,-24.595,-31.646,-11.566
253,1436281194196,-23.846,-32.774,-10.781
254,1436281194213,-23.19,-33.949,-10.261
255,1436281194230,-22.436,-35.089,-9.202
256,1436281194253,-21.545,-36.463,-8.644
257,1436281194272,-20.755,-37.181,-8.644
258,1436281194354,-20.442,-38.322,-8.34
259,1436281194355,-20.442,-38.322,-8.34
260,1436281194356,-20.442,-37.837,-8.34
261,1436281194357,-21.211,-37.837,-7.814
262,1436281194371,-20.867,-37.837,-8.547
263,1436281194392,-20.556,-37.837,-9.028
264,1436281194411,-20.556,-37.837,-9.028
265,1436281194431,-20.556,-37.837,-9.028
266,1436281194454,-20.111,-37.347,-9.028
267,1436281194471,-19.444,-38.041,-9.028
268,1436281194492,-19.444,-38.385,-9.028
269,1436281194514,-18.919,-38.786,-8.706
270,1436281194531,-18.919,-38.786,-8.706
271,1436281194551,-18.919,-38.786,-8.706
272,1436281194574,-18.919,-38.786,-8.706
273,1436281194594,-18.919,-38.475,-8.706
274,1436281194613,-18.919,-38.475,-8.706
275,1436281194631,-18.919,-38.475,-8.706
276,1436281194651,-18.919,-38.807,-8.706
277,1436281194671,-18.597,-38.807,-9.062
278,1436281194691,-18.2,-38.807,-9.062
279,1436281194714,-17.773,-38.807,-9.39
280,1436281194735,-17.364,-39.213,-9.39
281,1436281194751,-17.364,-39.213,-9.815
282,1436281194774,-16.999,-39.213,-9.815
283,1436281194792,-16.999,-39.538,-10.18
284,1436281194811,-16.999,-39.538,-10.18
285,1436281194831,-16.999,-39.538,-10.586
286,1436281194856,-16.999,-39.538,-10.586
287,1436281194876,-16.999,-39.538,-11.019
288,1436281194896,-16.999,-39.538,-11.019
289,1436281194946,-16.999,-39.538,-11.59
290,1436281194947,-16.999,-39.07,-11.59
291,1436281194951,-16.999,-37.532,-11.59
292,1436281194973,-18.473,-36.238,-11.59
293,1436281194993,-20.799,-34.747,-11.59
294,1436281195015,-22.904,-33.641,-11.59
295,1436281195062,-24.447,-32.421,-11.59
296,1436281195063,-24.447,-31.809,-11.59
297,1436281195078,-25.189,-30.943,-11.59
298,1436281195092,-26.417,-30.943,-11.59
299,1436281195113,-26.417,-30.514,-11.59
300,1436281195131,-26.876,-30.514,-11.216
301,1436281195151,-26.876,-31.347,-10.749
302,1436281195178,-26.876,-32.026,-10.403
303,1436281195193,-26.422,-33.139,-9.492
304,1436281195211,-25.761,-34.597,-8.743
305,1436281195231,-24.989,-35.577,-7.737
306,1436281195257,-24.195,-37.577,-6.997
307,1436281195274,-23.159,-39.337,-6.126
308,1436281195294,-22.094,-40.386,-5.789
309,1436281195314,-21.45,-41.737,-5.789
310,1436281195334,-21.45,-42.19,-4.942
311,1436281195354,-21.45,-42.19,-4.942
312,1436281195377,-21.45,-42.19,-5.554
313,1436281195395,-21.45,-42.19,-5.97
314,1436281195415,-21.45,-41.561,-5.97
315,1436281195433,-21.45,-41.561,-5.97
316,1436281195461,-21.45,-41.561,-5.97
317,1436281195511,-21.45,-41.561,-6.361
318,1436281195512,-21.083,-41.561,-6.361
319,1436281195513,-21.083,-41.561,-6.361
320,1436281195533,-21.083,-41.561,-6.361
321,1436281195552,-21.083,-41.561,-6.008
322,1436281195573,-20.606,-41.983,-6.008
323,1436281195596,-20.606,-41.983,-6.008
324,1436281195615,-20.606,-41.983,-6.008
325,1436281195637,-20.606,-41.983,-6.008
326,1436281195654,-20.606,-41.983,-6.88
327,1436281195673,-20.23,-41.983,-7.783
328,1436281195693,-20.23,-42.375,-8.143
329,1436281195714,-19.155,-42.375,-8.766
330,1436281195733,-18.272,-42.375,-9.384
331,1436281195755,-17.669,-42.375,-9.384
332,1436281195801,-17.202,-42.375,-9.875
333,1436281195803,-17.202,-42.375,-10.226
334,1436281195819,-17.202,-42.375,-10.226
335,1436281195832,-17.521,-42.681,-10.226
336,1436281195854,-17.835,-42.681,-10.226
337,1436281195887,-17.835,-42.681,-10.226
338,1436281195896,-18.209,-42.681,-10.226
339,1436281195912,-18.209,-42.681,-10.226
340,1436281195936,-18.209,-42.681,-10.226
341,1436281195955,-18.209,-42.681,-10.226
342,1436281195973,-18.209,-42.681,-10.226
343,1436281195995,-18.209,-42.681,-10.598
344,1436281196013,-18.209,-42.681,-10.598
345,1436281196035,-18.209,-42.681,-11.068
346,1436281196055,-18.209,-42.323,-11.068
347,1436281196075,-18.209,-42.323,-11.462
348,1436281196094,-18.516,-42.323,-11.462
349,1436281196113,-19.239,-41.856,-11.796
350,1436281196135,-20.811,-41.346,-11.796
351,1436281196155,-23.315,-39.601,-11.796
352,1436281196176,-26.087,-37.948,-9.649
353,1436281196192,-27.067,-36.631,-8.459
354,1436281196214,-27.523,-36.07,-8.459
355,1436281196236,-27.052,-36.07,-8.459
356,1436281196252,-26.274,-36.07,-9.48
357,1436281196272,-25.152,-37.625,-10.523
358,1436281196298,-23.556,-39.389,-10.115
359,1436281196318,-21.627,-41.136,-10.115
360,1436281196338,-20.021,-43.008,-9.278
361,1436281196356,-17.366,-45.117,-8.319
362,1436281196373,-14.637,-47.006,-7.612
363,1436281196392,-10.72,-48.863,-7.283
364,1436281196414,-6.248,-48.863,-7.283
365,1436281196432,-1.745,-49.473,-7.283
366,1436281196452,2.767,-49.104,-6.878
367,1436281196487,7.173,-48.127,-6.878
368,1436281196497,10.807,-46.412,-6.878
369,1436281196514,13.008,-45.214,-6.878
370,1436281196533,14.886,-44.316,-6.878
371,1436281196553,16.053,-43.246,-6.878
372,1436281196572,16.053,-43.246,-6.439
373,1436281196593,15.678,-43.875,-6.015
374,1436281196625,14.456,-44.683,-6.015
375,1436281196647,14.456,-44.683,-6.015
376,1436281196653,12.428,-45.71,-6.015
377,1436281196675,11.32,-45.71,-6.387
378,1436281196695,10.511,-46.574,-6.387
379,1436281196714,10.511,-46.574,-6.085
380,1436281196735,9.729,-46.96,-6.085
381,1436281196756,9.025,-47.265,-5.764
382,1436281196775,8.671,-47.265,-5.764
383,1436281196796,8.334,-47.265,-5.764
384,1436281196816,8.334,-47.265,-5.764
385,1436281196836,7.887,-47.265,-5.381
386,1436281196856,7.887,-47.265,-5.381
387,1436281196875,7.489,-47.265,-5.381
388,1436281196896,6.941,-47.265,-5.381
389,1436281196914,6.941,-47.265,-5.381
390,1436281196964,5.995,-47.654,-5.059
391,1436281196965,5.995,-47.654,-5.059
392,1436281196973,5.264,-47.654,-5.059
393,1436281196993,5.264,-47.654,-5.059
394,1436281197015,4.614,-47.654,-5.059
395,1436281197036,4.614,-47.654,-4.756
396,1436281197055,4.008,-48.007,-4.756
397,1436281197076,3.463,-48.007,-4.756
398,1436281197094,2.723,-48.007,-4.331
399,1436281197114,2.299,-48.431,-4.331
400,1436281197135,1.188,-48.431,-4.331
401,1436281197157,0.248,-48.431,-3.919
402,1436281197264,-1.348,-48.768,-3.919
403,1436281197265,-2.742,-48.768,-3.919
404,1436281197266,-4.403,-48.768,-3.454
405,1436281197267,-6.462,-48.768,-3.021
406,1436281197268,-8.241,-49.121,-1.837
407,1436281197280,-10.086,-49.121,-0.909
408,1436281197293,-11.262,-49.121,-0.433
409,1436281197314,-12.898,-49.121,0.202
410,1436281197333,-13.661,-49.121,0.202
411,1436281197355,-14.868,-49.121,0.758
412,1436281197374,-14.868,-49.121,1.454
413,1436281197395,-14.372,-49.121,1.905
414,1436281197417,-13.055,-49.121,2.368
415,1436281197433,-12.188,-49.121,3.974
416,1436281197455,-10.379,-49.121,4.779
417,1436281197477,-8.2,-49.121,5.879
418,1436281197497,-5.506,-49.43,6.494
419,1436281197517,-2.078,-49.43,5.821
420,1436281197537,0.871,-49.746,6.675
421,1436281197556,4.724,-50.054,6.675
422,1436281197575,8.357,-50.054,6.675
423,1436281197597,12.097,-49.703,7.638
424,1436281197614,15.565,-49.108,8.625
425,1436281197636,18.824,-47.134,8.625
426,1436281197657,21.771,-44.306,8.97
427,1436281197675,23.924,-41.429,9.82
428,1436281197693,25.071,-38.899,11.203
429,1436281197714,25.587,-37.283,12.965
430,1436281197734,25.587,-36.726,13.749
431,1436281197759,24.842,-37.126,14.558
432,1436281197775,23.707,-38.539,15.19
433,1436281197800,23.274,-39.369,15.19
434,1436281197817,22.735,-40.213,14.7
435,1436281197834,22.351,-41.41,13.102
436,1436281197854,21.258,-41.928,13.731
437,1436281197874,20.387,-42.256,14.99
438,1436281197895,19.52,-42.256,15.821
439,1436281197918,19.137,-42.939,15.821
440,1436281197968,18.409,-43.307,16.404
441,1436281197969,17.869,-43.307,17.17
442,1436281197977,17.869,-43.641,17.17
443,1436281198001,17.424,-43.641,17.492
444,1436281198014,17.012,-43.641,17.878
445,1436281198034,16.639,-43.641,17.878
446,1436281198054,16.082,-43.641,17.878
447,1436281198074,15.705,-43.971,17.878
448,1436281198095,15.376,-43.971,17.878
449,1436281198115,15.376,-43.971,17.878
450,1436281198135,14.517,-44.41,17.878
451,1436281198159,14.517,-44.09,18.261
452,1436281198175,14.517,-44.09,18.261
453,1436281198195,13.883,-44.09,18.617
454,1436281198214,13.363,-44.09,18.617
455,1436281198236,13.043,-44.09,18.31
456,1436281198255,12.547,-44.09,18.31
457,1436281198275,12.547,-44.485,18.31
458,1436281198297,11.489,-44.485,18.699
459,1436281198317,10.83,-44.869,18.699
460,1436281198337,10.018,-44.869,19.042
461,1436281198357,8.923,-45.234,19.042
462,1436281198375,7.858,-45.234,19.042
463,1436281198395,6.501,-45.62,19.502
464,1436281198418,5.389,-45.62,19.502
465,1436281198437,4.196,-46.17,19.81
466,1436281198457,3.126,-46.17,19.81
467,1436281198475,1.501,-46.495,20.573
468,1436281198498,-0.109,-46.495,21.632
469,1436281198516,-2.014,-46.495,22.631
470,1436281198537,-3.144,-46.495,23.757
471,1436281198557,-4.225,-46.495,25.074
472,1436281198575,-5.427,-46.495,25.903
473,1436281198598,-6.497,-46.495,26.788
474,1436281198615,-7.382,-45.863,27.33
475,1436281198636,-8.459,-44.92,28.282
476,1436281198665,-9.635,-43.917,28.282
477,1436281198718,-10.807,-43.319,29.513
478,1436281198719,-11.23,-43.319,29.513
479,1436281198720,-11.23,-42.358,29.513
480,1436281198740,-10.551,-42.007,29.513
481,1436281198755,-9.484,-42.007,30.03
482,1436281198775,-8.024,-41.371,30.789
483,1436281198795,-6.317,-41.067,30.789
484,1436281198815,-4.75,-41.067,31.164
485,1436281198836,-2.85,-40.164,31.665
486,1436281198857,-1.463,-39.564,31.665
487,1436281198876,-0.932,-38.76,31.665
488,1436281198895,-0.248,-38.279,31.356
489,1436281198918,0.224,-37.899,31.356
