id,attr_time,attr_db
1,1436967792226,43.7828203442569
2,1436967792895,42.5009910886602
3,1436967793566,32.9990267203996
4,1436967794321,32.8671261419815
5,1436967795051,38.2235977834523
6,1436967795744,29.0932488397548
7,1436967796383,26.0802448412679
8,1436967797036,29.728818091349
9,1436967797722,36.8271187850606
10,1436967798429,60.9321957677452
11,1436967799108,49.7310051485935
12,1436967799818,42.08127573342
13,1436967800459,42.5116635501641
14,1436967801177,33.5886202170009
15,1436967801981,24.7252538789322
16,1436967802703,27.2471438667586
17,1436967803400,15.6744520631327
18,1436967804031,53.9790974501559
19,1436967804715,68.3352714588312
20,1436967805408,65.6872361300235
21,1436967806218,61.3239362710376
22,1436967806910,58.0499169112199
23,1436967807564,61.4660225760604
24,1436967808231,41.5860555273624
25,1436967808973,48.5927645327125
26,1436967809767,48.3284931380433
27,1436967810531,40.9376840674984
28,1436967811274,53.2574579137163
29,1436967811998,66.9688183216674
30,1436967812733,68.9806285838185
31,1436967813472,50.6955883924525
32,1436967814160,52.5635891289462
33,1436967814833,61.3439028921825
34,1436967815557,52.3371589994228
35,1436967816309,39.9742469308187
36,1436967817111,54.6378831469916
37,1436967817856,61.1490423539336
38,1436967818593,46.2046173461152
39,1436967819374,62.4801968568642
40,1436967820075,57.8634115871543
41,1436967820737,48.5696663814003
42,1436967821512,53.1796141054386
43,1436967822254,54.5575972616464
44,1436967822982,53.7103373135054
45,1436967823711,55.8765045305081
46,1436967824463,56.3645223769458
47,1436967825202,59.9023626815197
48,1436967825904,56.9128848632689
49,1436967826645,66.5589261855655
50,1436967827403,60.515134292033
51,1436967828182,67.7784146034722
52,1436967828907,67.392461797539
53,1436967829640,68.0344761087401
54,1436967830382,59.8819013682697
55,1436967831159,59.7909978475206
56,1436967831882,51.6902467789071
57,1436967832594,59.4176033262727
58,1436967833331,64.8072553189019
59,1436967834068,66.197467726512
60,1436967834768,66.6253175390615
61,1436967835513,67.1600920089973
62,1436967836186,63.5470309538983
63,1436967836953,56.3841948482706
64,1436967837705,48.4058029792847
65,1436967838415,60.8777292240466
66,1436967839162,65.7663952125701
67,1436967839889,62.4854788334221
68,1436967840575,63.0739764065815
69,1436967841258,53.3221287930926
70,1436967841994,56.7142423466883
71,1436967842724,60.7088226773594
72,1436967843451,60.0086873146432
73,1436967844167,61.6763231222662
74,1436967844912,56.0554704361638
75,1436967845614,51.1629873276203
76,1436967846272,58.8905050051798
77,1436967847019,58.963199862322
78,1436967847759,50.9343522405634
79,1436967848519,67.1868252924551
80,1436967849320,60.9251310397431
81,1436967850049,65.7138697343166
82,1436967850740,64.9583521207248
83,1436967852362,66.59878139607
84,1436967853039,61.1703439856155
85,1436967853758,61.9721390662583
86,1436967854512,63.6450184516954
87,1436967855240,57.8654397160322
88,1436967855951,58.7897688471974
89,1436967856601,49.105983517322
90,1436967857278,61.7286471859139
91,1436967858007,65.5721645589156
92,1436967859328,55.719458903605
93,1436967859995,48.3443892681429
94,1436967860723,64.5560467145404
95,1436967861371,65.4648021541555
96,1436967862137,62.8810786093933
97,1436967862856,63.2821423075072
98,1436967863573,52.899203790881
99,1436967864343,64.1652980027432
100,1436967865021,61.8289318209449
101,1436967865833,72.1162580150701
102,1436967866562,65.3521391753268
103,1436967867275,69.2350011181249
104,1436967867953,73.1307358046038
105,1436967868665,54.8189748925492
106,1436967870380,59.9771225650089
107,1436967871133,60.9211837284441
108,1436967871865,58.7727859105361
109,1436967872608,54.7655925251176
110,1436967873338,63.7776402668188
111,1436967874090,70.5623864197097
112,1436967874797,49.3442355694823
113,1436967875529,48.8444229857567
114,1436967876273,58.3041338869355
115,1436967877017,54.807740195506
116,1436967877753,51.9609273715869
117,1436967878506,68.0371557031875
118,1436967879245,55.8379214486366
119,1436967879972,59.5722442577857
120,1436967880728,64.4818477126991
121,1436967881445,60.675886272077
122,1436967882118,59.2330786669622
123,1436967882836,68.5552739527236
124,1436967883576,47.2618175285272
125,1436967884294,55.3776961058863
126,1436967885007,50.5789523890274
127,1436967885742,60.4162519745208
128,1436967886386,53.1979080239201
129,1436967887115,58.2546798783625
130,1436967887871,57.3234207756451
131,1436967888595,58.5837043125825
132,1436967889314,64.1755590813009
133,1436967890056,55.6922536977992
134,1436967890858,66.9709274113748
135,1436967891608,51.7487669946747
136,1436967892359,59.9025230978523
137,1436967893102,63.9585471423958
138,1436967893825,65.9336666833504
139,1436967894562,44.9391986536247
140,1436967895299,64.9733658123962
141,1436967896062,58.2924617590268
142,1436967896727,53.5174500528407
143,1436967897445,59.4959084136635
144,1436967898216,59.4892910854371
145,1436967898963,60.2247375326118
146,1436967899611,58.5098783663596
147,1436967900897,68.058801337648
148,1436967901566,59.3946040851569
149,1436967902312,60.425503479377
150,1436967903041,61.0943820759213
151,1436967903767,64.8223199804243
152,1436967904517,60.6287512671837
153,1436967905311,51.9746189971768
154,1436967906021,48.6159599893605
155,1436967906743,62.6715132633274
156,1436967907482,75.5820708008651
157,1436967908231,63.3718543237545
158,1436967908966,64.3562240933663
159,1436967909698,59.209984645332
160,1436967910423,68.4112102380794
161,1436967911074,54.415680911925
162,1436967911823,55.5430008097425
163,1436967912570,60.7387344881177
164,1436967913290,59.1045923628487
165,1436967914029,56.4099986650638
166,1436967914743,67.6574333292102
167,1436967915467,58.5297380207968
168,1436967916046,64.3267800498899
169,1436967916705,55.6801524289927
170,1436967918487,57.2876259466086
171,1436967919215,59.9906786937654
172,1436967919934,69.0499845819198
173,1436967920660,58.8761281661851
174,1436967921310,55.3568954494444
175,1436967922052,59.2500312219669
176,1436967922673,59.4555014121515
177,1436967923395,57.564491595874
178,1436967924112,58.7178206749932
179,1436967924811,70.1165658335069
180,1436967925553,58.4855854183631
181,1436967926300,62.5614647158953
182,1436967927053,59.0670021181418
183,1436967927766,60.3431951763419
184,1436967928492,67.2243667825132
185,1436967929229,55.9843788810479
186,1436967929959,57.0228672029204
187,1436967930684,67.5733136912486
188,1436967931323,52.7597779902538
189,1436967931997,66.5119989408756
190,1436967932733,64.332366723878
191,1436967933476,50.8715214309711
192,1436967934250,60.5267441892778
193,1436967934974,57.4798327552796
194,1436967935671,57.5078826651947
195,1436967936417,62.1199418651411
196,1436967937079,61.672710391088
197,1436967937817,61.695195138209
198,1436967938538,58.4075073239382
199,1436967939268,63.0907544776744
200,1436967939991,57.6410439193339
201,1436967940729,61.8099230724784
202,1436967941409,62.8986485006275
203,1436967942136,59.9420016209364
204,1436967942874,58.8610843288838
205,1436967943637,58.1991270490076
206,1436967944400,64.1181549148097
207,1436967945123,53.1462905501679
208,1436967945802,62.6917385446316
209,1436967946489,53.9914930822259
210,1436967947235,58.2227920865384
211,1436967947981,57.3205614612691
212,1436967948717,65.5931867479324
213,1436967949465,62.5130449367419
214,1436967950196,62.7540578241427
215,1436967950929,53.8182553345865
216,1436967951732,60.892171745284
217,1436967952381,62.8696363642227
218,1436967953119,61.0674522050862
219,1436967953849,58.5795032141377
220,1436967954597,61.871296157335
221,1436967955307,63.0170152982176
222,1436967955978,61.5002451581939
223,1436967956775,61.2785898596329
224,1436967957472,57.0517773290979
225,1436967958079,60.5711061696897
226,1436967958758,57.3108796742738
227,1436967959487,67.7100638696618
228,1436967960232,65.7188259948188
229,1436967960958,57.1079906947073
230,1436967961687,64.5612812165754
231,1436967962349,51.1512843910256
232,1436967963010,55.3173938819602
233,1436967963734,61.5785428571586
234,1436967964506,58.8867021450312
235,1436967965360,56.9168288154517
236,1436967966170,60.2566419007591
237,1436967966882,56.7344697342102
238,1436967967566,65.3969992963353
239,1436967968302,43.8749101269966
240,1436967969043,61.2258352238418
241,1436967969792,65.771607766693
242,1436967970538,58.4470586194151
243,1436967971294,49.5561115521927
244,1436967972022,55.7909886083618
245,1436967972747,65.3244793286851
246,1436967973462,68.7010032298763
247,1436967974150,65.4013390337412
248,1436967974887,64.2798774102564
249,1436967975602,67.7667851471179
250,1436967976338,63.4211272961814
251,1436967977098,49.3535882657561
252,1436967977796,60.465603019471
253,1436967978531,64.8106800109892
254,1436967979255,57.9727322934852
255,1436967979980,66.9092885542914
256,1436967980727,63.6597836416335
257,1436967981473,69.7522218593533
258,1436967982205,54.7980566205223
259,1436967982865,64.5982276853622
260,1436967983441,65.7116494706454
261,1436967984131,59.7139961835713
262,1436967984870,69.7974692001672
263,1436967985609,53.9329097652857
264,1436967986349,64.4836584564853
265,1436967987022,65.0312614200504
266,1436967987775,69.5370143712627
267,1436967988511,53.3996840593306
268,1436967989246,63.9361729433848
269,1436967989991,63.4369628312702
270,1436967990740,64.3289785053841
271,1436967991467,58.6983762734333
272,1436967992192,66.5743920694394
273,1436967992943,65.3238815469699
274,1436967993677,66.4360864015796
275,1436967994388,59.2694520348056
276,1436967995042,66.4922652905388
277,1436967995784,61.5843059365276
278,1436967996537,57.9167988039634
279,1436967997293,57.750945459175
280,1436967997957,69.8537726322002
281,1436967998707,62.2859053065527
282,1436967999442,72.2526195905175
283,1436968000173,56.4579374707435
284,1436968000901,62.402456107637
285,1436968001616,62.7338395627586
286,1436968002370,62.3992065567596
287,1436968003028,58.4889113527245
288,1436968003678,57.6436938549134
289,1436968004420,61.2590747637968
290,1436968005104,47.1381988230836
291,1436968005763,47.3320953223883
292,1436968006434,64.0991871234551
293,1436968007123,57.776386091034
294,1436968007865,58.3939642675091
295,1436968008590,64.2991218373123
296,1436968009346,61.545062274131
297,1436968010083,52.54426696401
298,1436968010817,59.8767122509929
299,1436968011553,66.4028848627314
300,1436968012277,59.3725802556837
301,1436968013012,59.1873357909734
302,1436968013756,54.6823016172179
303,1436968014485,64.7811523811697
304,1436968015205,67.8872732092301
305,1436968015906,58.5824508570999
306,1436968016598,69.5039225628521
307,1436968017334,64.4931041779205
308,1436968018068,61.4018797559056
309,1436968018793,56.4326133750911
310,1436968019503,61.4068180863259
311,1436968020221,56.96775530786
312,1436968020956,48.2403496117117
313,1436968021652,62.073369861553
314,1436968022378,64.587118167979
315,1436968023082,54.7909755589712
316,1436968023763,58.893040876332
317,1436968024509,62.2861833900826
318,1436968025238,58.0840229335941
319,1436968025938,60.4428390827013
320,1436968026620,61.1378479356514
321,1436968027332,70.4381404049316
322,1436968028016,59.232637732918
323,1436968028751,57.6121428718399
324,1436968029506,51.1358149465991
325,1436968030247,66.7593883704657
326,1436968030967,61.0965731571852
327,1436968031723,65.4356930929675
328,1436968032472,63.7729496737762
329,1436968033244,43.1771998688512
330,1436968033943,56.0906451582435
331,1436968034654,65.7106700994007
332,1436968035374,67.1326291990565
333,1436968036104,57.826970327213
334,1436968036704,63.8848085931722
335,1436968037376,67.8458356417328
336,1436968038134,61.9255895711183
337,1436968038868,64.9372851812688
338,1436968039603,59.5620888830228
339,1436968040358,62.8379812360762
340,1436968041025,63.8188972793273
341,1436968041741,61.5626065538567
342,1436968042487,68.5863338693152
343,1436968043190,48.4900502522641
344,1436968043789,61.6859061347092
345,1436968044453,61.5260569966976
346,1436968045180,53.0874917813971
347,1436968045896,65.9520801789714
348,1436968046621,67.1308717233266
349,1436968047242,54.0953212824584
350,1436968047950,56.7906763274992
351,1436968048688,63.5635826245272
352,1436968049449,63.917465019085
353,1436968050178,59.7623676073086
354,1436968050917,66.7723244202458
355,1436968051637,55.8285555160309
356,1436968052497,64.3810581492973
357,1436968053174,55.1795664873452
358,1436968053812,56.6272421865706
359,1436968054524,66.6297794560488
360,1436968056361,62.887280726356
361,1436968057055,57.6969852097373
362,1436968057764,65.850813031553
363,1436968058364,59.8859715653031
364,1436968059066,65.2303731129812
365,1436968059806,63.0859491056446
366,1436968060549,64.7979814908948
367,1436968061326,58.5486708254467
368,1436968061995,64.6725781633864
369,1436968062731,64.1463235079359
370,1436968063437,53.8743337429499
371,1436968064122,66.0683612245958
372,1436968064832,66.1366355942693
373,1436968065554,65.7983300785789
374,1436968066274,50.3149805776031
375,1436968067016,65.3912612905653
376,1436968067725,66.9951508003881
377,1436968068398,67.9839691873836
378,1436968069149,57.6255893129992
379,1436968069876,65.4657639070054
380,1436968070597,65.6020954679351
381,1436968071342,58.1975478640603
382,1436968072083,65.2063593002514
383,1436968072832,57.1235713537886
384,1436968073577,65.5942787233202
385,1436968074328,67.4153915957526
386,1436968075059,71.4875797412128
387,1436968075791,54.8674632558076
388,1436968076591,63.0465828574834
389,1436968078407,58.3168947080298
390,1436968079062,62.0584063504376
391,1436968079756,52.1074928208125
392,1436968080439,65.981677520937
393,1436968081245,65.5855924097451
394,1436968081959,68.6114204441957
395,1436968082671,54.777798234091
396,1436968083369,68.5590484875682
397,1436968083968,63.0379974152887
398,1436968084648,50.5146515849014
399,1436968085362,69.9219593295235
400,1436968086115,62.6168234148058
401,1436968086869,63.7214006588972
402,1436968087610,66.4580265469862
403,1436968088273,56.252696744848
404,1436968088929,67.6843841825558
405,1436968089673,67.3707057264312
406,1436968090404,57.6241984706337
407,1436968091117,59.6410832439215
408,1436968091769,67.5780383794581
409,1436968092512,66.5871006881804
410,1436968093257,60.0604257227625
411,1436968093998,64.3830616470554
412,1436968094726,65.7593856810915
413,1436968095479,58.9691653869863
414,1436968096214,48.8904107281976
415,1436968096939,66.186804042506
416,1436968097684,50.1000416455283
417,1436968098432,64.2714463331649
418,1436968099151,53.5421909013047
419,1436968099844,65.3187900299103
420,1436968100540,64.8428717299782
421,1436968101278,55.9611798143383
422,1436968102022,62.2374797919624
423,1436968102748,62.3330353581441
424,1436968103459,68.4543389278275
425,1436968104153,66.3973069781067
426,1436968104945,48.2076801643923
427,1436968105678,67.8207932277147
428,1436968106427,65.7595453401666
429,1436968107110,69.0913054103745
430,1436968107778,59.7548235359852
431,1436968108547,67.3784257377464
432,1436968109215,66.4732909432069
433,1436968109899,52.1971752979858
434,1436968110498,64.7691716948631
435,1436968111195,70.2719036349148
436,1436968111915,47.9475090453725
437,1436968112584,64.5682565312102
438,1436968113312,54.5441395445758
439,1436968114066,65.8066910707857
440,1436968114825,54.5569766976359
441,1436968115557,67.7795111356022
442,1436968117796,55.1644423154251
443,1436968118508,62.4574419770578
444,1436968119232,64.2452799469307
445,1436968119982,68.1768506705252
446,1436968120693,48.9218169894797
447,1436968121386,66.4253921570947
448,1436968122132,56.5687679581646
449,1436968122852,58.7934570544906
450,1436968123697,66.1280249608617
451,1436968124353,60.8625051874984
452,1436968125036,57.7042319629728
453,1436968125774,61.0506477523996
454,1436968126526,63.5397132108714
455,1436968127259,60.8251351511861
456,1436968127980,55.0453174155991
457,1436968128702,60.2345513015528
458,1436968129449,53.80229917346
459,1436968130175,56.2689577993582
460,1436968130864,60.1739069510933
461,1436968131536,62.7935223638319
462,1436968132292,68.2082834751196
463,1436968133029,57.4150764110634
464,1436968133740,66.2598460271607
465,1436968134463,69.8068445778009
466,1436968135122,61.8807791084594
467,1436968135851,59.3784548103565
468,1436968136622,62.7933123637623
469,1436968137267,71.3979081198626
470,1436968138682,66.3918928443878
471,1436968139406,66.8012873613621
472,1436968140146,56.0597049150947
473,1436968140881,63.4380705081252
474,1436968141582,68.5599943712367
475,1436968142242,51.2529350747433
476,1436968142965,64.6255465815047
477,1436968143669,47.447053552611
478,1436968144324,53.1822832565467
479,1436968144991,59.8722157872383
480,1436968145727,66.2133658103831
481,1436968146462,51.5657959087029
482,1436968147187,63.3073973662503
483,1436968147930,51.34278006971
484,1436968148672,57.101494378674
485,1436968149418,63.1775836963941
486,1436968150150,66.991421904048
487,1436968150882,62.6044726749767
488,1436968151603,61.2843200444292
489,1436968152311,62.7004562262494
490,1436968153053,51.938375071874
491,1436968153815,53.5351683979803
492,1436968154553,62.8467691401865
493,1436968155282,62.7516395709959
494,1436968156027,51.0240442263311
495,1436968156760,59.4209575433413
496,1436968157478,68.478131805881
497,1436968158223,64.0967130529728
498,1436968158951,51.3099839539775
499,1436968160049,47.8250562206994
500,1436968160717,59.5711814668033
501,1436968161410,58.1097182360203
502,1436968162216,51.6437300059637
503,1436968162894,58.8581152390815
504,1436968163583,67.310328361266
505,1436968164310,54.6188601008187
506,1436968165098,59.3404871497252
507,1436968165730,62.7308717429563
508,1436968166517,58.3875543838461
509,1436968167233,58.9099089146348
510,1436968167915,63.1252965677691
511,1436968168645,65.4129890136052
512,1436968169369,62.153103338159
513,1436968170105,68.7546815791816
514,1436968170851,61.8430418562819
515,1436968171643,52.8396502815837
516,1436968172360,70.484510013565
517,1436968173069,61.0310838857212
518,1436968173758,53.5934869544954
519,1436968174459,62.7173047700466
520,1436968175226,56.5670474328342
521,1436968175884,54.6680116237367
522,1436968176699,68.6682676664634
523,1436968177419,69.4917895518622
524,1436968178137,63.1486842696188
525,1436968178875,60.9570104606006
526,1436968179600,65.6878241327488
527,1436968180329,60.9431546511812
528,1436968181065,55.3839626436597
529,1436968181790,62.6705226332953
530,1436968182515,66.7604063667642
531,1436968183251,56.0586240542051
532,1436968183943,66.9268938696247
533,1436968184607,65.2082492752046
534,1436968185337,53.888430888335
535,1436968186063,68.7962391050499
536,1436968186825,62.2687254473086
537,1436968187526,55.5791553213906
538,1436968188252,60.8539795367254
539,1436968189000,69.8348980494861
540,1436968189747,64.2485676950444
541,1436968190488,57.708548787385
542,1436968191221,61.2171765414483
543,1436968191941,59.5629063516883
544,1436968192663,50.1607060586879
545,1436968193385,63.4795052990636
546,1436968194002,48.1438029493276
547,1436968194671,68.0574005653573
548,1436968195402,59.6017556120782
549,1436968196159,48.0324562588494
550,1436968196864,64.1418406528967
551,1436968197568,55.8593577730007
552,1436968198377,47.6577478939404
553,1436968199057,58.9772507942447
554,1436968199810,66.4401426786529
555,1436968200529,51.1533590697929
556,1436968201271,56.7026905827435
557,1436968202004,66.3768607132229
558,1436968202740,49.377206761729
559,1436968203464,60.6963435501698
560,1436968204194,53.7334184706638
561,1436968204888,51.1300170699594
562,1436968205539,61.2437182649505
563,1436968206242,56.5645406251724
564,1436968206986,55.8815352728854
565,1436968207702,69.5959119900428
566,1436968208454,64.9601021522247
567,1436968209212,59.0303190877294
568,1436968209929,61.1907116192472
569,1436968210599,56.3911891557129
570,1436968211268,47.8838598914245
571,1436968211995,60.0541947573905
572,1436968212723,58.3417136838231
573,1436968213442,47.3170239010882
574,1436968214189,63.8742206779391
575,1436968214899,55.7399507309196
