id,attr_time,attr_light
1,1436988059020,0.0
2,1436988059039,0.0
3,1436988059059,0.0
4,1436988059079,0.0
5,1436988059098,0.0
6,1436988059120,0.0
7,1436988059140,0.0
8,1436988059159,0.0
9,1436988059182,0.0
10,1436988059200,0.0
11,1436988059225,0.0
12,1436988059277,0.0
13,1436988059278,0.0
14,1436988059280,0.0
15,1436988059299,0.0
16,1436988059319,0.0
17,1436988059339,0.0
18,1436988059362,0.0
19,1436988059380,0.0
20,1436988059400,0.0
21,1436988059420,0.0
22,1436988059441,0.0
23,1436988059462,0.0
24,1436988059482,0.0
25,1436988059500,0.0
26,1436988059523,0.0
27,1436988059542,0.0
28,1436988059562,0.0
29,1436988059582,0.0
30,1436988059603,0.0
31,1436988059624,0.0
32,1436988059646,0.0
33,1436988059666,0.0
34,1436988059681,0.0
35,1436988059704,0.0
36,1436988059755,0.0
37,1436988059756,0.0
38,1436988059780,0.0
39,1436988059781,0.0
40,1436988059802,0.0
41,1436988059820,0.0
42,1436988059847,0.0
43,1436988059860,0.0
44,1436988059880,0.0
45,1436988059902,0.0
46,1436988059920,0.0
47,1436988059942,0.0
48,1436988059960,0.0
49,1436988059981,0.0
50,1436988060004,0.0
51,1436988060020,0.0
52,1436988060048,0.0
53,1436988060060,0.0
54,1436988060082,0.0
55,1436988060102,0.0
56,1436988060120,0.0
57,1436988060140,0.0
58,1436988060160,0.0
59,1436988060180,0.0
60,1436988060202,0.0
61,1436988060222,0.0
62,1436988060243,0.0
63,1436988060261,0.0
64,1436988060318,0.0
65,1436988060320,0.0
66,1436988060321,0.0
67,1436988060342,0.0
68,1436988060360,0.0
69,1436988060386,0.0
70,1436988060404,0.0
71,1436988060421,0.0
72,1436988060442,0.0
73,1436988060462,0.0
74,1436988060480,0.0
75,1436988060502,0.0
76,1436988060521,0.0
77,1436988060542,0.0
78,1436988060562,0.0
79,1436988060583,0.0
80,1436988060600,0.0
81,1436988060620,0.0
82,1436988060640,0.0
83,1436988060663,0.0
84,1436988060686,0.0
85,1436988060707,0.0
86,1436988060723,0.0
87,1436988060740,0.0
88,1436988060761,0.0
89,1436988060781,0.0
90,1436988060802,0.0
91,1436988060824,0.0
92,1436988060874,0.0
93,1436988060875,0.0
94,1436988060893,0.0
95,1436988060902,0.0
96,1436988060921,0.0
97,1436988060941,0.0
98,1436988060961,0.0
99,1436988060981,0.0
100,1436988061003,0.0
101,1436988061029,0.0
102,1436988061043,0.0
103,1436988061076,0.0
104,1436988061084,0.0
105,1436988061102,0.0
106,1436988061121,0.0
107,1436988061143,0.0
108,1436988061161,0.0
109,1436988061182,0.0
110,1436988061202,0.0
111,1436988061222,0.0
112,1436988061242,0.0
113,1436988061261,0.0
114,1436988061281,0.0
115,1436988061302,0.0
116,1436988061322,0.0
117,1436988061343,0.0
118,1436988061362,0.0
119,1436988061384,0.0
120,1436988061434,0.0
121,1436988061435,0.0
122,1436988061449,0.0
123,1436988061461,0.0
124,1436988061482,0.0
125,1436988061503,0.0
126,1436988061522,0.0
127,1436988061544,0.0
128,1436988061562,0.0
129,1436988061583,0.0
130,1436988061602,0.0
131,1436988061623,0.0
132,1436988061643,0.0
133,1436988061663,0.0
134,1436988061684,0.0
135,1436988061704,0.0
136,1436988061724,0.0
137,1436988061744,0.0
138,1436988061764,0.0
139,1436988061785,0.0
140,1436988061805,0.0
141,1436988061824,0.0
142,1436988061844,0.0
143,1436988061864,0.0
144,1436988061884,0.0
145,1436988061904,0.0
146,1436988061922,0.0
147,1436988061988,0.0
148,1436988061989,0.0
149,1436988061990,0.0
150,1436988062047,0.0
151,1436988062048,0.0
152,1436988062049,0.0
153,1436988062064,0.0
154,1436988062082,0.0
155,1436988062102,0.0
156,1436988062122,0.0
157,1436988062144,0.0
158,1436988062167,0.0
159,1436988062183,0.0
160,1436988062202,0.0
161,1436988062223,0.0
162,1436988062243,0.0
163,1436988062262,0.0
164,1436988062287,0.0
165,1436988062307,0.0
166,1436988062325,0.0
167,1436988062346,0.0
168,1436988062365,0.0
169,1436988062385,0.0
170,1436988062403,0.0
171,1436988062423,0.0
172,1436988062445,0.0
173,1436988062466,0.0
174,1436988062486,0.0
175,1436988062504,0.0
176,1436988062592,0.0
177,1436988062593,0.0
178,1436988062594,0.0
179,1436988062595,0.0
180,1436988062606,0.0
181,1436988062624,0.0
182,1436988062643,0.0
183,1436988062664,0.0
184,1436988062682,0.0
185,1436988062703,0.0
186,1436988062724,0.0
187,1436988062743,0.0
188,1436988062764,0.0
189,1436988062787,0.0
190,1436988062803,0.0
191,1436988062824,0.0
192,1436988062845,0.0
193,1436988062864,0.0
194,1436988062884,0.0
195,1436988062908,0.0
196,1436988062927,0.0
197,1436988062948,0.0
198,1436988062968,0.0
199,1436988062987,0.0
200,1436988063003,0.0
201,1436988063026,0.0
202,1436988063049,0.0
203,1436988063160,0.0
204,1436988063161,0.0
205,1436988063162,0.0
206,1436988063164,0.0
207,1436988063165,0.0
208,1436988063166,0.0
209,1436988063258,0.0
210,1436988063259,0.0
211,1436988063260,0.0
212,1436988063261,0.0
213,1436988063265,0.0
214,1436988063286,0.0
215,1436988063306,0.0
216,1436988063323,0.0
217,1436988063343,0.0
218,1436988063363,0.0
219,1436988063386,0.0
220,1436988063406,0.0
221,1436988063424,0.0
222,1436988063446,0.0
223,1436988063464,0.0
224,1436988063485,0.0
225,1436988063506,0.0
226,1436988063526,0.0
227,1436988063548,0.0
228,1436988063566,0.0
229,1436988063586,0.0
230,1436988063605,0.0
231,1436988063624,0.0
232,1436988063646,0.0
233,1436988063671,0.0
234,1436988063686,0.0
235,1436988063707,0.0
236,1436988063725,0.0
237,1436988063773,0.0
238,1436988063774,0.0
239,1436988063800,0.0
240,1436988063805,0.0
241,1436988063824,0.0
242,1436988063844,0.0
243,1436988063864,0.0
244,1436988063883,0.0
245,1436988063906,0.0
246,1436988063941,0.0
247,1436988063944,0.0
248,1436988063968,0.0
249,1436988063984,0.0
250,1436988064007,0.0
251,1436988064024,0.0
252,1436988064044,0.0
253,1436988064064,0.0
254,1436988064084,0.0
255,1436988064103,0.0
256,1436988064126,0.0
257,1436988064145,0.0
258,1436988064163,0.0
259,1436988064185,0.0
260,1436988064203,0.0
261,1436988064225,0.0
262,1436988064244,0.0
263,1436988064322,0.0
264,1436988064323,0.0
265,1436988064329,0.0
266,1436988064330,0.0
267,1436988064347,0.0
268,1436988064363,0.0
269,1436988064385,0.0
270,1436988064403,0.0
271,1436988064424,0.0
272,1436988064444,0.0
273,1436988064464,0.0
274,1436988064486,0.0
275,1436988064506,0.0
276,1436988064524,0.0
277,1436988064545,0.0
278,1436988064566,0.0
279,1436988064586,0.0
280,1436988064608,0.0
281,1436988064628,0.0
282,1436988064646,0.0
283,1436988064666,0.0
284,1436988064685,0.0
285,1436988064706,0.0
286,1436988064790,0.0
287,1436988064791,0.0
288,1436988064792,0.0
289,1436988064793,0.0
290,1436988064816,0.0
291,1436988064824,0.0
292,1436988064844,0.0
293,1436988064865,0.0
294,1436988064885,0.0
295,1436988064905,0.0
296,1436988064929,0.0
297,1436988064947,0.0
298,1436988064966,0.0
299,1436988064986,0.0
300,1436988065012,0.0
301,1436988065025,0.0
302,1436988065050,0.0
303,1436988065068,0.0
304,1436988065090,0.0
305,1436988065108,0.0
306,1436988065128,0.0
307,1436988065147,0.0
308,1436988065166,0.0
309,1436988065185,0.0
310,1436988065205,0.0
311,1436988065227,0.0
312,1436988065248,0.0
313,1436988065267,0.0
314,1436988065287,0.0
315,1436988065382,0.0
316,1436988065383,0.0
317,1436988065385,0.0
318,1436988065386,0.0
319,1436988065387,0.0
320,1436988065405,0.0
321,1436988065425,0.0
322,1436988065445,0.0
323,1436988065465,0.0
324,1436988065490,0.0
325,1436988065507,0.0
326,1436988065525,0.0
327,1436988065545,0.0
328,1436988065569,0.0
329,1436988065590,0.0
330,1436988065607,0.0
331,1436988065627,0.0
332,1436988065648,0.0
333,1436988065668,0.0
334,1436988065687,0.0
335,1436988065707,0.0
336,1436988065726,0.0
337,1436988065746,0.0
338,1436988065766,0.0
339,1436988065787,0.0
340,1436988065807,0.0
341,1436988065827,0.0
342,1436988065846,0.0
343,1436988065916,0.0
344,1436988065917,0.0
345,1436988065918,0.0
346,1436988065939,0.0
347,1436988065954,0.0
348,1436988065967,0.0
349,1436988065986,0.0
350,1436988066008,0.0
351,1436988066026,0.0
352,1436988066050,0.0
353,1436988066067,0.0
354,1436988066087,0.0
355,1436988066106,0.0
356,1436988066127,0.0
357,1436988066146,0.0
358,1436988066167,0.0
359,1436988066192,0.0
360,1436988066207,0.0
361,1436988066227,0.0
362,1436988066246,0.0
363,1436988066266,0.0
364,1436988066286,0.0
365,1436988066306,0.0
366,1436988066326,0.0
367,1436988066347,0.0
368,1436988066367,0.0
369,1436988066386,0.0
370,1436988066419,0.0
371,1436988066427,0.0
372,1436988066452,0.0
373,1436988066515,0.0
374,1436988066516,0.0
375,1436988066517,0.0
376,1436988066528,0.0
377,1436988066547,0.0
378,1436988066566,0.0
379,1436988066587,0.0
380,1436988066608,0.0
381,1436988066626,0.0
382,1436988066646,0.0
383,1436988066666,0.0
384,1436988066689,0.0
385,1436988066709,0.0
386,1436988066727,0.0
387,1436988066747,0.0
388,1436988066768,0.0
389,1436988066787,0.0
390,1436988066808,0.0
391,1436988066827,0.0
392,1436988066847,0.0
393,1436988066867,0.0
394,1436988066888,0.0
395,1436988066908,0.0
396,1436988066931,0.0
397,1436988066950,0.0
398,1436988066968,0.0
399,1436988066988,0.0
400,1436988067102,0.0
401,1436988067103,0.0
402,1436988067105,0.0
403,1436988067107,0.0
404,1436988067108,0.0
405,1436988067109,0.0
406,1436988067128,0.0
407,1436988067147,0.0
408,1436988067167,0.0
409,1436988067187,0.0
410,1436988067207,0.0
411,1436988067227,0.0
412,1436988067248,0.0
413,1436988067267,0.0
414,1436988067289,0.0
415,1436988067308,0.0
416,1436988067328,0.0
417,1436988067349,0.0
418,1436988067370,0.0
419,1436988067388,0.0
420,1436988067408,0.0
421,1436988067428,0.0
422,1436988067447,0.0
423,1436988067469,0.0
424,1436988067488,0.0
425,1436988067509,0.0
426,1436988067528,0.0
427,1436988067547,0.0
428,1436988067567,0.0
429,1436988067589,0.0
430,1436988067652,0.0
431,1436988067655,0.0
432,1436988067656,0.0
433,1436988067683,0.0
434,1436988067687,0.0
435,1436988067707,0.0
436,1436988067727,0.0
437,1436988067747,0.0
438,1436988067767,0.0
439,1436988067787,0.0
440,1436988067809,0.0
441,1436988067827,0.0
442,1436988067850,0.0
443,1436988067871,0.0
444,1436988067891,0.0
445,1436988067909,0.0
446,1436988067927,0.0
447,1436988067948,0.0
448,1436988067970,0.0
449,1436988067994,0.0
450,1436988068012,0.0
451,1436988068036,0.0
452,1436988068055,0.0
453,1436988068069,0.0
454,1436988068090,0.0
455,1436988068110,0.0
456,1436988068129,0.0
457,1436988068156,0.0
458,1436988068332,0.0
459,1436988068333,0.0
460,1436988068334,0.0
461,1436988068335,0.0
462,1436988068336,0.0
463,1436988068337,0.0
464,1436988068338,0.0
465,1436988068339,0.0
466,1436988068340,0.0
467,1436988068382,0.0
468,1436988068383,0.0
469,1436988068406,0.0
470,1436988068411,0.0
471,1436988068428,0.0
472,1436988068455,0.0
473,1436988068468,0.0
474,1436988068488,0.0
475,1436988068535,0.0
476,1436988068536,0.0
477,1436988068557,0.0
478,1436988068568,0.0
479,1436988068588,0.0
480,1436988068608,0.0
481,1436988068627,0.0
482,1436988068656,0.0
483,1436988068667,0.0
484,1436988068689,0.0
485,1436988068708,0.0
486,1436988068729,0.0
487,1436988068749,0.0
488,1436988068767,0.0
489,1436988068788,0.0
490,1436988068808,0.0
491,1436988068829,0.0
492,1436988068851,0.0
493,1436988068882,0.0
494,1436988068888,0.0
495,1436988068907,0.0
496,1436988068927,0.0
497,1436988068947,0.0
498,1436988068973,0.0
499,1436988068989,0.0
500,1436988069008,0.0
501,1436988069027,0.0
502,1436988069050,0.0
503,1436988069071,0.0
504,1436988069088,0.0
505,1436988069112,0.0
506,1436988069128,0.0
507,1436988069148,0.0
508,1436988069172,0.0
509,1436988069215,0.0
510,1436988069216,0.0
511,1436988069235,0.0
512,1436988069249,0.0
513,1436988069269,0.0
514,1436988069289,0.0
515,1436988069326,0.0
516,1436988069328,0.0
517,1436988069348,0.0
518,1436988069369,0.0
519,1436988069388,0.0
520,1436988069408,0.0
521,1436988069428,0.0
522,1436988069449,0.0
523,1436988069469,0.0
524,1436988069488,0.0
525,1436988069508,0.0
526,1436988069528,0.0
527,1436988069548,0.0
528,1436988069569,0.0
529,1436988069589,0.0
530,1436988069608,0.0
531,1436988069628,0.0
532,1436988069648,0.0
533,1436988069668,0.0
534,1436988069688,0.0
535,1436988069708,0.0
536,1436988069729,0.0
537,1436988069749,0.0
538,1436988069768,0.0
539,1436988069788,0.0
540,1436988069808,0.0
541,1436988069828,0.0
542,1436988069848,0.0
543,1436988069868,0.0
544,1436988069888,0.0
545,1436988069908,0.0
546,1436988069928,0.0
547,1436988069948,0.0
548,1436988069968,0.0
549,1436988069988,0.0
550,1436988070012,0.0
551,1436988070032,0.0
552,1436988070050,0.0
553,1436988070070,0.0
554,1436988070091,0.0
555,1436988070116,0.0
556,1436988070153,0.0
557,1436988070156,0.0
558,1436988070173,0.0
559,1436988070190,0.0
560,1436988070210,0.0
561,1436988070244,0.0
562,1436988070250,0.0
563,1436988070271,0.0
564,1436988070291,0.0
565,1436988070310,0.0
566,1436988070334,0.0
567,1436988070355,0.0
568,1436988070369,0.0
569,1436988070390,0.0
570,1436988070410,0.0
571,1436988070432,0.0
572,1436988070453,0.0
573,1436988070473,0.0
574,1436988070492,0.0
575,1436988070510,0.0
576,1436988070530,0.0
577,1436988070550,0.0
578,1436988070571,0.0
579,1436988070642,0.0
580,1436988070643,0.0
581,1436988070644,0.0
582,1436988070650,0.0
583,1436988070676,0.0
584,1436988070690,0.0
585,1436988070712,0.0
586,1436988070732,0.0
587,1436988070750,0.0
588,1436988070771,0.0
589,1436988070796,0.0
590,1436988070812,0.0
591,1436988070833,0.0
592,1436988070852,0.0
593,1436988070872,0.0
594,1436988070892,0.0
595,1436988070912,0.0
596,1436988070932,0.0
597,1436988070951,0.0
598,1436988070974,0.0
599,1436988070990,0.0
600,1436988071011,0.0
601,1436988071032,0.0
602,1436988071052,0.0
603,1436988071073,0.0
604,1436988071095,0.0
605,1436988071115,0.0
606,1436988071178,0.0
607,1436988071180,0.0
608,1436988071181,0.0
609,1436988071196,0.0
610,1436988071218,0.0
611,1436988071230,0.0
612,1436988071251,0.0
613,1436988071271,0.0
614,1436988071294,0.0
615,1436988071312,0.0
616,1436988071331,0.0
617,1436988071352,0.0
618,1436988071378,0.0
619,1436988071393,0.0
620,1436988071412,0.0
621,1436988071438,0.0
622,1436988071453,0.0
623,1436988071473,0.0
624,1436988071492,0.0
625,1436988071511,0.0
626,1436988071533,0.0
627,1436988071551,0.0
628,1436988071572,0.0
629,1436988071592,0.0
630,1436988071613,0.0
631,1436988071631,0.0
632,1436988071652,0.0
633,1436988071672,0.0
634,1436988071699,0.0
635,1436988071759,0.0
636,1436988071760,0.0
637,1436988071761,0.0
638,1436988071786,0.0
639,1436988071792,0.0
640,1436988071813,0.0
641,1436988071832,0.0
642,1436988071851,0.0
643,1436988071873,0.0
644,1436988071892,0.0
645,1436988071913,0.0
646,1436988071933,0.0
647,1436988071956,0.0
648,1436988071973,0.0
649,1436988072001,0.0
650,1436988072013,0.0
651,1436988072045,0.0
652,1436988072052,0.0
653,1436988072072,0.0
654,1436988072094,0.0
655,1436988072111,0.0
656,1436988072132,0.0
657,1436988072152,0.0
658,1436988072175,0.0
659,1436988072194,0.0
660,1436988072214,0.0
661,1436988072232,0.0
662,1436988072258,0.0
663,1436988072336,0.0
664,1436988072337,0.0
665,1436988072338,0.0
666,1436988072339,0.0
667,1436988072354,0.0
668,1436988072372,0.0
669,1436988072393,0.0
670,1436988072414,0.0
671,1436988072432,0.0
672,1436988072452,0.0
673,1436988072474,0.0
674,1436988072493,0.0
675,1436988072513,0.0
676,1436988072533,0.0
677,1436988072566,0.0
678,1436988072572,0.0
679,1436988072607,0.0
680,1436988072612,0.0
681,1436988072632,0.0
682,1436988072652,0.0
683,1436988072672,0.0
684,1436988072693,0.0
685,1436988072721,0.0
686,1436988072733,0.0
687,1436988072752,0.0
688,1436988072772,0.0
689,1436988072793,0.0
690,1436988072812,0.0
691,1436988072832,0.0
692,1436988072853,0.0
693,1436988072872,0.0
694,1436988072893,0.0
695,1436988072916,0.0
696,1436988072933,0.0
697,1436988072953,0.0
698,1436988072974,0.0
699,1436988072993,0.0
700,1436988073012,0.0
701,1436988073032,0.0
702,1436988073059,0.0
703,1436988073072,0.0
704,1436988073112,0.0
705,1436988073113,0.0
706,1436988073132,0.0
707,1436988073152,0.0
708,1436988073172,0.0
709,1436988073194,0.0
710,1436988073215,0.0
711,1436988073234,0.0
712,1436988073252,0.0
713,1436988073273,0.0
714,1436988073295,0.0
715,1436988073316,0.0
716,1436988073336,0.0
717,1436988073356,0.0
718,1436988073374,0.0
719,1436988073393,0.0
720,1436988073414,0.0
721,1436988073435,0.0
722,1436988073454,0.0
723,1436988073472,0.0
724,1436988073492,0.0
725,1436988073514,0.0
726,1436988073533,0.0
727,1436988073553,0.0
728,1436988073573,0.0
729,1436988073593,0.0
730,1436988073614,0.0
731,1436988073633,0.0
732,1436988073654,0.0
733,1436988073674,0.0
734,1436988073695,0.0
735,1436988073714,0.0
736,1436988073735,0.0
737,1436988073755,0.0
738,1436988073776,0.0
739,1436988073794,0.0
740,1436988073814,0.0
741,1436988073834,0.0
742,1436988073857,0.0
743,1436988073910,0.0
744,1436988073911,0.0
745,1436988073916,0.0
746,1436988073933,0.0
747,1436988073954,0.0
748,1436988073973,0.0
749,1436988073996,0.0
750,1436988074013,0.0
751,1436988074033,0.0
752,1436988074056,0.0
753,1436988074074,0.0
754,1436988074096,0.0
755,1436988074116,0.0
756,1436988074136,0.0
757,1436988074156,0.0
758,1436988074175,0.0
759,1436988074194,0.0
760,1436988074214,0.0
761,1436988074234,0.0
762,1436988074255,0.0
763,1436988074309,0.0
764,1436988074310,0.0
765,1436988074315,0.0
766,1436988074337,0.0
767,1436988074395,0.0
768,1436988074396,0.0
769,1436988074397,0.0
770,1436988074423,0.0
771,1436988074433,0.0
772,1436988074454,0.0
773,1436988074474,0.0
774,1436988074494,0.0
775,1436988074515,0.0
776,1436988074534,0.0
777,1436988074555,0.0
778,1436988074575,0.0
779,1436988074596,0.0
780,1436988074616,0.0
781,1436988074640,0.0
782,1436988074656,0.0
783,1436988074675,0.0
784,1436988074694,0.0
785,1436988074714,0.0
786,1436988074734,0.0
787,1436988074754,0.0
788,1436988074774,0.0
789,1436988074794,0.0
790,1436988074814,0.0
791,1436988074834,0.0
792,1436988074854,0.0
793,1436988074874,0.0
794,1436988074932,0.0
795,1436988074934,0.0
796,1436988074935,0.0
797,1436988074960,0.0
798,1436988074981,0.0
799,1436988074996,0.0
800,1436988075014,0.0
801,1436988075036,0.0
802,1436988075055,0.0
803,1436988075075,0.0
804,1436988075103,0.0
805,1436988075129,0.0
806,1436988075149,0.0
807,1436988075154,0.0
808,1436988075178,0.0
809,1436988075194,0.0
810,1436988075243,0.0
811,1436988075244,0.0
812,1436988075255,0.0
813,1436988075274,0.0
814,1436988075294,0.0
815,1436988075314,0.0
816,1436988075334,0.0
817,1436988075354,0.0
818,1436988075374,0.0
819,1436988075394,0.0
820,1436988075414,0.0
821,1436988075434,0.0
822,1436988075454,0.0
823,1436988075474,0.0
824,1436988075494,0.0
825,1436988075514,0.0
826,1436988075534,0.0
827,1436988075554,0.0
828,1436988075574,0.0
829,1436988075595,0.0
830,1436988075616,0.0
831,1436988075636,0.0
832,1436988075655,0.0
833,1436988075676,0.0
834,1436988075695,0.0
835,1436988075716,0.0
836,1436988075736,0.0
837,1436988075756,0.0
838,1436988075776,0.0
839,1436988075801,0.0
840,1436988075857,0.0
841,1436988075858,0.0
842,1436988075859,0.0
843,1436988075876,0.0
844,1436988075895,0.0
845,1436988075915,0.0
846,1436988075937,0.0
847,1436988075957,0.0
848,1436988075976,0.0
849,1436988075996,0.0
850,1436988076015,0.0
851,1436988076035,0.0
852,1436988076056,0.0
853,1436988076076,0.0
854,1436988076095,0.0
855,1436988076116,0.0
856,1436988076138,0.0
857,1436988076159,0.0
858,1436988076179,0.0
859,1436988076196,0.0
860,1436988076217,0.0
861,1436988076236,0.0
862,1436988076257,0.0
863,1436988076284,0.0
864,1436988076362,0.0
865,1436988076363,0.0
866,1436988076364,0.0
867,1436988076365,0.0
868,1436988076375,0.0
869,1436988076397,0.0
870,1436988076416,0.0
871,1436988076437,0.0
872,1436988076456,0.0
873,1436988076477,0.0
874,1436988076496,0.0
875,1436988076516,0.0
876,1436988076535,0.0
877,1436988076556,0.0
878,1436988076577,0.0
879,1436988076601,0.0
880,1436988076616,0.0
881,1436988076636,0.0
882,1436988076656,0.0
883,1436988076676,0.0
884,1436988076696,0.0
885,1436988076716,0.0
886,1436988076736,0.0
887,1436988076757,0.0
888,1436988076777,0.0
889,1436988076797,0.0
890,1436988076817,0.0
891,1436988076836,0.0
892,1436988076862,0.0
893,1436988076927,0.0
894,1436988076928,0.0
895,1436988076929,0.0
896,1436988076955,0.0
897,1436988076956,0.0
898,1436988076977,0.0
899,1436988076997,0.0
900,1436988077016,0.0
901,1436988077038,0.0
902,1436988077056,0.0
903,1436988077076,0.0
904,1436988077096,0.0
905,1436988077119,0.0
906,1436988077140,0.0
907,1436988077162,0.0
908,1436988077176,0.0
909,1436988077196,0.0
910,1436988077216,0.0
911,1436988077238,0.0
912,1436988077258,0.0
