id,attr_time,attr_light
1,1436988059022,0.0
2,1436988059042,0.0
3,1436988059062,0.0
4,1436988059082,0.0
5,1436988059102,0.0
6,1436988059122,0.0
7,1436988059142,0.0
8,1436988059162,0.0
9,1436988059182,0.0
10,1436988059202,0.0
11,1436988059223,0.0
12,1436988059246,0.0
13,1436988059266,0.0
14,1436988059286,0.0
15,1436988059305,0.0
16,1436988059326,0.0
17,1436988059344,0.0
18,1436988059454,0.0
19,1436988059455,0.0
20,1436988059456,0.0
21,1436988059457,0.0
22,1436988059458,0.0
23,1436988059480,0.0
24,1436988059482,0.0
25,1436988059502,0.0
26,1436988059522,0.0
27,1436988059542,0.0
28,1436988059562,0.0
29,1436988059582,0.0
30,1436988059602,0.0
31,1436988059624,0.0
32,1436988059642,0.0
33,1436988059662,0.0
34,1436988059682,0.0
35,1436988059702,0.0
36,1436988059722,0.0
37,1436988059742,0.0
38,1436988059762,0.0
39,1436988059783,0.0
40,1436988059803,0.0
41,1436988059823,0.0
42,1436988059843,0.0
43,1436988059863,0.0
44,1436988059883,0.0
45,1436988059903,0.0
46,1436988059923,0.0
47,1436988059942,0.0
48,1436988059962,0.0
49,1436988059982,0.0
50,1436988060003,0.0
51,1436988060023,0.0
52,1436988060043,0.0
53,1436988060063,0.0
54,1436988060083,0.0
55,1436988060103,0.0
56,1436988060123,0.0
57,1436988060143,0.0
58,1436988060163,0.0
59,1436988060186,0.0
60,1436988060203,0.0
61,1436988060223,0.0
62,1436988060243,0.0
63,1436988060264,0.0
64,1436988060283,0.0
65,1436988060303,0.0
66,1436988060325,0.0
67,1436988060343,0.0
68,1436988060363,0.0
69,1436988060383,0.0
70,1436988060403,0.0
71,1436988060423,0.0
72,1436988060443,0.0
73,1436988060463,0.0
74,1436988060483,0.0
75,1436988060504,0.0
76,1436988060523,0.0
77,1436988060543,0.0
78,1436988060563,0.0
79,1436988060583,0.0
80,1436988060603,0.0
81,1436988060623,0.0
82,1436988060643,0.0
83,1436988060663,0.0
84,1436988060683,0.0
85,1436988060703,0.0
86,1436988060723,0.0
87,1436988060743,0.0
88,1436988060763,0.0
89,1436988060783,0.0
90,1436988060803,0.0
91,1436988060823,0.0
92,1436988060843,0.0
93,1436988060863,0.0
94,1436988060883,0.0
95,1436988060903,0.0
96,1436988060923,0.0
97,1436988060943,0.0
98,1436988060963,0.0
99,1436988060983,0.0
100,1436988061003,0.0
101,1436988061023,0.0
102,1436988061043,0.0
103,1436988061063,0.0
104,1436988061089,0.0
105,1436988061109,0.0
106,1436988061126,0.0
107,1436988061144,0.0
108,1436988061166,0.0
109,1436988061243,0.0
110,1436988061254,0.0
111,1436988061255,0.0
112,1436988061256,0.0
113,1436988061264,0.0
114,1436988061284,0.0
115,1436988061304,0.0
116,1436988061324,0.0
117,1436988061344,0.0
118,1436988061364,0.0
119,1436988061385,0.0
120,1436988061404,0.0
121,1436988061424,0.0
122,1436988061445,0.0
123,1436988061465,0.0
124,1436988061484,0.0
125,1436988061504,0.0
126,1436988061524,0.0
127,1436988061544,0.0
128,1436988061565,0.0
129,1436988061584,0.0
130,1436988061604,0.0
131,1436988061624,0.0
132,1436988061644,0.0
133,1436988061665,0.0
134,1436988061702,0.0
135,1436988061768,0.0
136,1436988061769,0.0
137,1436988061770,0.0
138,1436988061775,0.0
139,1436988061794,0.0
140,1436988061804,0.0
141,1436988061824,0.0
142,1436988061844,0.0
143,1436988061865,0.0
144,1436988061884,0.0
145,1436988061904,0.0
146,1436988061925,0.0
147,1436988061945,0.0
148,1436988061965,0.0
149,1436988061985,0.0
150,1436988062005,0.0
151,1436988062026,0.0
152,1436988062046,0.0
153,1436988062071,1.0
154,1436988062086,1.0
155,1436988062110,1.0
156,1436988062127,1.0
157,1436988062147,1.0
158,1436988062169,1.0
159,1436988062263,1.0
160,1436988062264,1.0
161,1436988062265,1.0
162,1436988062266,1.0
163,1436988062276,1.0
164,1436988062285,1.0
165,1436988062305,1.0
166,1436988062325,1.0
167,1436988062360,1.0
168,1436988062365,1.0
169,1436988062385,1.0
170,1436988062405,0.0
171,1436988062425,0.0
172,1436988062446,0.0
173,1436988062465,0.0
174,1436988062488,0.0
175,1436988062506,0.0
176,1436988062525,0.0
177,1436988062545,0.0
178,1436988062565,0.0
179,1436988062585,0.0
180,1436988062605,0.0
181,1436988062625,0.0
182,1436988062647,0.0
183,1436988062665,0.0
184,1436988062685,0.0
185,1436988062705,0.0
186,1436988062725,0.0
187,1436988062745,0.0
188,1436988062803,0.0
189,1436988062804,0.0
190,1436988062815,0.0
191,1436988062828,0.0
192,1436988062986,0.0
193,1436988062987,0.0
194,1436988062988,0.0
195,1436988062989,0.0
196,1436988062990,0.0
197,1436988062991,0.0
198,1436988062992,0.0
199,1436988062993,0.0
200,1436988063005,0.0
201,1436988063025,0.0
202,1436988063045,0.0
203,1436988063065,0.0
204,1436988063085,0.0
205,1436988063105,0.0
206,1436988063125,0.0
207,1436988063145,0.0
208,1436988063166,0.0
209,1436988063186,0.0
210,1436988063206,0.0
211,1436988063229,0.0
212,1436988063248,0.0
213,1436988063266,0.0
214,1436988063287,0.0
215,1436988063352,0.0
216,1436988063353,0.0
217,1436988063354,0.0
218,1436988063366,0.0
219,1436988063386,0.0
220,1436988063406,0.0
221,1436988063426,0.0
222,1436988063446,0.0
223,1436988063466,0.0
224,1436988063495,0.0
225,1436988063514,0.0
226,1436988063526,0.0
227,1436988063546,0.0
228,1436988063566,0.0
229,1436988063586,0.0
230,1436988063607,0.0
231,1436988063627,0.0
232,1436988063646,0.0
233,1436988063666,0.0
234,1436988063686,0.0
235,1436988063706,0.0
236,1436988063726,0.0
237,1436988063746,0.0
238,1436988063766,0.0
239,1436988063786,0.0
240,1436988063806,0.0
241,1436988063826,0.0
242,1436988063846,0.0
243,1436988063866,0.0
244,1436988063886,0.0
245,1436988063906,0.0
246,1436988063971,0.0
247,1436988063972,0.0
248,1436988063973,0.0
249,1436988064049,0.0
250,1436988064050,0.0
251,1436988064051,0.0
252,1436988064052,0.0
253,1436988064067,0.0
254,1436988064088,0.0
255,1436988064108,0.0
256,1436988064127,0.0
257,1436988064152,0.0
258,1436988064170,0.0
259,1436988064189,0.0
260,1436988064209,0.0
261,1436988064232,0.0
262,1436988064252,0.0
263,1436988064271,0.0
264,1436988064287,0.0
265,1436988065606,0.0
266,1436988065607,0.0
267,1436988065608,0.0
268,1436988065609,0.0
269,1436988065610,0.0
270,1436988065611,0.0
271,1436988065612,0.0
272,1436988065613,0.0
273,1436988065614,0.0
274,1436988065615,0.0
275,1436988065616,0.0
276,1436988065617,0.0
277,1436988065618,0.0
278,1436988065619,0.0
279,1436988065620,0.0
280,1436988065621,0.0
281,1436988065622,0.0
282,1436988065623,0.0
283,1436988065624,0.0
284,1436988065625,0.0
285,1436988065626,0.0
286,1436988065627,0.0
287,1436988065628,0.0
288,1436988065629,0.0
289,1436988065630,0.0
290,1436988065631,0.0
291,1436988065632,0.0
292,1436988065633,0.0
293,1436988065634,0.0
294,1436988065635,0.0
295,1436988065636,0.0
296,1436988065637,0.0
297,1436988065638,0.0
298,1436988065639,0.0
299,1436988065640,0.0
300,1436988065641,0.0
301,1436988065642,0.0
302,1436988065643,0.0
303,1436988065644,0.0
304,1436988065645,0.0
305,1436988065646,0.0
306,1436988065647,0.0
307,1436988065648,0.0
308,1436988065649,0.0
309,1436988065650,0.0
310,1436988065651,0.0
311,1436988065652,0.0
312,1436988065653,0.0
313,1436988065654,0.0
314,1436988065655,0.0
315,1436988065656,0.0
316,1436988065657,0.0
317,1436988065658,0.0
318,1436988065659,0.0
319,1436988065660,0.0
320,1436988065661,0.0
321,1436988065662,1.0
322,1436988065663,1.0
323,1436988065664,1.0
324,1436988065665,1.0
325,1436988065666,1.0
326,1436988065667,1.0
327,1436988065668,1.0
328,1436988065669,1.0
329,1436988065670,1.0
330,1436988065671,1.0
331,1436988065672,1.0
332,1436988065673,1.0
333,1436988065674,1.0
334,1436988065688,1.0
335,1436988065708,1.0
336,1436988065728,1.0
337,1436988065748,1.0
338,1436988065768,1.0
339,1436988065788,1.0
340,1436988065808,1.0
341,1436988065828,1.0
342,1436988065848,1.0
343,1436988065868,1.0
344,1436988065888,1.0
345,1436988065908,1.0
346,1436988065928,1.0
347,1436988065948,1.0
348,1436988065968,1.0
349,1436988065988,1.0
350,1436988066014,1.0
351,1436988066028,1.0
352,1436988066048,1.0
353,1436988066068,1.0
354,1436988066088,1.0
355,1436988066108,1.0
356,1436988066128,1.0
357,1436988066148,1.0
358,1436988066168,1.0
359,1436988066188,1.0
360,1436988066208,1.0
361,1436988066228,1.0
362,1436988066248,1.0
363,1436988066269,1.0
364,1436988066291,1.0
365,1436988066311,1.0
366,1436988066330,1.0
367,1436988066350,1.0
368,1436988066370,1.0
369,1436988066497,1.0
370,1436988066507,1.0
371,1436988066508,1.0
372,1436988066509,1.0
373,1436988066510,1.0
374,1436988066511,1.0
375,1436988066512,1.0
376,1436988066532,1.0
377,1436988066550,0.0
378,1436988066570,0.0
379,1436988066590,0.0
380,1436988066610,0.0
381,1436988066630,0.0
382,1436988066650,0.0
383,1436988066670,0.0
384,1436988066690,0.0
385,1436988066710,0.0
386,1436988066730,0.0
387,1436988066750,0.0
388,1436988066770,0.0
389,1436988066790,0.0
390,1436988066810,0.0
391,1436988066830,0.0
392,1436988066850,0.0
393,1436988066870,0.0
394,1436988066890,0.0
395,1436988066910,0.0
396,1436988066930,0.0
397,1436988066952,0.0
398,1436988066969,0.0
399,1436988066989,0.0
400,1436988067009,0.0
401,1436988067029,0.0
402,1436988067049,0.0
403,1436988067069,0.0
404,1436988067089,0.0
405,1436988067109,0.0
406,1436988067129,0.0
407,1436988067149,0.0
408,1436988067172,0.0
409,1436988068405,0.0
410,1436988068406,0.0
411,1436988068407,0.0
412,1436988068408,0.0
413,1436988068409,0.0
414,1436988068410,0.0
415,1436988068411,1.0
416,1436988068412,1.0
417,1436988068413,1.0
418,1436988068414,1.0
419,1436988068415,1.0
420,1436988068416,1.0
421,1436988068417,1.0
422,1436988068418,1.0
423,1436988068419,1.0
424,1436988068420,2.0
425,1436988068421,2.0
426,1436988068422,2.0
427,1436988068423,2.0
428,1436988068424,2.0
429,1436988068425,2.0
430,1436988068426,2.0
431,1436988068427,2.0
432,1436988068428,2.0
433,1436988068429,2.0
434,1436988068430,2.0
435,1436988068431,1.0
436,1436988068432,1.0
437,1436988068433,1.0
438,1436988068434,1.0
439,1436988068435,1.0
440,1436988068436,1.0
441,1436988068437,1.0
442,1436988068438,1.0
443,1436988068439,1.0
444,1436988068440,1.0
445,1436988068441,1.0
446,1436988068442,1.0
447,1436988068443,1.0
448,1436988068444,1.0
449,1436988068445,1.0
450,1436988068446,1.0
451,1436988068447,1.0
452,1436988068448,1.0
453,1436988068449,1.0
454,1436988068450,1.0
455,1436988068451,1.0
456,1436988068452,1.0
457,1436988068453,1.0
458,1436988068454,1.0
459,1436988068455,1.0
460,1436988068456,1.0
461,1436988068457,1.0
462,1436988068458,1.0
463,1436988068459,0.0
464,1436988068460,0.0
465,1436988068461,0.0
466,1436988068462,0.0
467,1436988068463,0.0
468,1436988068464,0.0
469,1436988068465,0.0
470,1436988068466,0.0
471,1436988068467,0.0
472,1436988068468,0.0
473,1436988068471,0.0
474,1436988068491,0.0
475,1436988068511,0.0
476,1436988068531,0.0
477,1436988068551,0.0
478,1436988068571,0.0
479,1436988068591,0.0
480,1436988068611,0.0
481,1436988068631,0.0
482,1436988068651,0.0
483,1436988068671,0.0
484,1436988068691,0.0
485,1436988068712,0.0
486,1436988068738,0.0
487,1436988068751,0.0
488,1436988068771,0.0
489,1436988068791,0.0
490,1436988068811,0.0
491,1436988068831,0.0
492,1436988068853,0.0
493,1436988068882,0.0
494,1436988068891,0.0
495,1436988068911,0.0
496,1436988068932,0.0
497,1436988068951,0.0
498,1436988068971,0.0
499,1436988068991,0.0
500,1436988069011,0.0
501,1436988069031,0.0
502,1436988069051,0.0
503,1436988069071,0.0
504,1436988069091,0.0
505,1436988069111,0.0
506,1436988069131,0.0
507,1436988069151,0.0
508,1436988069171,0.0
509,1436988069191,0.0
510,1436988069211,0.0
511,1436988069231,0.0
512,1436988069251,0.0
513,1436988069271,0.0
514,1436988069291,0.0
515,1436988069311,0.0
516,1436988069331,0.0
517,1436988069351,0.0
518,1436988069371,0.0
519,1436988069392,0.0
520,1436988069412,0.0
521,1436988069432,0.0
522,1436988069452,0.0
523,1436988069480,0.0
524,1436988069492,0.0
525,1436988069512,0.0
526,1436988069532,0.0
527,1436988069552,0.0
528,1436988069572,0.0
529,1436988069592,0.0
530,1436988070906,0.0
531,1436988070907,0.0
532,1436988070908,0.0
533,1436988070909,0.0
534,1436988070910,0.0
535,1436988070911,0.0
536,1436988070912,0.0
537,1436988070913,0.0
538,1436988070914,0.0
539,1436988070915,0.0
540,1436988070916,0.0
541,1436988070917,0.0
542,1436988070918,0.0
543,1436988070919,0.0
544,1436988070920,0.0
545,1436988070921,0.0
546,1436988070922,0.0
547,1436988070923,0.0
548,1436988070924,0.0
549,1436988070925,0.0
550,1436988070926,0.0
551,1436988070927,0.0
552,1436988070928,0.0
553,1436988070929,0.0
554,1436988070930,0.0
555,1436988070931,0.0
556,1436988070932,0.0
557,1436988070933,0.0
558,1436988070934,0.0
559,1436988070935,0.0
560,1436988070936,0.0
561,1436988070937,0.0
562,1436988070938,0.0
563,1436988070939,0.0
564,1436988070940,0.0
565,1436988070941,0.0
566,1436988070942,0.0
567,1436988070943,0.0
568,1436988070944,0.0
569,1436988070945,0.0
570,1436988070946,0.0
571,1436988070947,0.0
572,1436988070948,0.0
573,1436988070949,0.0
574,1436988070950,0.0
575,1436988070951,0.0
576,1436988070952,0.0
577,1436988070953,0.0
578,1436988070954,0.0
579,1436988070955,0.0
580,1436988070956,0.0
581,1436988070957,0.0
582,1436988070958,0.0
583,1436988070959,0.0
584,1436988070960,0.0
585,1436988070961,0.0
586,1436988070962,0.0
587,1436988070963,0.0
588,1436988070964,0.0
589,1436988070965,0.0
590,1436988070966,0.0
591,1436988070967,0.0
592,1436988070968,0.0
593,1436988070969,0.0
594,1436988070970,0.0
595,1436988070971,0.0
596,1436988070972,0.0
597,1436988070973,0.0
598,1436988070974,0.0
599,1436988070993,0.0
600,1436988071013,0.0
601,1436988071033,0.0
602,1436988071053,0.0
603,1436988071073,0.0
604,1436988071093,0.0
605,1436988071113,0.0
606,1436988071133,0.0
607,1436988071153,0.0
608,1436988071173,0.0
609,1436988071193,0.0
610,1436988071213,0.0
611,1436988071233,0.0
612,1436988071253,0.0
613,1436988071273,0.0
614,1436988071293,0.0
615,1436988071313,0.0
616,1436988071333,0.0
617,1436988071353,0.0
618,1436988071373,0.0
619,1436988071394,0.0
620,1436988071414,0.0
621,1436988071434,0.0
622,1436988071454,0.0
623,1436988071474,0.0
624,1436988071494,0.0
625,1436988071514,0.0
626,1436988071544,0.0
627,1436988071561,0.0
628,1436988071581,0.0
629,1436988071599,0.0
630,1436988071615,0.0
631,1436988071637,0.0
632,1436988071655,0.0
633,1436988071676,0.0
634,1436988071695,0.0
635,1436988071905,0.0
636,1436988071906,0.0
637,1436988071907,0.0
638,1436988071908,0.0
639,1436988071909,0.0
640,1436988071910,0.0
641,1436988071911,0.0
642,1436988071912,0.0
643,1436988071913,0.0
644,1436988071914,0.0
645,1436988071924,0.0
646,1436988071935,0.0
647,1436988071955,0.0
648,1436988071976,0.0
649,1436988071995,0.0
650,1436988072015,0.0
651,1436988072035,0.0
652,1436988072055,0.0
653,1436988072076,0.0
654,1436988072095,0.0
655,1436988072115,0.0
656,1436988072136,0.0
657,1436988072155,0.0
658,1436988072176,0.0
659,1436988072195,0.0
660,1436988072215,0.0
661,1436988072235,0.0
662,1436988072255,0.0
663,1436988072276,0.0
664,1436988072295,0.0
665,1436988072315,0.0
666,1436988072335,0.0
667,1436988072381,0.0
668,1436988072382,0.0
669,1436988072398,0.0
670,1436988072416,0.0
671,1436988072436,0.0
672,1436988072455,0.0
673,1436988072475,0.0
674,1436988072495,0.0
675,1436988072515,0.0
676,1436988072535,0.0
677,1436988072555,0.0
678,1436988072575,0.0
679,1436988072595,0.0
680,1436988072616,0.0
681,1436988072635,0.0
682,1436988072655,0.0
683,1436988072675,0.0
684,1436988072695,0.0
685,1436988072715,0.0
686,1436988072735,0.0
687,1436988072765,0.0
688,1436988072775,0.0
689,1436988072795,0.0
690,1436988072815,0.0
691,1436988072835,0.0
692,1436988072855,0.0
693,1436988072875,0.0
694,1436988072895,0.0
695,1436988072915,0.0
696,1436988072935,0.0
697,1436988072955,0.0
698,1436988072975,0.0
699,1436988072995,0.0
700,1436988073015,0.0
701,1436988073035,0.0
702,1436988073058,0.0
703,1436988073079,0.0
704,1436988073095,0.0
705,1436988073117,0.0
706,1436988073135,0.0
707,1436988073155,0.0
708,1436988073175,0.0
709,1436988073195,0.0
710,1436988073215,0.0
711,1436988073235,0.0
712,1436988073255,0.0
713,1436988073276,0.0
714,1436988073295,0.0
715,1436988073315,0.0
716,1436988073335,0.0
717,1436988073355,0.0
718,1436988073375,0.0
719,1436988073395,0.0
720,1436988073415,0.0
721,1436988073436,0.0
722,1436988073456,0.0
723,1436988073476,0.0
724,1436988073496,0.0
725,1436988073516,0.0
726,1436988073536,0.0
727,1436988073556,0.0
728,1436988073576,0.0
729,1436988073596,0.0
730,1436988073616,0.0
731,1436988073636,0.0
732,1436988073656,0.0
733,1436988073678,0.0
734,1436988073696,0.0
735,1436988073716,0.0
736,1436988073736,0.0
737,1436988073756,0.0
738,1436988073776,0.0
739,1436988073796,0.0
740,1436988073816,0.0
741,1436988073837,0.0
742,1436988073873,0.0
743,1436988073876,0.0
744,1436988073896,0.0
745,1436988073917,0.0
746,1436988073994,0.0
747,1436988074015,0.0
748,1436988074054,0.0
749,1436988074074,0.0
750,1436988074107,0.0
751,1436988074108,0.0
752,1436988074109,0.0
753,1436988074122,0.0
754,1436988074123,0.0
755,1436988074124,0.0
756,1436988074150,0.0
757,1436988074174,0.0
758,1436988074178,0.0
759,1436988074197,0.0
760,1436988074217,0.0
761,1436988074237,0.0
762,1436988074257,0.0
763,1436988074277,0.0
764,1436988074297,0.0
765,1436988074317,0.0
766,1436988074337,0.0
767,1436988074357,0.0
768,1436988074377,0.0
769,1436988074397,0.0
770,1436988074417,0.0
771,1436988074438,0.0
772,1436988074456,0.0
773,1436988074477,0.0
774,1436988074497,0.0
775,1436988074517,0.0
776,1436988074537,0.0
777,1436988074557,0.0
778,1436988074577,0.0
779,1436988074597,0.0
780,1436988074617,0.0
781,1436988074637,0.0
782,1436988074657,0.0
783,1436988074677,0.0
784,1436988074697,0.0
785,1436988074717,0.0
786,1436988074737,0.0
787,1436988074757,0.0
788,1436988074777,0.0
789,1436988074797,0.0
790,1436988074817,0.0
791,1436988074837,0.0
792,1436988074860,0.0
793,1436988074879,0.0
794,1436988074897,0.0
795,1436988074920,0.0
796,1436988074938,0.0
797,1436988074958,0.0
798,1436988074984,0.0
799,1436988074997,0.0
800,1436988075017,0.0
801,1436988075037,0.0
802,1436988075057,0.0
803,1436988075080,0.0
804,1436988075099,0.0
805,1436988075119,0.0
806,1436988075138,0.0
807,1436988075157,0.0
808,1436988075213,0.0
809,1436988075214,0.0
810,1436988075224,0.0
811,1436988075237,0.0
812,1436988075257,0.0
813,1436988075278,0.0
814,1436988075297,0.0
815,1436988075317,0.0
816,1436988075337,0.0
817,1436988075357,0.0
818,1436988075378,0.0
819,1436988075397,0.0
820,1436988075417,0.0
821,1436988075437,0.0
822,1436988075458,0.0
823,1436988075477,0.0
824,1436988075498,0.0
825,1436988075517,0.0
826,1436988075537,0.0
827,1436988075558,0.0
828,1436988075579,0.0
829,1436988075598,0.0
830,1436988075618,0.0
831,1436988075638,0.0
832,1436988075658,0.0
833,1436988075678,0.0
834,1436988075698,0.0
835,1436988075720,0.0
836,1436988075743,0.0
837,1436988075759,0.0
838,1436988075779,0.0
839,1436988075801,0.0
840,1436988075819,0.0
841,1436988075842,0.0
842,1436988075860,0.0
843,1436988075880,0.0
844,1436988075898,0.0
845,1436988075919,0.0
846,1436988075942,0.0
847,1436988075962,0.0
848,1436988075980,0.0
849,1436988076000,0.0
850,1436988076019,0.0
851,1436988076146,0.0
852,1436988076147,0.0
853,1436988076148,0.0
854,1436988076149,0.0
855,1436988076150,0.0
856,1436988076151,0.0
857,1436988076158,0.0
858,1436988076178,0.0
859,1436988076198,0.0
860,1436988076218,0.0
861,1436988076238,0.0
862,1436988076258,0.0
863,1436988076278,0.0
864,1436988076298,0.0
865,1436988076318,0.0
866,1436988076338,0.0
867,1436988076358,0.0
868,1436988076378,0.0
869,1436988076398,0.0
870,1436988076418,0.0
871,1436988076439,0.0
872,1436988076458,0.0
873,1436988076478,0.0
874,1436988076499,0.0
875,1436988076524,0.0
876,1436988076539,0.0
877,1436988076559,0.0
878,1436988076579,0.0
879,1436988076599,0.0
880,1436988076619,0.0
881,1436988076639,0.0
882,1436988076659,0.0
883,1436988076679,0.0
884,1436988076699,0.0
885,1436988076719,0.0
886,1436988076739,0.0
887,1436988076759,0.0
888,1436988076779,0.0
889,1436988076799,0.0
890,1436988076819,0.0
891,1436988076840,0.0
892,1436988076862,0.0
893,1436988076880,0.0
894,1436988076901,0.0
895,1436988076921,0.0
896,1436988076940,0.0
897,1436988076961,0.0
898,1436988076986,0.0
899,1436988077228,0.0
900,1436988077229,0.0
901,1436988077230,0.0
902,1436988077231,0.0
903,1436988077232,0.0
904,1436988077233,0.0
905,1436988077234,0.0
906,1436988077235,0.0
907,1436988077236,0.0
908,1436988077237,0.0
909,1436988077238,0.0
910,1436988077239,0.0
911,1436988077266,0.0
912,1436988077267,0.0
