id,attr_time,attr_light
1,1436892348006,327.0
2,1436892348026,327.0
3,1436892348048,327.0
4,1436892348067,327.0
5,1436892348088,327.0
6,1436892348107,327.0
7,1436892348127,327.0
8,1436892348149,327.0
9,1436892348169,327.0
10,1436892348189,327.0
11,1436892348208,327.0
12,1436892348226,327.0
13,1436892348247,327.0
14,1436892348269,327.0
15,1436892348287,327.0
16,1436892348308,327.0
17,1436892348328,327.0
18,1436892348347,327.0
19,1436892348369,327.0
20,1436892348390,327.0
21,1436892348406,327.0
22,1436892348427,329.0
23,1436892348454,329.0
24,1436892348506,330.0
25,1436892348507,330.0
26,1436892348508,332.0
27,1436892348539,333.0
28,1436892348546,333.0
29,1436892348566,334.0
30,1436892348586,334.0
31,1436892348607,336.0
32,1436892348626,336.0
33,1436892348651,336.0
34,1436892348666,336.0
35,1436892348689,338.0
36,1436892348707,338.0
37,1436892348727,338.0
38,1436892348747,338.0
39,1436892348767,339.0
40,1436892348787,339.0
41,1436892348807,339.0
42,1436892348829,339.0
43,1436892348847,339.0
44,1436892348867,339.0
45,1436892348887,338.0
46,1436892348908,338.0
47,1436892348926,338.0
48,1436892348946,337.0
49,1436892348968,337.0
50,1436892348988,336.0
51,1436892349007,336.0
52,1436892349027,335.0
53,1436892349048,335.0
54,1436892349066,334.0
55,1436892349086,334.0
56,1436892349109,334.0
57,1436892349129,334.0
58,1436892349147,334.0
59,1436892349167,334.0
60,1436892349188,334.0
61,1436892349207,334.0
62,1436892349228,335.0
63,1436892349248,335.0
64,1436892349269,335.0
65,1436892349287,336.0
66,1436892349309,336.0
67,1436892349342,336.0
68,1436892349348,336.0
69,1436892349366,336.0
70,1436892349386,336.0
71,1436892349407,336.0
72,1436892349430,336.0
73,1436892349450,335.0
74,1436892349468,335.0
75,1436892349491,334.0
76,1436892349511,334.0
77,1436892349528,333.0
78,1436892349547,333.0
79,1436892349572,333.0
80,1436892349588,333.0
81,1436892349611,332.0
82,1436892349632,332.0
83,1436892349648,331.0
84,1436892349671,330.0
85,1436892349692,330.0
86,1436892349708,330.0
87,1436892349732,330.0
88,1436892349753,330.0
89,1436892349768,330.0
90,1436892349792,330.0
91,1436892349807,330.0
92,1436892349827,330.0
93,1436892349847,330.0
94,1436892349873,330.0
95,1436892349892,330.0
96,1436892349907,331.0
97,1436892349929,331.0
98,1436892349953,331.0
99,1436892350028,331.0
100,1436892350029,331.0
101,1436892350030,331.0
102,1436892350031,330.0
103,1436892350049,329.0
104,1436892350071,329.0
105,1436892350088,329.0
106,1436892350114,329.0
107,1436892350128,328.0
108,1436892350149,328.0
109,1436892350169,327.0
110,1436892350192,327.0
111,1436892350218,327.0
112,1436892350231,327.0
113,1436892350249,326.0
114,1436892350270,326.0
115,1436892350288,325.0
116,1436892350312,325.0
117,1436892350332,325.0
118,1436892350350,325.0
119,1436892350371,324.0
120,1436892350392,324.0
121,1436892350409,323.0
122,1436892350432,323.0
123,1436892350451,323.0
124,1436892350471,322.0
125,1436892350491,322.0
126,1436892350513,321.0
127,1436892350531,321.0
128,1436892350552,321.0
129,1436892350572,321.0
130,1436892350591,320.0
131,1436892350613,320.0
132,1436892350631,320.0
133,1436892350651,320.0
134,1436892350673,320.0
135,1436892350736,320.0
136,1436892350737,320.0
137,1436892350738,320.0
138,1436892350749,320.0
139,1436892350801,320.0
140,1436892350802,320.0
141,1436892350810,320.0
142,1436892350829,320.0
143,1436892350851,320.0
144,1436892350877,320.0
145,1436892350891,320.0
146,1436892350912,320.0
147,1436892350929,320.0
148,1436892350952,320.0
149,1436892350973,320.0
150,1436892350992,320.0
151,1436892351013,319.0
152,1436892351029,319.0
153,1436892351049,319.0
154,1436892351072,319.0
155,1436892351091,319.0
156,1436892351112,319.0
157,1436892351133,319.0
158,1436892351149,319.0
159,1436892351174,318.0
160,1436892351190,318.0
161,1436892351209,318.0
162,1436892351238,317.0
163,1436892351249,317.0
164,1436892351273,317.0
165,1436892351290,317.0
166,1436892351309,317.0
167,1436892351329,317.0
168,1436892351631,316.0
169,1436892351632,316.0
170,1436892351633,315.0
171,1436892351634,315.0
172,1436892351635,314.0
173,1436892351636,314.0
174,1436892351637,312.0
175,1436892351638,312.0
176,1436892351639,311.0
177,1436892351640,311.0
178,1436892351641,310.0
179,1436892351642,310.0
180,1436892351643,310.0
181,1436892351644,310.0
182,1436892351645,310.0
183,1436892351654,311.0
184,1436892351685,311.0
185,1436892351691,311.0
186,1436892351710,311.0
187,1436892351730,311.0
188,1436892351752,311.0
189,1436892351772,310.0
190,1436892351792,310.0
191,1436892351811,311.0
192,1436892351835,311.0
193,1436892351853,311.0
194,1436892351871,311.0
195,1436892351890,312.0
196,1436892351910,313.0
197,1436892351934,313.0
198,1436892351955,313.0
199,1436892351975,313.0
200,1436892351992,315.0
201,1436892352009,315.0
202,1436892352030,316.0
203,1436892352050,316.0
204,1436892352070,317.0
205,1436892352102,317.0
206,1436892352172,318.0
207,1436892352173,318.0
208,1436892352174,319.0
209,1436892352175,319.0
210,1436892352192,319.0
211,1436892352211,319.0
212,1436892352230,319.0
213,1436892352254,319.0
214,1436892352270,320.0
215,1436892352291,320.0
216,1436892352316,320.0
217,1436892352331,321.0
218,1436892352356,321.0
219,1436892352372,322.0
220,1436892352393,322.0
221,1436892352413,322.0
222,1436892352439,322.0
223,1436892352464,323.0
224,1436892352470,323.0
225,1436892352490,323.0
226,1436892352510,323.0
227,1436892352530,323.0
228,1436892352550,323.0
229,1436892352570,322.0
230,1436892352590,322.0
231,1436892352610,323.0
232,1436892352630,323.0
233,1436892352650,323.0
234,1436892352670,322.0
235,1436892352690,322.0
236,1436892352710,322.0
237,1436892352730,322.0
238,1436892352750,322.0
239,1436892352770,322.0
240,1436892352792,322.0
241,1436892352810,322.0
242,1436892352845,323.0
243,1436892352875,323.0
244,1436892352876,323.0
245,1436892352891,323.0
246,1436892352912,323.0
247,1436892352934,323.0
248,1436892352949,323.0
249,1436892352970,323.0
250,1436892352990,323.0
251,1436892353010,323.0
252,1436892353034,322.0
253,1436892353055,322.0
254,1436892353074,322.0
255,1436892353092,322.0
256,1436892353111,322.0
257,1436892353132,322.0
258,1436892353154,322.0
259,1436892353172,321.0
260,1436892353194,321.0
261,1436892353215,321.0
262,1436892353231,321.0
263,1436892353254,320.0
264,1436892353275,320.0
265,1436892353295,320.0
266,1436892353315,320.0
267,1436892353335,319.0
268,1436892353352,319.0
269,1436892353372,319.0
270,1436892353417,319.0
271,1436892353418,319.0
272,1436892353439,320.0
273,1436892353453,320.0
274,1436892353473,320.0
275,1436892353499,320.0
276,1436892353566,320.0
277,1436892353567,320.0
278,1436892353568,319.0
279,1436892353576,319.0
280,1436892353601,319.0
281,1436892353613,319.0
282,1436892353634,319.0
283,1436892353654,319.0
284,1436892353672,319.0
285,1436892353694,319.0
286,1436892353712,320.0
287,1436892353735,320.0
288,1436892353756,320.0
289,1436892353774,320.0
290,1436892353795,321.0
291,1436892353814,321.0
292,1436892353835,321.0
293,1436892353855,322.0
294,1436892353874,322.0
295,1436892353908,322.0
296,1436892353912,322.0
297,1436892353936,323.0
298,1436892353952,323.0
299,1436892353973,323.0
300,1436892353992,323.0
301,1436892354017,324.0
302,1436892354035,324.0
303,1436892354053,324.0
304,1436892354073,324.0
305,1436892354092,324.0
306,1436892354118,324.0
307,1436892354138,324.0
308,1436892354158,324.0
309,1436892354176,324.0
310,1436892354198,324.0
311,1436892354296,324.0
312,1436892354297,324.0
313,1436892354298,324.0
314,1436892354299,324.0
315,1436892354300,324.0
316,1436892354313,325.0
317,1436892354332,325.0
318,1436892354352,325.0
319,1436892354372,325.0
320,1436892354401,325.0
321,1436892354419,325.0
322,1436892354433,325.0
323,1436892354453,325.0
324,1436892354475,325.0
325,1436892354493,325.0
326,1436892354513,326.0
327,1436892354532,326.0
328,1436892354552,326.0
329,1436892354573,327.0
330,1436892354593,327.0
331,1436892354613,327.0
332,1436892354633,327.0
333,1436892354653,327.0
334,1436892354674,327.0
335,1436892354696,327.0
336,1436892354715,327.0
337,1436892354736,327.0
338,1436892354756,327.0
339,1436892354775,328.0
340,1436892354794,328.0
341,1436892354815,328.0
342,1436892354834,328.0
343,1436892354857,329.0
344,1436892354876,329.0
345,1436892354896,329.0
346,1436892354914,329.0
347,1436892354944,329.0
348,1436892354993,329.0
349,1436892354994,329.0
350,1436892354995,328.0
351,1436892355013,328.0
352,1436892355034,329.0
353,1436892355054,329.0
354,1436892355073,328.0
355,1436892355093,328.0
356,1436892355115,328.0
357,1436892355134,328.0
358,1436892355155,328.0
359,1436892355176,328.0
360,1436892355198,327.0
361,1436892355215,327.0
362,1436892355239,327.0
363,1436892355256,327.0
364,1436892355273,326.0
365,1436892355295,326.0
366,1436892355316,326.0
367,1436892355336,326.0
368,1436892355356,326.0
369,1436892355376,326.0
370,1436892355397,326.0
371,1436892355414,326.0
372,1436892355436,326.0
373,1436892355453,326.0
374,1436892355473,326.0
375,1436892355494,326.0
376,1436892355519,326.0
377,1436892355539,326.0
378,1436892355559,326.0
379,1436892355576,326.0
380,1436892355593,326.0
381,1436892355615,326.0
382,1436892355634,326.0
383,1436892355655,326.0
384,1436892355674,326.0
385,1436892355744,326.0
386,1436892355745,326.0
387,1436892355746,326.0
388,1436892355754,325.0
389,1436892355781,325.0
390,1436892355797,325.0
391,1436892355813,325.0
392,1436892355834,324.0
393,1436892355856,324.0
394,1436892355879,324.0
395,1436892355897,324.0
396,1436892355914,324.0
397,1436892355935,324.0
398,1436892355957,324.0
399,1436892355977,324.0
400,1436892355997,324.0
401,1436892356017,324.0
402,1436892356037,324.0
403,1436892356057,324.0
404,1436892356077,323.0
405,1436892356097,323.0
406,1436892356114,323.0
407,1436892356134,323.0
408,1436892356154,323.0
409,1436892356174,323.0
410,1436892356198,323.0
411,1436892356215,323.0
412,1436892356234,323.0
413,1436892356261,323.0
414,1436892356274,323.0
415,1436892356305,324.0
416,1436892356314,324.0
417,1436892356334,324.0
418,1436892356638,324.0
419,1436892356639,325.0
420,1436892356640,325.0
421,1436892356641,325.0
422,1436892356642,325.0
423,1436892356643,326.0
424,1436892356644,326.0
425,1436892356645,326.0
426,1436892356646,326.0
427,1436892356647,326.0
428,1436892356648,327.0
429,1436892356649,327.0
430,1436892356650,327.0
431,1436892356651,327.0
432,1436892356652,327.0
433,1436892356662,327.0
434,1436892356674,327.0
435,1436892356694,327.0
436,1436892356719,327.0
437,1436892356739,327.0
438,1436892356757,327.0
439,1436892356777,327.0
440,1436892356795,326.0
441,1436892356815,326.0
442,1436892356835,326.0
443,1436892356856,326.0
444,1436892356877,326.0
445,1436892356897,326.0
446,1436892356917,326.0
447,1436892356937,326.0
448,1436892356958,326.0
449,1436892356978,325.0
450,1436892356998,325.0
451,1436892357016,325.0
452,1436892357035,325.0
453,1436892357055,325.0
454,1436892357076,325.0
455,1436892357103,325.0
456,1436892357175,325.0
457,1436892357176,325.0
458,1436892357177,325.0
459,1436892357178,325.0
460,1436892357195,324.0
461,1436892357215,324.0
462,1436892357235,325.0
463,1436892357264,325.0
464,1436892357275,325.0
465,1436892357296,325.0
466,1436892357322,324.0
467,1436892357336,324.0
468,1436892357357,323.0
469,1436892357378,323.0
470,1436892357398,323.0
471,1436892357418,323.0
472,1436892357437,327.0
473,1436892357457,327.0
474,1436892357477,334.0
475,1436892357498,334.0
476,1436892357518,337.0
477,1436892357537,337.0
478,1436892357561,337.0
479,1436892357578,335.0
480,1436892357601,335.0
481,1436892357617,335.0
482,1436892357641,335.0
483,1436892357658,336.0
484,1436892357675,336.0
485,1436892357696,336.0
486,1436892357716,336.0
487,1436892357737,336.0
488,1436892357762,336.0
489,1436892357777,336.0
490,1436892357797,336.0
491,1436892357820,336.0
492,1436892357887,336.0
493,1436892357888,336.0
494,1436892357889,336.0
495,1436892357898,336.0
496,1436892357927,336.0
497,1436892357937,336.0
498,1436892357956,336.0
499,1436892357976,336.0
500,1436892357996,336.0
501,1436892358018,336.0
502,1436892358037,336.0
503,1436892358057,336.0
504,1436892358077,336.0
505,1436892358099,336.0
506,1436892358119,336.0
507,1436892358139,336.0
508,1436892358159,335.0
509,1436892358177,335.0
510,1436892358197,335.0
511,1436892358219,335.0
512,1436892358239,335.0
513,1436892358258,335.0
514,1436892358277,334.0
515,1436892358299,334.0
516,1436892358318,334.0
517,1436892358339,334.0
518,1436892358356,334.0
519,1436892358379,334.0
520,1436892358400,334.0
521,1436892358420,334.0
522,1436892358439,334.0
523,1436892358457,333.0
524,1436892358477,333.0
525,1436892358499,332.0
526,1436892358517,332.0
527,1436892358538,332.0
528,1436892358586,332.0
529,1436892358587,331.0
530,1436892358606,331.0
531,1436892358616,330.0
532,1436892358642,330.0
533,1436892358658,330.0
534,1436892358677,330.0
535,1436892358698,330.0
536,1436892358718,331.0
537,1436892358739,331.0
538,1436892358757,333.0
539,1436892358777,333.0
540,1436892358798,334.0
541,1436892358818,334.0
542,1436892358840,336.0
543,1436892358857,336.0
544,1436892358878,338.0
545,1436892358900,338.0
546,1436892358920,340.0
547,1436892358940,340.0
548,1436892358960,342.0
549,1436892358980,342.0
550,1436892358998,345.0
551,1436892359020,345.0
552,1436892359040,346.0
553,1436892359060,346.0
554,1436892359080,347.0
555,1436892359098,349.0
556,1436892359119,349.0
557,1436892359139,351.0
558,1436892359159,351.0
559,1436892359179,353.0
560,1436892359198,353.0
561,1436892359218,355.0
562,1436892359238,355.0
563,1436892359257,357.0
564,1436892359277,357.0
565,1436892359322,359.0
566,1436892359323,359.0
567,1436892359339,361.0
568,1436892359357,361.0
569,1436892359380,363.0
570,1436892359402,363.0
571,1436892359417,364.0
572,1436892359437,364.0
573,1436892359483,365.0
574,1436892359484,369.0
575,1436892359499,369.0
576,1436892359518,374.0
577,1436892359538,374.0
578,1436892359558,373.0
579,1436892359578,373.0
580,1436892359598,369.0
581,1436892359620,369.0
582,1436892359640,368.0
583,1436892359657,368.0
584,1436892359678,370.0
585,1436892359700,370.0
586,1436892359718,372.0
587,1436892359738,372.0
588,1436892359760,370.0
589,1436892359780,370.0
590,1436892359797,367.0
591,1436892359820,367.0
592,1436892359841,363.0
593,1436892359858,362.0
594,1436892359880,362.0
595,1436892359899,364.0
596,1436892359918,364.0
597,1436892359941,368.0
598,1436892359958,368.0
599,1436892359978,370.0
600,1436892360008,370.0
601,1436892360063,372.0
602,1436892360064,372.0
603,1436892360065,371.0
604,1436892360083,371.0
605,1436892360099,372.0
606,1436892360118,372.0
607,1436892360140,375.0
608,1436892360159,375.0
609,1436892360180,378.0
610,1436892360199,378.0
611,1436892360219,381.0
612,1436892360238,384.0
613,1436892360261,384.0
614,1436892360280,385.0
615,1436892360301,385.0
616,1436892360321,384.0
617,1436892360340,384.0
618,1436892360361,386.0
619,1436892360381,386.0
620,1436892360400,390.0
621,1436892360421,390.0
622,1436892360441,395.0
623,1436892360458,395.0
624,1436892360481,399.0
625,1436892360501,399.0
626,1436892360521,401.0
627,1436892360541,401.0
628,1436892360562,403.0
629,1436892360582,403.0
630,1436892360602,405.0
631,1436892360620,407.0
632,1436892360641,407.0
633,1436892360663,402.0
634,1436892360682,402.0
635,1436892360701,392.0
636,1436892360723,392.0
637,1436892360776,384.0
638,1436892360780,384.0
639,1436892360781,383.0
640,1436892360799,383.0
641,1436892360822,387.0
642,1436892360839,387.0
643,1436892360858,391.0
644,1436892360879,391.0
645,1436892360900,392.0
646,1436892360919,392.0
647,1436892360943,393.0
648,1436892360963,392.0
649,1436892360979,392.0
650,1436892361002,389.0
651,1436892361023,389.0
652,1436892361041,387.0
653,1436892361065,387.0
654,1436892361079,387.0
655,1436892361099,387.0
656,1436892361119,388.0
657,1436892361142,388.0
658,1436892361162,388.0
659,1436892361180,388.0
660,1436892361206,386.0
661,1436892361223,386.0
662,1436892361245,385.0
663,1436892361264,385.0
664,1436892361285,380.0
665,1436892361302,380.0
666,1436892361319,375.0
667,1436892361339,377.0
668,1436892361360,377.0
669,1436892361386,380.0
670,1436892361406,380.0
671,1436892361426,378.0
672,1436892361440,378.0
673,1436892361471,375.0
674,1436892361522,375.0
675,1436892361523,372.0
676,1436892361524,372.0
677,1436892361539,371.0
678,1436892361561,371.0
679,1436892361580,371.0
680,1436892361601,371.0
681,1436892361621,372.0
682,1436892361642,372.0
683,1436892361659,371.0
684,1436892361684,371.0
685,1436892361699,370.0
686,1436892361724,371.0
687,1436892361743,371.0
688,1436892361762,373.0
689,1436892361783,373.0
690,1436892361803,368.0
691,1436892361822,368.0
692,1436892361843,358.0
693,1436892361863,358.0
694,1436892361883,342.0
695,1436892361903,342.0
696,1436892361925,335.0
697,1436892361940,335.0
698,1436892361963,339.0
699,1436892361984,339.0
700,1436892362004,344.0
701,1436892362024,344.0
702,1436892362043,346.0
703,1436892362062,346.0
704,1436892362082,347.0
705,1436892362102,348.0
706,1436892362127,348.0
707,1436892362143,348.0
708,1436892362165,348.0
709,1436892362180,349.0
710,1436892362202,349.0
711,1436892362274,351.0
712,1436892362275,351.0
713,1436892362276,352.0
714,1436892362285,352.0
715,1436892362301,351.0
716,1436892362323,351.0
717,1436892362340,347.0
718,1436892362363,347.0
719,1436892362380,341.0
720,1436892362404,341.0
721,1436892362424,334.0
722,1436892362441,334.0
723,1436892362462,320.0
724,1436892362483,310.0
725,1436892362503,310.0
726,1436892362523,309.0
727,1436892362543,309.0
728,1436892362563,311.0
729,1436892362583,311.0
730,1436892362603,308.0
731,1436892362623,308.0
732,1436892362645,302.0
733,1436892362660,302.0
734,1436892362683,298.0
735,1436892362704,298.0
736,1436892362723,299.0
737,1436892362743,299.0
738,1436892362760,302.0
739,1436892362783,302.0
740,1436892362803,302.0
741,1436892362824,302.0
742,1436892362853,301.0
743,1436892362890,302.0
744,1436892362891,302.0
745,1436892362901,305.0
746,1436892362957,305.0
747,1436892362958,306.0
748,1436892362994,306.0
749,1436892362995,305.0
750,1436892363012,305.0
751,1436892363020,295.0
752,1436892363041,295.0
753,1436892363061,283.0
754,1436892363086,283.0
755,1436892363101,283.0
756,1436892363129,283.0
757,1436892363148,288.0
758,1436892363161,288.0
759,1436892363181,290.0
760,1436892363201,290.0
761,1436892363221,291.0
762,1436892363241,292.0
763,1436892363261,292.0
764,1436892363281,294.0
765,1436892363301,294.0
766,1436892363321,295.0
767,1436892363341,295.0
768,1436892363361,298.0
769,1436892363381,298.0
770,1436892363425,303.0
771,1436892363426,303.0
772,1436892363441,303.0
773,1436892363461,303.0
774,1436892363481,298.0
775,1436892363501,298.0
776,1436892363523,292.0
777,1436892363541,292.0
778,1436892363561,284.0
779,1436892363581,284.0
780,1436892363602,273.0
781,1436892363621,259.0
782,1436892363643,259.0
783,1436892363662,249.0
784,1436892363686,249.0
785,1436892363700,242.0
786,1436892363720,242.0
787,1436892363742,234.0
788,1436892363761,234.0
789,1436892363783,226.0
790,1436892363800,226.0
791,1436892363823,215.0
792,1436892363841,215.0
793,1436892363862,205.0
794,1436892363885,205.0
795,1436892363900,200.0
796,1436892363925,200.0
797,1436892363945,199.0
798,1436892363965,199.0
799,1436892363985,200.0
800,1436892364005,200.0
801,1436892364025,200.0
802,1436892364042,202.0
803,1436892364066,202.0
804,1436892364083,204.0
805,1436892364103,204.0
806,1436892364122,208.0
807,1436892364146,208.0
808,1436892364165,214.0
809,1436892364186,214.0
810,1436892364205,226.0
811,1436892364224,226.0
812,1436892364243,226.0
813,1436892364262,226.0
814,1436892364290,218.0
815,1436892364355,218.0
816,1436892364356,217.0
817,1436892364357,217.0
818,1436892364389,222.0
819,1436892364390,223.0
820,1436892364405,223.0
821,1436892364423,214.0
822,1436892364444,214.0
823,1436892364463,202.0
824,1436892364482,202.0
825,1436892364504,194.0
826,1436892364524,194.0
827,1436892364546,194.0
828,1436892364566,194.0
829,1436892364585,199.0
830,1436892364606,199.0
831,1436892364625,201.0
832,1436892364645,201.0
833,1436892364666,198.0
834,1436892364685,198.0
835,1436892364705,191.0
836,1436892364725,191.0
