id,attr_time,attr_light
1,1437236129783,0.0
2,1437236129784,0.0
3,1437236129785,0.0
4,1437236129796,0.0
5,1437236129812,0.0
6,1437236129837,0.0
7,1437236129851,0.0
8,1437236129871,0.0
9,1437236129906,0.0
10,1437236129911,0.0
11,1437236129940,0.0
12,1437236129952,0.0
13,1437236129974,0.0
14,1437236129993,0.0
15,1437236130014,0.0
16,1437236130032,0.0
17,1437236130053,0.0
18,1437236130077,0.0
19,1437236130093,0.0
20,1437236130112,0.0
21,1437236130136,0.0
22,1437236130157,0.0
23,1437236130174,0.0
24,1437236130194,0.0
25,1437236130212,0.0
26,1437236130231,0.0
27,1437236130252,0.0
28,1437236130274,0.0
29,1437236130297,0.0
30,1437236130317,0.0
31,1437236130334,0.0
32,1437236130352,0.0
33,1437236130373,0.0
34,1437236130392,0.0
35,1437236130413,0.0
36,1437236130433,0.0
37,1437236130503,0.0
38,1437236130504,0.0
39,1437236130505,0.0
40,1437236130515,0.0
41,1437236130533,0.0
42,1437236130557,0.0
43,1437236130592,0.0
44,1437236130593,0.0
45,1437236130612,0.0
46,1437236130632,0.0
47,1437236130652,0.0
48,1437236130680,0.0
49,1437236130693,0.0
50,1437236130713,0.0
51,1437236130734,0.0
52,1437236130753,0.0
53,1437236130773,0.0
54,1437236130794,0.0
55,1437236130814,0.0
56,1437236130835,0.0
57,1437236130855,0.0
58,1437236130875,0.0
59,1437236132436,0.0
60,1437236132437,0.0
61,1437236132438,0.0
62,1437236132439,0.0
63,1437236132440,0.0
64,1437236132441,0.0
65,1437236132442,0.0
66,1437236132443,0.0
67,1437236132444,0.0
68,1437236132445,0.0
69,1437236132446,0.0
70,1437236132447,0.0
71,1437236132448,0.0
72,1437236132449,0.0
73,1437236132450,0.0
74,1437236132451,0.0
75,1437236132452,0.0
76,1437236132453,0.0
77,1437236132454,0.0
78,1437236132455,0.0
79,1437236132456,0.0
80,1437236132457,0.0
81,1437236132458,0.0
82,1437236132459,0.0
83,1437236132460,0.0
84,1437236132461,0.0
85,1437236132462,0.0
86,1437236132463,0.0
87,1437236132464,0.0
88,1437236132465,0.0
89,1437236132466,0.0
90,1437236132467,0.0
91,1437236132468,0.0
92,1437236132469,0.0
93,1437236132470,0.0
94,1437236132471,0.0
95,1437236132472,0.0
96,1437236132473,0.0
97,1437236132474,0.0
98,1437236132475,0.0
99,1437236132476,0.0
100,1437236132477,0.0
101,1437236132478,0.0
102,1437236132479,0.0
103,1437236132480,0.0
104,1437236132481,0.0
105,1437236132482,0.0
106,1437236132483,0.0
107,1437236132484,0.0
108,1437236132485,0.0
109,1437236132486,0.0
110,1437236132487,0.0
111,1437236132488,0.0
112,1437236132489,0.0
113,1437236132490,0.0
114,1437236132491,0.0
115,1437236132492,0.0
116,1437236132493,0.0
117,1437236132494,0.0
118,1437236132495,0.0
119,1437236132496,0.0
120,1437236132497,0.0
121,1437236132498,0.0
122,1437236132499,0.0
123,1437236132500,0.0
124,1437236132501,0.0
125,1437236132502,0.0
126,1437236132503,0.0
127,1437236132504,0.0
128,1437236132505,0.0
129,1437236132506,0.0
130,1437236132507,0.0
131,1437236132508,0.0
132,1437236132509,0.0
133,1437236132510,0.0
134,1437236132511,0.0
135,1437236132512,0.0
136,1437236132513,0.0
137,1437236132514,0.0
138,1437236132515,0.0
139,1437236132516,0.0
140,1437236132517,0.0
141,1437236132533,0.0
142,1437236132553,0.0
143,1437236132573,0.0
144,1437236132593,0.0
145,1437236132613,0.0
146,1437236132633,0.0
147,1437236132653,0.0
148,1437236132673,0.0
149,1437236132693,0.0
150,1437236132713,0.0
151,1437236132733,0.0
152,1437236132753,0.0
153,1437236132776,0.0
154,1437236132794,0.0
155,1437236132814,0.0
156,1437236132836,0.0
157,1437236132855,0.0
158,1437236132876,0.0
159,1437236132895,0.0
160,1437236132914,0.0
161,1437236132933,0.0
162,1437236132955,0.0
163,1437236132974,0.0
164,1437236133008,0.0
165,1437236133023,0.0
166,1437236133044,0.0
167,1437236133054,0.0
168,1437236133074,0.0
169,1437236133093,0.0
170,1437236133115,0.0
171,1437236133134,0.0
172,1437236133154,0.0
173,1437236133176,0.0
174,1437236133196,0.0
175,1437236133216,0.0
176,1437236133237,0.0
177,1437236133255,0.0
178,1437236133276,0.0
179,1437236133294,0.0
180,1437236133317,0.0
181,1437236133356,0.0
182,1437236133357,0.0
183,1437236133375,0.0
184,1437236133404,0.0
185,1437236133415,0.0
186,1437236133435,0.0
187,1437236133454,0.0
188,1437236133474,0.0
189,1437236133496,0.0
190,1437236133514,0.0
191,1437236133534,0.0
192,1437236133554,0.0
193,1437236133574,0.0
194,1437236133594,0.0
195,1437236133614,0.0
196,1437236133636,0.0
197,1437236133655,0.0
198,1437236133674,0.0
199,1437236133694,0.0
200,1437236133718,0.0
201,1437236133734,0.0
202,1437236133758,0.0
203,1437236133774,0.0
204,1437236133795,0.0
205,1437236133814,0.0
206,1437236133834,0.0
207,1437236133854,0.0
208,1437236133874,0.0
209,1437236133894,0.0
210,1437236133914,0.0
211,1437236133934,0.0
212,1437236133954,0.0
213,1437236133974,0.0
214,1437236133994,0.0
215,1437236134014,0.0
216,1437236134034,0.0
217,1437236134054,0.0
218,1437236134074,0.0
219,1437236134094,0.0
220,1437236134114,0.0
221,1437236134134,0.0
222,1437236134154,0.0
223,1437236134174,0.0
224,1437236134194,0.0
225,1437236134215,0.0
226,1437236134235,0.0
227,1437236134255,0.0
228,1437236134274,0.0
229,1437236134295,0.0
230,1437236134316,0.0
231,1437236134336,0.0
232,1437236134355,0.0
233,1437236134376,0.0
234,1437236134397,0.0
235,1437236134416,0.0
236,1437236134437,0.0
237,1437236134455,0.0
238,1437236134474,0.0
239,1437236134496,0.0
240,1437236134517,0.0
241,1437236134536,0.0
242,1437236134557,0.0
243,1437236134576,0.0
244,1437236134596,0.0
245,1437236134617,0.0
246,1437236134635,0.0
247,1437236134656,0.0
248,1437236134677,0.0
249,1437236134696,0.0
250,1437236134716,0.0
251,1437236134736,0.0
252,1437236134757,0.0
253,1437236134776,0.0
254,1437236134796,0.0
255,1437236134815,0.0
256,1437236134842,0.0
257,1437236134917,0.0
258,1437236134918,0.0
259,1437236134919,0.0
260,1437236134920,0.0
261,1437236134939,0.0
262,1437236134962,0.0
263,1437236134977,0.0
264,1437236134996,0.0
265,1437236135024,0.0
266,1437236135054,0.0
267,1437236135062,0.0
268,1437236135076,0.0
269,1437236135096,0.0
270,1437236135118,0.0
271,1437236135138,0.0
272,1437236135157,0.0
273,1437236135177,0.0
274,1437236135196,0.0
275,1437236135217,0.0
276,1437236135237,0.0
277,1437236135258,0.0
278,1437236135277,0.0
279,1437236135298,0.0
280,1437236135319,0.0
281,1437236135338,0.0
282,1437236135357,0.0
283,1437236135377,0.0
284,1437236135397,0.0
285,1437236135418,0.0
286,1437236135439,0.0
287,1437236135460,0.0
288,1437236135478,0.0
289,1437236135497,0.0
290,1437236135517,0.0
291,1437236135538,0.0
292,1437236135564,0.0
293,1437236135637,0.0
294,1437236135638,0.0
295,1437236135639,0.0
296,1437236135640,0.0
297,1437236135658,0.0
298,1437236135683,0.0
299,1437236135697,0.0
300,1437236135719,0.0
301,1437236135737,0.0
302,1437236135761,0.0
303,1437236135778,0.0
304,1437236135799,0.0
305,1437236135817,0.0
306,1437236135838,0.0
307,1437236135858,0.0
308,1437236135878,0.0
309,1437236135897,0.0
310,1437236135917,0.0
311,1437236135937,0.0
312,1437236135958,0.0
313,1437236135979,0.0
314,1437236135998,0.0
315,1437236136023,0.0
316,1437236136038,0.0
317,1437236136060,0.0
318,1437236136087,0.0
319,1437236136099,0.0
320,1437236136120,0.0
321,1437236136159,0.0
322,1437236136160,0.0
323,1437236136200,0.0
324,1437236136201,0.0
325,1437236136220,0.0
326,1437236136237,0.0
327,1437236136257,0.0
328,1437236136278,0.0
329,1437236136297,0.0
330,1437236136318,0.0
331,1437236136338,0.0
332,1437236136628,0.0
333,1437236136629,0.0
334,1437236136630,0.0
335,1437236136631,0.0
336,1437236136632,0.0
337,1437236136633,0.0
338,1437236136634,0.0
339,1437236136635,0.0
340,1437236136636,0.0
341,1437236136637,0.0
342,1437236136638,0.0
343,1437236136639,0.0
344,1437236136640,0.0
345,1437236136641,0.0
346,1437236136647,0.0
347,1437236136674,0.0
348,1437236136682,0.0
349,1437236136700,0.0
350,1437236136720,0.0
351,1437236136741,0.0
352,1437236136761,0.0
353,1437236136784,0.0
354,1437236136802,0.0
355,1437236136821,0.0
356,1437236136839,0.0
357,1437236136858,0.0
358,1437236136912,0.0
359,1437236136913,0.0
360,1437236136917,0.0
361,1437236136937,0.0
362,1437236136957,0.0
363,1437236136977,0.0
364,1437236136997,0.0
365,1437236137018,0.0
366,1437236137037,0.0
367,1437236137057,0.0
368,1437236137079,0.0
369,1437236137098,0.0
370,1437236137117,0.0
371,1437236137138,0.0
372,1437236137159,0.0
373,1437236137177,0.0
374,1437236137197,0.0
375,1437236137217,0.0
376,1437236137239,0.0
377,1437236137257,0.0
378,1437236137277,0.0
379,1437236137297,0.0
380,1437236137317,0.0
381,1437236137337,0.0
382,1437236137357,0.0
383,1437236137377,0.0
384,1437236137397,0.0
385,1437236137417,0.0
386,1437236137438,0.0
387,1437236137457,0.0
388,1437236137478,0.0
389,1437236137498,0.0
390,1437236137518,0.0
391,1437236137538,0.0
392,1437236137557,0.0
393,1437236137592,0.0
394,1437236137599,0.0
395,1437236137624,0.0
396,1437236137644,0.0
397,1437236137659,0.0
398,1437236137687,0.0
399,1437236137698,0.0
400,1437236137719,0.0
401,1437236137740,0.0
402,1437236137759,0.0
403,1437236137780,0.0
404,1437236139058,0.0
405,1437236139059,0.0
406,1437236139060,0.0
407,1437236139061,0.0
408,1437236139062,0.0
409,1437236139063,0.0
410,1437236139064,0.0
411,1437236139065,0.0
412,1437236139066,0.0
413,1437236139067,0.0
414,1437236139068,0.0
415,1437236139069,0.0
416,1437236139070,0.0
417,1437236139071,0.0
418,1437236139072,0.0
419,1437236139073,0.0
420,1437236139074,0.0
421,1437236139075,0.0
422,1437236139076,0.0
423,1437236139077,0.0
424,1437236139078,0.0
425,1437236139079,0.0
426,1437236139080,0.0
427,1437236139081,0.0
428,1437236139082,0.0
429,1437236139083,0.0
430,1437236139084,0.0
431,1437236139085,0.0
432,1437236139086,0.0
433,1437236139087,0.0
434,1437236139088,0.0
435,1437236139089,0.0
436,1437236139090,0.0
437,1437236139091,0.0
438,1437236139092,0.0
439,1437236139093,0.0
440,1437236139094,0.0
441,1437236139095,0.0
442,1437236139096,0.0
443,1437236139097,0.0
444,1437236139098,0.0
445,1437236139099,0.0
446,1437236139100,0.0
447,1437236139101,0.0
448,1437236139102,0.0
449,1437236139103,0.0
450,1437236139104,0.0
451,1437236139105,0.0
452,1437236139106,0.0
453,1437236139107,0.0
454,1437236139108,0.0
455,1437236139109,0.0
456,1437236139110,0.0
457,1437236139111,0.0
458,1437236139112,0.0
459,1437236139113,0.0
460,1437236139114,0.0
461,1437236139115,0.0
462,1437236139116,0.0
463,1437236139117,0.0
464,1437236139118,0.0
465,1437236139119,0.0
466,1437236139120,0.0
467,1437236139121,0.0
468,1437236139122,0.0
469,1437236139123,0.0
470,1437236139124,0.0
471,1437236139139,0.0
472,1437236139159,0.0
473,1437236139179,0.0
474,1437236139199,0.0
475,1437236139219,0.0
476,1437236139239,0.0
477,1437236139259,0.0
478,1437236139281,0.0
479,1437236139304,0.0
480,1437236139320,0.0
481,1437236139344,0.0
482,1437236139361,0.0
483,1437236139382,0.0
484,1437236139402,0.0
485,1437236139425,0.0
486,1437236139445,0.0
487,1437236139465,0.0
488,1437236139481,0.0
489,1437236139502,0.0
490,1437236139521,0.0
491,1437236139540,1.0
492,1437236139563,1.0
493,1437236139582,1.0
494,1437236139599,1.0
495,1437236139619,1.0
496,1437236139641,1.0
497,1437236139664,1.0
498,1437236139681,0.0
499,1437236139700,0.0
500,1437236139721,0.0
501,1437236139741,0.0
502,1437236139765,1.0
503,1437236139784,1.0
504,1437236139804,1.0
505,1437236139825,1.0
506,1437236139842,1.0
507,1437236139861,1.0
508,1437236139883,1.0
509,1437236139905,1.0
510,1437236139923,1.0
511,1437236139944,1.0
512,1437236139961,1.0
513,1437236139982,1.0
514,1437236140004,1.0
515,1437236140021,1.0
516,1437236140047,0.0
517,1437236140070,0.0
518,1437236140092,0.0
519,1437236140102,0.0
520,1437236140125,1.0
521,1437236140286,1.0
522,1437236140287,1.0
523,1437236140288,1.0
524,1437236140289,1.0
525,1437236140290,1.0
526,1437236140291,1.0
527,1437236140292,1.0
528,1437236140293,1.0
529,1437236140314,1.0
530,1437236140347,1.0
531,1437236140348,1.0
532,1437236140371,1.0
533,1437236140393,1.0
534,1437236140418,1.0
535,1437236140421,1.0
536,1437236140447,1.0
537,1437236140461,1.0
538,1437236140482,1.0
539,1437236140502,1.0
540,1437236140568,1.0
541,1437236140569,1.0
542,1437236140570,1.0
543,1437236140603,1.0
544,1437236140604,1.0
545,1437236140624,1.0
546,1437236140642,1.0
547,1437236140667,1.0
548,1437236140682,1.0
549,1437236140707,1.0
550,1437236140727,1.0
551,1437236140746,1.0
552,1437236140766,1.0
553,1437236140786,1.0
554,1437236140806,1.0
555,1437236140826,1.0
556,1437236140846,1.0
557,1437236140867,1.0
558,1437236140887,1.0
559,1437236140907,1.0
560,1437236140926,1.0
561,1437236140944,1.0
562,1437236141020,1.0
563,1437236141021,1.0
564,1437236141024,1.0
565,1437236141025,1.0
566,1437236141045,1.0
567,1437236141068,1.0
568,1437236141082,1.0
569,1437236141104,1.0
570,1437236141124,1.0
571,1437236141145,1.0
572,1437236141169,1.0
573,1437236141183,1.0
574,1437236141205,1.0
575,1437236141223,1.0
576,1437236141243,1.0
577,1437236141264,1.0
578,1437236141285,1.0
579,1437236141305,1.0
580,1437236141327,1.0
581,1437236141346,1.0
582,1437236141366,1.0
583,1437236141386,1.0
584,1437236141404,1.0
585,1437236141424,1.0
586,1437236141443,1.0
587,1437236141463,1.0
588,1437236141482,1.0
589,1437236141505,1.0
590,1437236141527,1.0
591,1437236141548,1.0
592,1437236141563,1.0
593,1437236141582,1.0
594,1437236141605,1.0
595,1437236141625,1.0
596,1437236141646,1.0
597,1437236141665,1.0
598,1437236141725,1.0
599,1437236141726,1.0
600,1437236141727,1.0
601,1437236141747,1.0
602,1437236141763,1.0
603,1437236141788,1.0
604,1437236141805,1.0
605,1437236141827,1.0
606,1437236141843,1.0
607,1437236141867,1.0
608,1437236141886,1.0
609,1437236141905,1.0
610,1437236141925,1.0
611,1437236141943,1.0
612,1437236141964,1.0
613,1437236141983,1.0
614,1437236142003,1.0
615,1437236142025,1.0
616,1437236142046,1.0
617,1437236142066,1.0
618,1437236142087,1.0
619,1437236142106,1.0
620,1437236142127,1.0
621,1437236142145,1.0
622,1437236142166,1.0
623,1437236142184,1.0
624,1437236142203,1.0
625,1437236142225,1.0
626,1437236142245,1.0
627,1437236142326,1.0
628,1437236142327,1.0
629,1437236142328,1.0
630,1437236142329,1.0
631,1437236142356,1.0
632,1437236142364,1.0
633,1437236142384,1.0
634,1437236142407,1.0
635,1437236142478,1.0
636,1437236142479,1.0
637,1437236142480,1.0
638,1437236142488,1.0
639,1437236142504,1.0
640,1437236142528,1.0
641,1437236142543,1.0
642,1437236142564,1.0
643,1437236142585,1.0
644,1437236142605,1.0
645,1437236142624,1.0
646,1437236142644,1.0
647,1437236142669,1.0
648,1437236142686,1.0
649,1437236142703,1.0
650,1437236142724,1.0
651,1437236142744,1.0
652,1437236142764,1.0
653,1437236142785,1.0
654,1437236142807,1.0
655,1437236142826,1.0
656,1437236142845,1.0
657,1437236142867,1.0
658,1437236142883,1.0
659,1437236142904,1.0
660,1437236142925,1.0
661,1437236142949,1.0
662,1437236142967,1.0
663,1437236142983,1.0
664,1437236143004,1.0
665,1437236143024,1.0
666,1437236143045,1.0
667,1437236143069,1.0
668,1437236143090,1.0
669,1437236143107,1.0
670,1437236143151,1.0
671,1437236143152,1.0
672,1437236143166,1.0
673,1437236143185,1.0
674,1437236143205,1.0
675,1437236143224,1.0
676,1437236143243,1.0
677,1437236143264,1.0
678,1437236143285,1.0
679,1437236143307,1.0
680,1437236143328,1.0
681,1437236143346,1.0
682,1437236143366,1.0
683,1437236143384,1.0
684,1437236143404,1.0
685,1437236143425,1.0
686,1437236143446,1.0
687,1437236143466,1.0
688,1437236143485,1.0
689,1437236143511,1.0
690,1437236143526,1.0
691,1437236143548,1.0
692,1437236143566,1.0
693,1437236143585,1.0
694,1437236143605,1.0
695,1437236143628,1.0
696,1437236143651,1.0
697,1437236143674,1.0
698,1437236143687,1.0
699,1437236143705,1.0
700,1437236143724,1.0
701,1437236143745,1.0
702,1437236143765,1.0
703,1437236143787,1.0
704,1437236143855,1.0
705,1437236143856,1.0
706,1437236143857,1.0
707,1437236143865,1.0
708,1437236143886,1.0
709,1437236143908,1.0
710,1437236143925,1.0
711,1437236143946,1.0
712,1437236145331,1.0
713,1437236145332,1.0
714,1437236145333,1.0
715,1437236145334,1.0
716,1437236145335,1.0
717,1437236145336,1.0
718,1437236145337,1.0
719,1437236145338,1.0
720,1437236145339,1.0
721,1437236145340,1.0
722,1437236145341,1.0
723,1437236145342,1.0
724,1437236145343,1.0
725,1437236145344,1.0
726,1437236145345,1.0
727,1437236145346,1.0
728,1437236145347,1.0
729,1437236145348,1.0
730,1437236145349,1.0
731,1437236145350,1.0
732,1437236145351,1.0
733,1437236145352,1.0
734,1437236145353,1.0
735,1437236145354,1.0
736,1437236145355,1.0
737,1437236145356,1.0
738,1437236145357,1.0
739,1437236145358,1.0
740,1437236145359,1.0
741,1437236145360,1.0
742,1437236145361,1.0
743,1437236145362,1.0
744,1437236145363,1.0
745,1437236145364,1.0
746,1437236145365,1.0
747,1437236145366,1.0
748,1437236145367,1.0
749,1437236145368,1.0
750,1437236145369,1.0
751,1437236145370,1.0
752,1437236145371,1.0
753,1437236145372,1.0
754,1437236145373,1.0
755,1437236145374,1.0
756,1437236145375,1.0
757,1437236145376,1.0
758,1437236145377,1.0
759,1437236145378,1.0
760,1437236145379,1.0
761,1437236145380,1.0
762,1437236145381,1.0
763,1437236145382,1.0
764,1437236145383,1.0
765,1437236145384,1.0
766,1437236145385,1.0
767,1437236145386,1.0
768,1437236145387,1.0
769,1437236145388,1.0
770,1437236145389,1.0
771,1437236145390,1.0
772,1437236145391,1.0
773,1437236145392,1.0
774,1437236145393,1.0
775,1437236145394,1.0
776,1437236145395,1.0
777,1437236145396,1.0
778,1437236145397,1.0
779,1437236145398,1.0
780,1437236145399,1.0
781,1437236145400,1.0
782,1437236145401,1.0
783,1437236145402,1.0
784,1437236145405,1.0
785,1437236145425,1.0
786,1437236145445,1.0
787,1437236145465,1.0
788,1437236145485,1.0
789,1437236145505,1.0
790,1437236145525,1.0
791,1437236145545,1.0
792,1437236145565,1.0
793,1437236145588,1.0
794,1437236145608,1.0
795,1437236145627,1.0
796,1437236145647,1.0
797,1437236145666,1.0
798,1437236145687,1.0
799,1437236145707,1.0
800,1437236145727,1.0
801,1437236145749,1.0
802,1437236145767,0.0
803,1437236145786,1.0
804,1437236145807,1.0
805,1437236145827,1.0
806,1437236145847,1.0
807,1437236145869,1.0
808,1437236145889,1.0
809,1437236145959,1.0
810,1437236145960,1.0
811,1437236145961,1.0
812,1437236145968,1.0
813,1437236145991,1.0
814,1437236146007,1.0
815,1437236146031,1.0
816,1437236146048,1.0
817,1437236146067,1.0
818,1437236146088,1.0
819,1437236146108,1.0
820,1437236146128,1.0
821,1437236146147,1.0
822,1437236146169,1.0
823,1437236146189,1.0
824,1437236146208,1.0
825,1437236146227,1.0
826,1437236146247,1.0
827,1437236146268,1.0
828,1437236146289,1.0
829,1437236146309,1.0
830,1437236146328,1.0
831,1437236146353,1.0
832,1437236146368,1.0
833,1437236146388,1.0
834,1437236146408,1.0
835,1437236146427,1.0
836,1437236146448,1.0
837,1437236146467,1.0
838,1437236146489,1.0
839,1437236146509,1.0
840,1437236146527,1.0
841,1437236146547,1.0
842,1437236146567,1.0
843,1437236146589,1.0
844,1437236146688,1.0
845,1437236146689,1.0
846,1437236146690,1.0
847,1437236146691,1.0
848,1437236146692,1.0
849,1437236146709,1.0
850,1437236146729,1.0
851,1437236146749,1.0
852,1437236146768,1.0
853,1437236146788,1.0
854,1437236146807,1.0
855,1437236146828,1.0
856,1437236146852,1.0
857,1437236146870,1.0
858,1437236146888,1.0
859,1437236146908,1.0
860,1437236146928,1.0
861,1437236146947,1.0
862,1437236147004,1.0
863,1437236147005,1.0
864,1437236147009,1.0
865,1437236147028,1.0
866,1437236147048,1.0
867,1437236147077,1.0
868,1437236147088,1.0
869,1437236147108,1.0
870,1437236147128,1.0
871,1437236147148,1.0
872,1437236147168,1.0
873,1437236147189,1.0
874,1437236147208,1.0
875,1437236147228,1.0
876,1437236147248,1.0
877,1437236147271,1.0
878,1437236147288,1.0
879,1437236147310,1.0
880,1437236147361,1.0
881,1437236147362,1.0
882,1437236147369,1.0
883,1437236147396,1.0
884,1437236147407,1.0
885,1437236147428,1.0
886,1437236147448,1.0
887,1437236147467,1.0
888,1437236147489,1.0
889,1437236147507,1.0
890,1437236147527,1.0
891,1437236147547,1.0
892,1437236147567,1.0
893,1437236147587,1.0
894,1437236147607,1.0
895,1437236147627,1.0
896,1437236147647,1.0
897,1437236147667,1.0
898,1437236147687,1.0
899,1437236147707,1.0
900,1437236147727,1.0
901,1437236147747,1.0
902,1437236147767,1.0
903,1437236147789,1.0
904,1437236147812,1.0
905,1437236147833,1.0
906,1437236147853,1.0
907,1437236147874,1.0
908,1437236147891,1.0
909,1437236147908,1.0
910,1437236147928,1.0
911,1437236147948,1.0
912,1437236147971,1.0
