id,attr_time,attr_light
1,1437236129743,0.0
2,1437236129744,0.0
3,1437236129745,0.0
4,1437236129754,0.0
5,1437236129779,0.0
6,1437236129794,0.0
7,1437236129815,0.0
8,1437236129836,0.0
9,1437236129854,0.0
10,1437236129875,0.0
11,1437236129895,0.0
12,1437236129916,0.0
13,1437236129933,0.0
14,1437236129957,0.0
15,1437236129976,0.0
16,1437236129995,0.0
17,1437236130014,0.0
18,1437236130035,0.0
19,1437236130055,0.0
20,1437236130076,0.0
21,1437236130097,0.0
22,1437236130115,0.0
23,1437236130136,0.0
24,1437236130157,0.0
25,1437236130176,0.0
26,1437236130195,0.0
27,1437236130215,0.0
28,1437236130237,0.0
29,1437236130257,0.0
30,1437236130277,0.0
31,1437236130298,0.0
32,1437236130315,0.0
33,1437236130336,0.0
34,1437236130356,0.0
35,1437236130374,0.0
36,1437236130397,0.0
37,1437236130452,0.0
38,1437236130454,0.0
39,1437236130455,0.0
40,1437236130474,0.0
41,1437236130495,0.0
42,1437236130514,0.0
43,1437236130534,0.0
44,1437236130557,0.0
45,1437236130574,0.0
46,1437236130594,0.0
47,1437236130614,0.0
48,1437236130635,0.0
49,1437236130654,0.0
50,1437236130675,0.0
51,1437236130698,0.0
52,1437236130717,0.0
53,1437236130737,0.0
54,1437236130757,0.0
55,1437236130777,0.0
56,1437236130798,0.0
57,1437236130817,0.0
58,1437236130837,0.0
59,1437236130858,0.0
60,1437236130877,0.0
61,1437236130898,0.0
62,1437236130914,0.0
63,1437236130934,0.0
64,1437236130954,0.0
65,1437236130976,0.0
66,1437236130995,0.0
67,1437236131015,0.0
68,1437236131034,0.0
69,1437236131055,0.0
70,1437236131074,0.0
71,1437236131094,0.0
72,1437236131115,0.0
73,1437236131137,0.0
74,1437236131207,0.0
75,1437236131208,0.0
76,1437236131209,0.0
77,1437236131218,0.0
78,1437236131235,0.0
79,1437236131256,0.0
80,1437236131275,0.0
81,1437236131299,0.0
82,1437236131316,0.0
83,1437236131336,0.0
84,1437236131355,0.0
85,1437236131376,0.0
86,1437236131397,0.0
87,1437236131418,0.0
88,1437236131437,0.0
89,1437236131457,0.0
90,1437236131478,0.0
91,1437236131498,0.0
92,1437236131518,0.0
93,1437236131538,0.0
94,1437236131558,0.0
95,1437236131578,0.0
96,1437236131596,0.0
97,1437236131618,0.0
98,1437236131638,0.0
99,1437236131658,0.0
100,1437236131677,0.0
101,1437236131698,0.0
102,1437236131718,0.0
103,1437236131738,0.0
104,1437236131758,0.0
105,1437236131777,0.0
106,1437236131798,0.0
107,1437236131815,0.0
108,1437236131837,0.0
109,1437236131855,0.0
110,1437236131878,0.0
111,1437236131942,0.0
112,1437236131943,0.0
113,1437236131944,0.0
114,1437236131956,0.0
115,1437236131989,0.0
116,1437236132076,0.0
117,1437236132077,0.0
118,1437236132078,0.0
119,1437236132079,0.0
120,1437236132080,0.0
121,1437236132095,0.0
122,1437236132116,0.0
123,1437236132140,0.0
124,1437236132156,0.0
125,1437236132177,0.0
126,1437236132198,0.0
127,1437236132218,0.0
128,1437236132238,0.0
129,1437236132258,0.0
130,1437236132276,0.0
131,1437236132297,0.0
132,1437236132318,0.0
133,1437236132338,0.0
134,1437236132358,0.0
135,1437236132377,0.0
136,1437236132399,0.0
137,1437236132419,0.0
138,1437236132445,0.0
139,1437236132457,0.0
140,1437236132479,0.0
141,1437236132498,0.0
142,1437236132518,0.0
143,1437236132538,0.0
144,1437236132557,0.0
145,1437236132579,0.0
146,1437236132597,0.0
147,1437236132616,0.0
148,1437236132645,0.0
149,1437236132702,0.0
150,1437236132703,0.0
151,1437236132704,0.0
152,1437236132723,0.0
153,1437236132736,0.0
154,1437236132764,0.0
155,1437236132777,0.0
156,1437236132798,0.0
157,1437236132817,0.0
158,1437236132837,0.0
159,1437236132857,0.0
160,1437236132877,0.0
161,1437236132899,0.0
162,1437236132919,0.0
163,1437236132939,0.0
164,1437236132960,0.0
165,1437236132976,0.0
166,1437236133001,0.0
167,1437236133018,0.0
168,1437236133039,0.0
169,1437236133056,0.0
170,1437236133078,0.0
171,1437236133098,0.0
172,1437236133120,0.0
173,1437236133140,0.0
174,1437236133160,0.0
175,1437236133176,0.0
176,1437236133198,0.0
177,1437236133219,0.0
178,1437236133239,0.0
179,1437236133274,0.0
180,1437236133276,0.0
181,1437236133296,0.0
182,1437236133316,0.0
183,1437236133337,0.0
184,1437236133357,0.0
185,1437236133376,0.0
186,1437236133410,0.0
187,1437236133422,0.0
188,1437236133437,0.0
189,1437236133457,0.0
190,1437236133477,0.0
191,1437236133497,0.0
192,1437236133517,0.0
193,1437236133544,0.0
194,1437236133557,0.0
195,1437236133578,0.0
196,1437236133600,0.0
197,1437236133616,0.0
198,1437236133638,0.0
199,1437236133659,0.0
200,1437236133679,0.0
201,1437236133697,0.0
202,1437236133718,0.0
203,1437236133737,0.0
204,1437236133758,0.0
205,1437236133777,0.0
206,1437236133798,0.0
207,1437236133818,0.0
208,1437236133837,0.0
209,1437236133858,0.0
210,1437236133877,0.0
211,1437236133897,0.0
212,1437236133917,0.0
213,1437236133943,0.0
214,1437236133963,0.0
215,1437236133978,0.0
216,1437236133999,1.0
217,1437236134018,1.0
218,1437236134038,1.0
219,1437236134057,1.0
220,1437236134160,1.0
221,1437236134161,1.0
222,1437236134162,1.0
223,1437236134163,1.0
224,1437236134164,1.0
225,1437236134180,0.0
226,1437236134211,0.0
227,1437236134231,0.0
228,1437236134237,0.0
229,1437236134271,0.0
230,1437236134277,0.0
231,1437236134298,0.0
232,1437236134319,0.0
233,1437236134339,0.0
234,1437236134358,0.0
235,1437236134381,0.0
236,1437236134401,0.0
237,1437236134419,0.0
238,1437236134441,0.0
239,1437236134459,0.0
240,1437236134479,0.0
241,1437236134501,0.0
242,1437236134519,0.0
243,1437236134540,0.0
244,1437236134558,0.0
245,1437236134579,0.0
246,1437236134600,0.0
247,1437236134620,0.0
248,1437236134639,0.0
249,1437236134660,0.0
250,1437236134682,0.0
251,1437236134700,1.0
252,1437236134722,1.0
253,1437236134740,1.0
254,1437236134761,1.0
255,1437236134779,1.0
256,1437236134800,1.0
257,1437236134822,1.0
258,1437236134891,1.0
259,1437236134892,1.0
260,1437236134893,1.0
261,1437236134902,1.0
262,1437236134920,1.0
263,1437236134942,1.0
264,1437236134960,1.0
265,1437236134979,1.0
266,1437236134999,1.0
267,1437236135019,1.0
268,1437236135038,1.0
269,1437236135063,1.0
270,1437236135083,1.0
271,1437236135100,1.0
272,1437236135123,1.0
273,1437236135141,1.0
274,1437236135163,1.0
275,1437236135183,1.0
276,1437236135201,1.0
277,1437236135222,1.0
278,1437236135243,1.0
279,1437236135261,1.0
280,1437236135282,1.0
281,1437236135301,1.0
282,1437236135322,1.0
283,1437236135341,1.0
284,1437236135365,1.0
285,1437236135385,1.0
286,1437236135405,1.0
287,1437236135421,1.0
288,1437236135439,1.0
289,1437236135468,2.0
290,1437236135479,2.0
291,1437236135505,2.0
292,1437236135525,2.0
293,1437236135545,2.0
294,1437236135560,2.0
295,1437236135591,2.0
296,1437236135657,2.0
297,1437236135659,2.0
298,1437236135660,2.0
299,1437236135661,2.0
300,1437236135681,2.0
301,1437236135701,2.0
302,1437236135719,2.0
303,1437236135739,2.0
304,1437236135759,2.0
305,1437236135795,2.0
306,1437236135802,2.0
307,1437236135819,2.0
308,1437236135845,2.0
309,1437236135864,1.0
310,1437236135880,1.0
311,1437236135903,1.0
312,1437236135923,1.0
313,1437236135943,1.0
314,1437236135962,1.0
315,1437236135983,1.0
316,1437236136001,1.0
317,1437236136023,1.0
318,1437236136042,1.0
319,1437236136063,1.0
320,1437236136084,1.0
321,1437236136100,1.0
322,1437236136123,1.0
323,1437236136143,1.0
324,1437236136163,1.0
325,1437236136183,1.0
326,1437236136204,1.0
327,1437236136223,1.0
328,1437236136243,1.0
329,1437236136263,1.0
330,1437236136283,1.0
331,1437236136304,1.0
332,1437236136324,1.0
333,1437236136342,1.0
334,1437236136365,1.0
335,1437236136441,1.0
336,1437236136442,1.0
337,1437236136443,1.0
338,1437236136444,1.0
339,1437236136464,1.0
340,1437236136481,1.0
341,1437236136502,1.0
342,1437236136520,1.0
343,1437236136541,1.0
344,1437236136561,1.0
345,1437236136585,1.0
346,1437236136601,1.0
347,1437236136626,1.0
348,1437236136643,1.0
349,1437236136664,1.0
350,1437236136684,1.0
351,1437236136703,1.0
352,1437236136723,1.0
353,1437236136743,1.0
354,1437236136764,1.0
355,1437236136783,1.0
356,1437236136803,1.0
357,1437236136822,1.0
358,1437236136841,1.0
359,1437236136864,1.0
360,1437236136882,1.0
361,1437236136902,1.0
362,1437236136921,1.0
363,1437236136944,1.0
364,1437236136969,1.0
365,1437236136984,1.0
366,1437236137003,1.0
367,1437236137023,1.0
368,1437236137047,1.0
369,1437236137070,1.0
370,1437236137081,1.0
371,1437236137103,1.0
372,1437236137182,1.0
373,1437236137183,1.0
374,1437236137184,1.0
375,1437236137185,1.0
376,1437236137201,1.0
377,1437236137224,1.0
378,1437236137241,1.0
379,1437236137267,1.0
380,1437236137282,1.0
381,1437236137303,1.0
382,1437236137323,1.0
383,1437236137343,1.0
384,1437236137366,1.0
385,1437236137384,1.0
386,1437236137404,1.0
387,1437236137424,1.0
388,1437236137444,1.0
389,1437236137464,1.0
390,1437236137481,1.0
391,1437236137504,1.0
392,1437236137524,1.0
393,1437236137544,1.0
394,1437236137563,1.0
395,1437236137582,1.0
396,1437236137607,1.0
397,1437236137624,1.0
398,1437236137644,1.0
399,1437236137664,1.0
400,1437236137684,1.0
401,1437236137704,1.0
402,1437236137724,1.0
403,1437236137750,1.0
404,1437236137761,1.0
405,1437236137781,1.0
406,1437236137801,1.0
407,1437236137823,1.0
408,1437236137842,1.0
409,1437236137861,1.0
410,1437236137885,1.0
411,1437236137901,1.0
412,1437236137921,1.0
413,1437236137941,1.0
414,1437236137968,1.0
415,1437236137984,1.0
416,1437236138003,1.0
417,1437236138023,1.0
418,1437236138043,1.0
419,1437236138061,1.0
420,1437236138080,1.0
421,1437236138100,1.0
422,1437236138120,1.0
423,1437236138140,1.0
424,1437236138161,1.0
425,1437236138184,1.0
426,1437236138205,1.0
427,1437236138225,1.0
428,1437236138245,1.0
429,1437236138264,1.0
430,1437236138284,1.0
431,1437236138304,1.0
432,1437236138325,1.0
433,1437236138342,1.0
434,1437236138363,1.0
435,1437236138385,1.0
436,1437236138402,1.0
437,1437236138422,1.0
438,1437236138441,1.0
439,1437236138465,1.0
440,1437236138482,1.0
441,1437236138506,1.0
442,1437236138525,1.0
443,1437236138552,1.0
444,1437236138561,1.0
445,1437236138582,1.0
446,1437236138613,1.0
447,1437236138696,1.0
448,1437236138697,1.0
449,1437236138698,1.0
450,1437236138699,1.0
451,1437236138704,1.0
452,1437236138724,1.0
453,1437236138743,1.0
454,1437236138763,1.0
455,1437236138783,1.0
456,1437236138802,1.0
457,1437236138824,1.0
458,1437236138843,1.0
459,1437236138863,1.0
460,1437236138882,1.0
461,1437236138902,1.0
462,1437236138925,1.0
463,1437236138946,1.0
464,1437236138963,1.0
465,1437236139050,1.0
466,1437236139051,1.0
467,1437236139052,1.0
468,1437236139053,1.0
469,1437236139105,1.0
470,1437236139106,1.0
471,1437236139107,1.0
472,1437236139121,1.0
473,1437236139150,1.0
474,1437236139162,1.0
475,1437236139184,1.0
476,1437236139203,1.0
477,1437236139223,1.0
478,1437236139244,1.0
479,1437236139263,1.0
480,1437236139282,1.0
481,1437236139303,1.0
482,1437236139323,1.0
483,1437236139342,1.0
484,1437236139362,1.0
485,1437236139409,1.0
486,1437236139410,1.0
487,1437236139422,1.0
488,1437236139442,1.0
489,1437236139462,1.0
490,1437236139484,1.0
491,1437236139503,1.0
492,1437236139524,1.0
493,1437236139542,1.0
494,1437236139565,1.0
495,1437236139584,1.0
496,1437236139605,1.0
497,1437236139623,1.0
498,1437236139646,1.0
499,1437236139666,1.0
500,1437236139686,1.0
501,1437236139705,1.0
502,1437236139725,1.0
503,1437236139746,1.0
504,1437236139764,1.0
505,1437236139786,1.0
506,1437236139806,1.0
507,1437236139826,1.0
508,1437236139846,1.0
509,1437236139865,1.0
510,1437236139886,1.0
511,1437236139904,1.0
512,1437236139924,1.0
513,1437236139945,1.0
514,1437236139966,1.0
515,1437236139985,1.0
516,1437236140002,1.0
517,1437236140072,1.0
518,1437236140073,1.0
519,1437236140074,1.0
520,1437236140086,1.0
521,1437236140103,1.0
522,1437236140125,1.0
523,1437236140143,1.0
524,1437236140165,1.0
525,1437236140184,1.0
526,1437236140209,1.0
527,1437236140224,1.0
528,1437236140246,1.0
529,1437236140264,1.0
530,1437236140286,1.0
531,1437236140304,1.0
532,1437236140327,1.0
533,1437236140347,1.0
534,1437236140366,1.0
535,1437236140387,1.0
536,1437236140407,1.0
537,1437236140427,1.0
538,1437236140444,1.0
539,1437236140468,1.0
540,1437236140490,1.0
541,1437236140507,1.0
542,1437236140527,1.0
543,1437236140545,1.0
544,1437236140567,1.0
545,1437236140586,1.0
546,1437236140607,1.0
547,1437236140627,1.0
548,1437236140645,1.0
549,1437236140664,1.0
550,1437236140684,1.0
551,1437236140716,1.0
552,1437236140804,1.0
553,1437236140805,1.0
554,1437236140806,1.0
555,1437236140807,1.0
556,1437236140808,1.0
557,1437236140824,1.0
558,1437236140845,1.0
559,1437236140865,1.0
560,1437236140888,1.0
561,1437236140904,1.0
562,1437236140924,1.0
563,1437236140954,1.0
564,1437236140967,1.0
565,1437236140990,1.0
566,1437236141010,1.0
567,1437236141025,1.0
568,1437236141046,1.0
569,1437236141068,1.0
570,1437236141086,1.0
571,1437236141107,1.0
572,1437236141127,1.0
573,1437236141148,1.0
574,1437236141168,1.0
575,1437236141185,1.0
576,1437236141207,1.0
577,1437236141227,1.0
578,1437236141247,1.0
579,1437236141266,1.0
580,1437236141286,1.0
581,1437236141307,1.0
582,1437236141327,1.0
583,1437236141347,1.0
584,1437236141367,1.0
585,1437236141387,1.0
586,1437236141406,1.0
587,1437236141426,1.0
588,1437236141445,1.0
589,1437236141468,1.0
590,1437236141529,1.0
591,1437236141540,1.0
592,1437236141541,1.0
593,1437236141545,1.0
594,1437236141565,1.0
595,1437236141589,1.0
596,1437236141604,1.0
597,1437236141625,1.0
598,1437236141647,1.0
599,1437236141666,1.0
600,1437236141685,1.0
601,1437236141706,1.0
602,1437236141728,1.0
603,1437236141747,1.0
604,1437236141768,1.0
605,1437236141785,1.0
606,1437236141807,1.0
607,1437236141827,1.0
608,1437236141847,1.0
609,1437236141868,1.0
610,1437236141887,1.0
611,1437236141907,1.0
612,1437236141928,1.0
613,1437236141946,1.0
614,1437236141967,1.0
615,1437236141985,1.0
616,1437236142010,1.0
617,1437236142025,1.0
618,1437236142049,1.0
619,1437236142069,1.0
620,1437236142090,1.0
621,1437236142108,1.0
622,1437236142126,1.0
623,1437236142145,1.0
624,1437236142166,1.0
625,1437236142187,1.0
626,1437236142205,1.0
627,1437236142275,1.0
628,1437236142276,1.0
629,1437236142277,1.0
630,1437236142285,1.0
631,1437236142315,1.0
632,1437236142327,1.0
633,1437236142345,1.0
634,1437236142367,1.0
635,1437236142386,1.0
636,1437236142407,1.0
637,1437236142426,1.0
638,1437236142448,1.0
639,1437236142468,1.0
640,1437236142488,1.0
641,1437236142506,1.0
642,1437236142526,1.0
643,1437236142548,1.0
644,1437236142568,1.0
645,1437236142588,1.0
646,1437236142608,1.0
647,1437236142628,1.0
648,1437236142648,1.0
649,1437236142667,1.0
650,1437236142688,1.0
651,1437236142708,1.0
652,1437236142728,1.0
653,1437236142746,1.0
654,1437236142770,1.0
655,1437236142791,1.0
656,1437236142810,1.0
657,1437236142828,1.0
658,1437236142846,1.0
659,1437236142866,1.0
660,1437236142885,1.0
661,1437236142907,1.0
662,1437236142928,1.0
663,1437236143111,1.0
664,1437236143112,1.0
665,1437236143113,1.0
666,1437236143114,1.0
667,1437236143115,1.0
668,1437236143116,1.0
669,1437236143117,1.0
670,1437236143118,1.0
671,1437236143119,1.0
672,1437236143127,1.0
673,1437236143146,1.0
674,1437236143179,1.0
675,1437236143186,1.0
676,1437236143206,1.0
677,1437236143226,1.0
678,1437236143246,1.0
679,1437236143266,1.0
680,1437236143288,1.0
681,1437236143306,1.0
682,1437236143326,1.0
683,1437236143346,1.0
684,1437236143366,1.0
685,1437236143386,1.0
686,1437236143406,1.0
687,1437236143426,1.0
688,1437236143448,1.0
689,1437236143470,1.0
690,1437236143488,1.0
691,1437236143506,1.0
692,1437236143533,1.0
693,1437236143548,1.0
694,1437236143567,1.0
695,1437236143587,1.0
696,1437236143606,1.0
697,1437236143626,1.0
698,1437236143652,1.0
699,1437236143668,1.0
700,1437236143687,1.0
701,1437236143709,1.0
702,1437236143727,1.0
703,1437236143787,1.0
704,1437236143788,1.0
705,1437236143789,1.0
706,1437236143806,1.0
707,1437236143826,1.0
708,1437236143846,1.0
709,1437236143866,1.0
710,1437236143886,1.0
711,1437236143908,1.0
712,1437236143930,1.0
713,1437236143951,1.0
714,1437236143966,1.0
715,1437236143989,1.0
716,1437236144007,1.0
717,1437236144029,1.0
718,1437236144049,1.0
719,1437236144068,1.0
720,1437236144114,1.0
721,1437236144115,1.0
722,1437236144129,1.0
723,1437236144151,1.0
724,1437236144169,1.0
725,1437236144189,1.0
726,1437236144209,1.0
727,1437236144229,1.0
728,1437236144250,1.0
729,1437236144271,1.0
730,1437236144291,1.0
731,1437236144309,1.0
732,1437236144329,1.0
733,1437236144348,1.0
734,1437236144368,1.0
735,1437236144388,1.0
736,1437236144418,1.0
737,1437236144427,1.0
738,1437236144447,1.0
739,1437236144469,1.0
740,1437236144489,1.0
741,1437236144509,1.0
742,1437236144528,1.0
743,1437236144548,1.0
744,1437236144567,1.0
745,1437236144591,1.0
746,1437236144608,1.0
747,1437236144627,1.0
748,1437236144653,1.0
749,1437236144670,1.0
750,1437236144691,1.0
751,1437236144711,1.0
752,1437236144728,1.0
753,1437236144751,1.0
754,1437236144771,1.0
755,1437236144794,1.0
756,1437236144811,1.0
757,1437236144828,1.0
758,1437236144848,1.0
759,1437236144874,1.0
760,1437236144888,1.0
761,1437236144908,1.0
762,1437236144928,1.0
763,1437236144951,1.0
764,1437236144970,1.0
765,1437236145000,1.0
766,1437236145010,1.0
767,1437236145033,1.0
768,1437236145053,1.0
769,1437236145118,1.0
770,1437236145119,1.0
771,1437236145120,1.0
772,1437236145129,1.0
773,1437236145157,1.0
774,1437236145176,1.0
775,1437236145200,1.0
776,1437236145208,1.0
777,1437236145229,1.0
778,1437236145249,1.0
779,1437236145270,1.0
780,1437236145290,1.0
781,1437236145309,1.0
782,1437236145332,1.0
783,1437236145351,1.0
784,1437236145368,1.0
785,1437236145390,1.0
786,1437236145412,1.0
787,1437236145430,1.0
788,1437236145452,1.0
789,1437236145469,1.0
790,1437236145494,1.0
791,1437236145515,1.0
792,1437236145530,1.0
793,1437236145550,1.0
794,1437236145569,1.0
795,1437236145591,1.0
796,1437236145609,1.0
797,1437236145629,1.0
798,1437236145650,1.0
799,1437236145669,1.0
800,1437236145691,1.0
801,1437236145711,1.0
802,1437236145729,1.0
803,1437236145754,1.0
804,1437236145879,1.0
805,1437236145880,1.0
806,1437236145881,1.0
807,1437236145882,1.0
808,1437236145883,1.0
809,1437236145884,1.0
810,1437236145896,1.0
811,1437236145930,1.0
812,1437236145931,1.0
813,1437236145951,1.0
814,1437236145969,1.0
815,1437236145999,1.0
816,1437236146010,1.0
817,1437236146031,1.0
818,1437236146049,1.0
819,1437236146070,1.0
820,1437236146093,1.0
821,1437236146113,1.0
822,1437236146132,1.0
823,1437236146152,1.0
824,1437236146170,1.0
825,1437236146193,1.0
826,1437236146213,1.0
827,1437236146232,1.0
828,1437236146252,1.0
829,1437236146271,1.0
830,1437236146294,1.0
831,1437236146313,1.0
832,1437236146335,1.0
833,1437236146355,1.0
834,1437236146374,1.0
835,1437236146393,1.0
836,1437236146409,1.0
837,1437236146429,1.0
838,1437236146449,1.0
839,1437236146474,1.0
840,1437236146496,1.0
841,1437236146519,1.0
842,1437236146532,1.0
843,1437236146559,1.0
844,1437236146607,1.0
845,1437236146621,1.0
846,1437236146622,1.0
847,1437236146633,1.0
848,1437236146660,1.0
849,1437236146672,1.0
850,1437236146689,1.0
851,1437236146713,1.0
852,1437236146730,1.0
853,1437236146751,1.0
854,1437236146770,1.0
855,1437236146793,1.0
856,1437236146810,1.0
857,1437236146833,1.0
858,1437236146853,1.0
859,1437236146873,1.0
860,1437236146893,1.0
861,1437236146913,1.0
862,1437236146933,1.0
863,1437236146955,1.0
864,1437236146970,1.0
865,1437236146993,1.0
866,1437236147010,1.0
867,1437236147032,1.0
868,1437236147050,1.0
869,1437236147071,1.0
870,1437236147093,1.0
871,1437236147114,1.0
872,1437236147133,1.0
873,1437236147154,1.0
874,1437236147174,1.0
875,1437236147193,1.0
876,1437236147212,1.0
877,1437236147232,1.0
878,1437236147253,1.0
879,1437236147278,1.0
880,1437236147344,1.0
881,1437236147345,1.0
882,1437236147346,1.0
883,1437236147353,1.0
884,1437236147371,1.0
885,1437236147393,1.0
886,1437236147410,1.0
887,1437236147436,1.0
888,1437236147462,1.0
889,1437236147473,1.0
890,1437236147497,1.0
891,1437236147511,1.0
892,1437236147531,1.0
893,1437236147553,1.0
894,1437236147574,1.0
895,1437236147593,1.0
896,1437236147614,1.0
897,1437236147631,1.0
898,1437236147650,1.0
899,1437236147676,1.0
900,1437236147693,1.0
901,1437236147715,1.0
902,1437236147732,1.0
903,1437236147754,1.0
904,1437236147771,1.0
905,1437236147793,1.0
906,1437236147810,1.0
907,1437236147836,1.0
908,1437236147856,1.0
909,1437236147877,1.0
910,1437236147894,1.0
911,1437236147910,1.0
912,1437236147931,1.0
