id,attr_time,attr_x,attr_y,attr_z
1,1436894934818,-6.716,-43.447,16.41
2,1436894934841,-6.716,-43.447,16.41
3,1436894934858,-6.716,-43.447,16.41
4,1436894934877,-6.716,-43.447,16.41
5,1436894934898,-6.716,-43.447,16.41
6,1436894934917,-6.716,-43.447,16.41
7,1436894934938,-6.716,-43.447,16.41
8,1436894934963,-6.716,-43.447,16.41
9,1436894934977,-6.716,-43.447,16.41
10,1436894934999,-6.716,-43.447,16.41
11,1436894935020,-6.716,-43.447,16.41
12,1436894935037,-6.716,-43.447,16.41
13,1436894935058,-6.716,-43.447,16.41
14,1436894935078,-6.716,-43.447,16.41
15,1436894935115,-6.716,-43.447,16.41
16,1436894935121,-6.716,-43.447,16.41
17,1436894935137,-6.716,-43.447,16.41
18,1436894935160,-6.716,-43.447,16.41
19,1436894935177,-6.716,-43.447,16.41
20,1436894935199,-6.716,-43.447,16.41
21,1436894935218,-6.716,-43.447,16.41
22,1436894935239,-6.716,-43.447,16.41
23,1436894935259,-6.716,-43.447,16.41
24,1436894935282,-6.716,-43.447,16.41
25,1436894935299,-6.716,-43.447,16.41
26,1436894935318,-6.716,-43.138,16.41
27,1436894935338,-6.716,-43.138,16.41
28,1436894935360,-6.716,-43.138,16.41
29,1436894935381,-6.716,-43.138,16.41
30,1436894935400,-6.716,-43.138,16.41
31,1436894935420,-6.716,-43.138,16.41
32,1436894935439,-6.716,-43.138,16.41
33,1436894935460,-6.716,-43.138,16.41
34,1436894935480,-6.716,-43.138,16.41
35,1436894935503,-6.716,-43.138,16.41
36,1436894935520,-6.716,-43.138,16.41
37,1436894935541,-6.716,-43.138,16.41
38,1436894935558,-6.716,-43.138,16.41
39,1436894935582,-6.716,-43.138,16.41
40,1436894935604,-6.716,-43.138,16.41
41,1436894935621,-6.716,-43.138,16.41
42,1436894935642,-6.716,-43.138,16.41
43,1436894935662,-6.716,-43.138,16.41
44,1436894935681,-6.716,-43.138,16.41
45,1436894935700,-6.716,-43.138,16.41
46,1436894935720,-6.716,-43.138,16.41
47,1436894935748,-6.716,-43.138,16.41
48,1436894935803,-6.716,-43.138,16.41
49,1436894935804,-6.716,-43.443,16.41
50,1436894935805,-6.716,-43.443,16.41
51,1436894935824,-6.716,-43.443,16.41
52,1436894935839,-6.716,-43.443,16.41
53,1436894935858,-6.716,-43.443,16.41
54,1436894935878,-6.716,-43.443,16.41
55,1436894935899,-6.716,-43.443,16.41
56,1436894935919,-6.716,-43.443,16.41
57,1436894935940,-6.716,-43.443,16.41
58,1436894935959,-6.716,-43.443,16.41
59,1436894935984,-6.716,-43.443,16.41
60,1436894936001,-6.716,-43.443,16.41
61,1436894936020,-6.716,-43.443,16.41
62,1436894936047,-6.716,-43.443,16.41
63,1436894936060,-6.716,-43.443,16.41
64,1436894936082,-6.716,-43.443,16.41
65,1436894936101,-6.716,-43.443,16.41
66,1436894936121,-6.716,-43.443,16.41
67,1436894936141,-6.716,-43.443,16.41
68,1436894936162,-6.716,-43.443,16.41
69,1436894936183,-6.716,-43.443,16.41
70,1436894936202,-6.716,-43.443,16.41
71,1436894936222,-6.716,-43.443,16.41
72,1436894936241,-6.716,-43.443,16.41
73,1436894936263,-6.716,-43.443,16.41
74,1436894936284,-6.716,-43.443,16.41
75,1436894936303,-6.716,-43.443,16.41
76,1436894936321,-6.716,-43.443,16.41
77,1436894936340,-6.716,-43.443,16.41
78,1436894936360,-6.716,-43.443,16.41
79,1436894936380,-6.716,-43.443,16.41
80,1436894936404,-6.716,-43.443,16.41
81,1436894936425,-6.716,-43.443,16.41
82,1436894936444,-6.716,-43.443,16.41
83,1436894936463,-6.716,-43.443,16.41
84,1436894936483,-6.716,-43.443,16.41
85,1436894936557,-6.716,-43.443,16.41
86,1436894936559,-6.716,-43.443,16.41
87,1436894936560,-6.716,-43.443,16.41
88,1436894936561,-6.716,-43.443,16.41
89,1436894936580,-6.716,-43.443,16.41
90,1436894936601,-7.061,-43.443,16.41
91,1436894936619,-7.061,-43.443,16.41
92,1436894936639,-7.061,-43.141,16.41
93,1436894936661,-7.061,-43.141,16.062
94,1436894936681,-7.061,-43.141,16.062
95,1436894936701,-7.061,-43.141,16.062
96,1436894936719,-7.061,-43.141,16.062
97,1436894936745,-7.061,-43.141,16.062
98,1436894936763,-7.371,-42.808,16.062
99,1436894936782,-7.371,-42.808,16.062
100,1436894936803,-7.371,-42.808,16.062
101,1436894936821,-7.371,-42.808,16.062
102,1436894936842,-7.371,-42.808,16.062
103,1436894936863,-7.371,-42.808,16.062
104,1436894936883,-7.371,-42.808,16.062
105,1436894936903,-7.371,-42.808,16.062
106,1436894936922,-7.371,-42.808,16.062
107,1436894936940,-7.371,-42.808,16.062
108,1436894936963,-7.371,-42.808,16.062
109,1436894936986,-7.371,-42.808,16.062
110,1436894937002,-7.371,-42.808,16.062
111,1436894937019,-7.371,-42.808,16.062
112,1436894937046,-7.371,-42.808,16.062
113,1436894937065,-7.371,-42.808,16.062
114,1436894937086,-7.371,-43.153,16.062
115,1436894937104,-7.031,-43.153,16.062
116,1436894937123,-7.031,-43.153,16.062
117,1436894937141,-7.031,-43.153,16.062
118,1436894937160,-7.031,-43.153,16.062
119,1436894937180,-7.031,-43.466,16.062
120,1436894937203,-7.031,-43.466,16.062
121,1436894937220,-7.031,-43.466,16.062
122,1436894937292,-7.031,-43.466,16.062
123,1436894937293,-7.031,-43.466,16.062
124,1436894937294,-7.031,-43.466,16.062
125,1436894937301,-7.031,-43.466,16.062
126,1436894937329,-7.031,-43.466,16.062
127,1436894937341,-7.031,-43.466,16.062
128,1436894937360,-7.031,-43.466,16.062
129,1436894937382,-7.031,-43.466,16.062
130,1436894937400,-7.031,-43.466,16.062
131,1436894937422,-7.031,-43.466,16.062
132,1436894937440,-7.031,-43.466,16.062
133,1436894937463,-7.031,-43.466,16.062
134,1436894937480,-7.031,-43.466,16.062
135,1436894937503,-7.031,-43.466,16.062
136,1436894937522,-7.031,-43.466,16.062
137,1436894937543,-7.031,-43.466,16.062
138,1436894937565,-7.031,-43.466,16.062
139,1436894937580,-7.031,-43.466,16.062
140,1436894937600,-7.031,-43.466,16.062
141,1436894937620,-7.031,-43.466,16.062
142,1436894937642,-7.031,-43.466,16.062
143,1436894937665,-7.031,-43.466,16.062
144,1436894937680,-7.031,-43.466,16.062
145,1436894937703,-7.031,-43.466,16.062
146,1436894937723,-7.031,-43.466,16.062
147,1436894937744,-7.031,-43.466,16.062
148,1436894937764,-7.031,-43.466,16.062
149,1436894937783,-7.031,-43.466,16.062
150,1436894937803,-7.031,-43.466,16.062
151,1436894937823,-7.031,-43.466,16.062
152,1436894937843,-7.031,-43.466,16.062
153,1436894937864,-7.031,-43.466,16.062
154,1436894937884,-7.031,-43.466,16.062
155,1436894937904,-7.031,-43.466,16.062
156,1436894937922,-7.031,-43.466,16.062
157,1436894937942,-7.031,-43.466,16.062
158,1436894938016,-7.031,-43.466,16.062
159,1436894938024,-7.031,-43.466,16.062
160,1436894938047,-7.031,-43.466,16.062
161,1436894938048,-7.031,-43.466,16.062
162,1436894938049,-7.031,-43.466,16.062
163,1436894938067,-7.031,-43.466,16.062
164,1436894938081,-7.031,-43.466,16.062
165,1436894938103,-7.031,-43.466,16.062
166,1436894938121,-7.031,-43.466,16.062
167,1436894938147,-7.031,-43.466,16.062
168,1436894938163,-7.031,-43.466,16.062
169,1436894938183,-7.031,-43.466,16.062
170,1436894938202,-7.031,-43.466,16.062
171,1436894938221,-7.031,-43.466,16.062
172,1436894938244,-7.031,-43.466,16.062
173,1436894938264,-7.031,-43.466,16.062
174,1436894938284,-7.031,-43.466,16.062
175,1436894938304,-7.031,-43.466,16.062
176,1436894938324,-7.031,-43.466,16.062
177,1436894938344,-7.031,-43.466,16.062
178,1436894938364,-7.031,-43.466,16.062
179,1436894938384,-7.031,-43.466,16.062
180,1436894938404,-7.031,-43.466,16.062
181,1436894938424,-7.031,-43.466,16.062
182,1436894938444,-7.031,-43.466,16.062
183,1436894938461,-7.031,-43.466,16.062
184,1436894938484,-7.031,-43.466,16.062
185,1436894938504,-6.715,-43.466,16.062
186,1436894938524,-6.715,-43.466,16.062
187,1436894938544,-6.715,-43.466,16.062
188,1436894938564,-6.715,-43.466,16.062
189,1436894938583,-6.715,-43.466,16.062
190,1436894938604,-6.715,-43.466,16.062
191,1436894938624,-6.715,-43.466,16.062
192,1436894938645,-6.715,-43.466,16.062
193,1436894938665,-6.715,-43.466,16.062
194,1436894938684,-6.715,-43.466,16.062
195,1436894938703,-6.715,-43.466,16.062
196,1436894938724,-6.715,-43.466,16.062
197,1436894938774,-6.715,-43.466,16.062
198,1436894938775,-6.715,-43.466,16.062
199,1436894938786,-6.715,-43.466,16.062
200,1436894938801,-6.715,-43.466,16.062
201,1436894938823,-6.715,-43.466,16.062
202,1436894938845,-6.715,-43.466,16.062
203,1436894938861,-6.715,-43.466,16.062
204,1436894938887,-6.715,-43.466,16.062
205,1436894938903,-6.715,-43.466,16.062
206,1436894938922,-6.715,-43.466,16.062
207,1436894938943,-6.715,-43.466,16.062
208,1436894938963,-6.715,-43.165,16.062
209,1436894938990,-6.715,-43.165,16.062
210,1436894939002,-6.715,-43.165,16.062
211,1436894939024,-6.715,-43.165,16.062
212,1436894939044,-6.715,-43.165,16.062
213,1436894939063,-6.715,-43.165,16.062
214,1436894939083,-6.715,-43.165,16.062
215,1436894939103,-6.715,-43.165,16.062
216,1436894939125,-6.715,-43.165,16.062
217,1436894939145,-6.715,-43.165,16.062
218,1436894939165,-6.715,-43.165,16.062
219,1436894939183,-6.715,-43.165,16.062
220,1436894939204,-6.715,-43.165,16.062
221,1436894939225,-6.715,-43.165,16.062
222,1436894939244,-6.715,-43.165,16.062
223,1436894939263,-6.715,-43.165,16.062
224,1436894939283,-6.715,-43.165,16.062
225,1436894939302,-6.715,-43.165,16.062
226,1436894939325,-6.715,-43.165,16.062
227,1436894939345,-6.715,-43.165,16.062
228,1436894939382,-6.715,-43.165,16.062
229,1436894939383,-6.715,-43.165,16.062
230,1436894939403,-6.715,-43.165,16.062
231,1436894939423,-6.715,-43.165,16.062
232,1436894939442,-6.715,-43.165,16.062
233,1436894939475,-6.715,-43.165,16.062
234,1436894939511,-6.715,-43.165,16.062
235,1436894939512,-6.715,-43.165,16.062
236,1436894939527,-6.715,-43.165,16.062
237,1436894939542,-6.715,-43.165,16.062
238,1436894939562,-6.715,-43.165,16.062
239,1436894939582,-6.715,-43.165,16.062
240,1436894939602,-6.715,-43.165,16.062
241,1436894939623,-6.715,-43.165,16.062
242,1436894939645,-6.715,-43.165,16.062
243,1436894939664,-6.715,-43.165,16.062
244,1436894939684,-6.715,-43.165,16.062
245,1436894939704,-6.715,-43.165,16.062
246,1436894939722,-6.715,-43.165,16.062
247,1436894939745,-6.715,-43.165,16.062
248,1436894939765,-6.715,-43.165,16.062
249,1436894939785,-6.715,-43.165,16.062
250,1436894939805,-6.715,-43.165,16.062
251,1436894939825,-6.715,-43.165,16.062
252,1436894939845,-6.715,-43.165,16.062
253,1436894939865,-6.715,-43.165,16.062
254,1436894939885,-6.715,-43.165,16.062
255,1436894939905,-6.715,-43.165,16.062
256,1436894939925,-6.715,-43.476,16.062
257,1436894939942,-6.715,-43.476,16.062
258,1436894939963,-6.715,-43.476,16.062
259,1436894939987,-6.715,-43.476,16.062
260,1436894940008,-6.715,-43.476,16.062
261,1436894940025,-6.715,-43.476,16.062
262,1436894940043,-6.715,-43.476,16.062
263,1436894940063,-6.715,-43.476,16.062
264,1436894940084,-6.715,-43.476,16.062
265,1436894940103,-6.715,-43.476,16.062
266,1436894940124,-6.715,-43.476,16.062
267,1436894940145,-6.715,-43.476,16.062
268,1436894940165,-6.715,-43.476,16.062
269,1436894940186,-6.715,-43.476,16.062
270,1436894940204,-6.715,-43.476,16.062
271,1436894940264,-6.715,-43.476,16.062
272,1436894940274,-6.715,-43.476,16.062
273,1436894940275,-6.715,-43.476,16.062
274,1436894940283,-6.715,-43.476,16.062
275,1436894940314,-6.715,-43.476,16.062
276,1436894940325,-6.715,-43.476,16.062
277,1436894940344,-6.715,-43.476,16.062
278,1436894940363,-6.715,-43.476,16.062
279,1436894940383,-6.715,-43.476,16.062
280,1436894940407,-6.715,-43.476,16.062
281,1436894940426,-6.715,-43.476,16.062
282,1436894940445,-6.715,-43.476,16.062
283,1436894940466,-6.715,-43.476,16.062
284,1436894940487,-6.715,-43.476,16.062
285,1436894940506,-6.715,-43.476,16.062
286,1436894940526,-6.715,-43.476,16.062
287,1436894940547,-6.715,-43.476,16.062
288,1436894940566,-6.715,-43.476,16.062
289,1436894940586,-6.715,-43.476,16.062
290,1436894940606,-6.715,-43.476,16.062
291,1436894940626,-6.715,-43.476,16.062
292,1436894940646,-6.715,-43.476,16.062
293,1436894940667,-6.715,-43.476,16.062
294,1436894940686,-6.715,-43.476,16.062
295,1436894940704,-6.715,-43.476,16.062
296,1436894940723,-6.715,-43.476,16.062
297,1436894940743,-6.715,-43.476,16.062
298,1436894940769,-6.715,-43.476,16.062
299,1436894940789,-6.715,-43.476,16.062
300,1436894940809,-6.715,-43.476,16.062
301,1436894940826,-6.715,-43.476,16.062
302,1436894940845,-6.715,-43.476,16.062
303,1436894940864,-6.715,-43.476,16.062
304,1436894940884,-6.715,-43.476,16.062
305,1436894940904,-6.715,-43.476,16.062
306,1436894940927,-6.715,-43.476,16.062
307,1436894941010,-6.715,-43.476,16.062
308,1436894941011,-6.715,-43.476,16.062
309,1436894941012,-6.715,-43.476,16.062
310,1436894941013,-6.715,-43.476,16.062
311,1436894941026,-6.715,-43.476,16.062
312,1436894941071,-6.715,-43.476,16.062
313,1436894941072,-6.715,-43.476,16.062
314,1436894941083,-6.715,-43.476,16.062
315,1436894941143,-6.715,-43.476,16.062
316,1436894941144,-6.715,-43.476,16.062
317,1436894941145,-6.715,-43.476,16.062
318,1436894941170,-6.715,-43.476,16.062
319,1436894941185,-6.715,-43.476,16.062
320,1436894941210,-6.715,-43.476,16.062
321,1436894941226,-6.715,-43.476,16.062
322,1436894941244,-6.715,-43.476,16.062
323,1436894941264,-6.715,-43.476,16.062
324,1436894941284,-6.715,-43.476,16.062
325,1436894941376,-6.715,-43.476,16.062
326,1436894941377,-6.715,-43.476,16.062
327,1436894941378,-6.715,-43.476,16.062
328,1436894941379,-6.715,-43.476,16.062
329,1436894941383,-6.715,-43.476,16.062
330,1436894941403,-6.715,-43.476,16.062
331,1436894941423,-6.715,-43.476,16.062
332,1436894941443,-6.715,-43.476,16.062
333,1436894941481,-6.715,-43.476,16.062
334,1436894941483,-6.715,-43.476,16.062
335,1436894941503,-6.715,-43.476,16.062
336,1436894941523,-6.715,-43.476,16.062
337,1436894941543,-6.715,-43.476,16.062
338,1436894941563,-6.715,-43.476,16.062
339,1436894941583,-6.715,-43.476,16.378
340,1436894941603,-6.715,-43.476,16.378
341,1436894941623,-6.715,-43.476,16.378
342,1436894941643,-6.715,-43.476,16.378
343,1436894941663,-6.715,-43.476,16.378
344,1436894941683,-6.715,-43.476,16.378
345,1436894941703,-6.715,-43.476,16.378
346,1436894941723,-6.715,-43.476,16.378
347,1436894941743,-6.715,-43.476,16.378
348,1436894941763,-6.715,-43.476,16.378
349,1436894941783,-6.715,-43.476,16.378
350,1436894941803,-6.715,-43.476,16.378
351,1436894941823,-6.715,-43.476,16.719
352,1436894941843,-6.715,-43.476,16.719
353,1436894941863,-6.715,-43.476,16.719
354,1436894941883,-6.715,-43.476,16.719
355,1436894941903,-6.715,-43.476,16.719
356,1436894941924,-6.715,-43.476,16.719
357,1436894941944,-6.715,-43.476,16.719
358,1436894941965,-6.715,-43.476,16.719
359,1436894941987,-6.715,-43.132,17.039
360,1436894942004,-6.715,-43.132,17.039
361,1436894942024,-6.715,-43.132,17.039
362,1436894942064,-6.715,-43.132,17.039
363,1436894942065,-6.715,-43.132,17.387
364,1436894942088,-6.715,-43.132,17.387
365,1436894942109,-6.715,-43.132,17.387
366,1436894942127,-6.365,-42.823,17.736
367,1436894942144,-6.365,-42.823,17.736
368,1436894942167,-6.365,-42.823,17.736
369,1436894942185,-6.365,-42.823,18.118
370,1436894942206,-6.365,-42.823,18.118
371,1436894942231,-6.028,-42.823,18.118
372,1436894942257,-6.028,-42.823,18.572
373,1436894942308,-6.028,-42.823,18.572
374,1436894942309,-6.028,-42.823,18.937
375,1436894942310,-5.7,-42.823,18.937
376,1436894942325,-5.7,-42.823,19.326
377,1436894942347,-5.7,-42.5,19.326
378,1436894942365,-5.7,-42.5,19.677
379,1436894942385,-5.323,-42.5,19.677
380,1436894942407,-5.323,-42.5,20.051
381,1436894942425,-5.323,-42.5,20.051
382,1436894942453,-5.323,-42.5,20.373
383,1436894942465,-4.943,-42.5,20.373
384,1436894942487,-4.943,-42.131,20.373
385,1436894942507,-4.943,-42.131,20.837
386,1436894942526,-4.943,-42.131,20.837
387,1436894942547,-4.537,-42.131,21.176
388,1436894942567,-4.537,-42.131,21.176
389,1436894942587,-4.537,-42.131,21.176
390,1436894942607,-4.225,-41.786,21.536
391,1436894942627,-4.225,-41.786,21.536
392,1436894942650,-4.225,-41.786,21.536
393,1436894942665,-3.913,-41.786,21.846
394,1436894942686,-3.913,-41.786,21.846
395,1436894942711,-3.913,-41.786,21.846
396,1436894942725,-3.913,-41.786,21.846
397,1436894942750,-3.913,-41.786,21.846
398,1436894942769,-3.581,-41.786,22.154
399,1436894942790,-3.581,-41.786,22.154
400,1436894942808,-3.581,-41.786,22.154
401,1436894942825,-3.581,-41.786,22.154
402,1436894942845,-3.581,-41.468,22.154
403,1436894942865,-3.581,-41.468,22.154
404,1436894942889,-3.581,-41.468,22.154
405,1436894942911,-3.581,-41.468,22.154
406,1436894942925,-3.581,-41.468,22.154
407,1436894942946,-3.581,-41.468,22.154
408,1436894942969,-3.581,-41.468,22.154
409,1436894943046,-3.581,-41.468,22.154
410,1436894943047,-3.581,-41.468,22.154
411,1436894943048,-3.581,-41.468,22.154
412,1436894943049,-3.581,-41.468,22.154
413,1436894943066,-3.581,-41.468,22.154
414,1436894943089,-3.581,-41.468,22.154
415,1436894943105,-3.581,-41.468,22.154
416,1436894943126,-3.581,-41.468,22.154
417,1436894943146,-3.581,-41.468,22.154
418,1436894943168,-3.581,-41.468,22.154
419,1436894943187,-3.581,-41.468,22.154
420,1436894943219,-3.581,-41.468,22.154
421,1436894943227,-3.581,-41.468,22.154
422,1436894943249,-3.581,-41.468,22.154
423,1436894943267,-3.581,-41.468,22.154
424,1436894943287,-3.581,-41.468,22.154
425,1436894943307,-3.581,-41.468,22.154
426,1436894943328,-3.581,-41.468,22.154
427,1436894943349,-3.581,-41.468,22.154
428,1436894943369,-3.581,-41.468,22.154
429,1436894943387,-3.581,-41.468,22.154
430,1436894943406,-3.581,-41.468,22.154
431,1436894943429,-3.581,-41.468,22.154
432,1436894943448,-3.581,-41.468,22.154
433,1436894943469,-3.581,-41.468,22.154
434,1436894943487,-3.581,-41.468,22.499
435,1436894943507,-3.581,-41.468,22.499
436,1436894943529,-3.581,-41.468,22.499
437,1436894943547,-3.581,-41.468,22.499
438,1436894943569,-3.581,-41.468,22.814
439,1436894943588,-3.581,-41.468,22.814
440,1436894943608,-3.581,-41.468,22.814
441,1436894943628,-3.581,-41.468,22.814
442,1436894943648,-3.581,-41.468,23.153
443,1436894943666,-3.581,-41.125,23.153
444,1436894943687,-3.581,-41.125,23.153
445,1436894943707,-3.581,-41.125,23.501
446,1436894943787,-3.581,-41.125,23.501
447,1436894943788,-3.581,-41.125,23.501
448,1436894943789,-3.581,-40.814,23.501
449,1436894943790,-3.581,-40.814,23.84
450,1436894943806,-3.581,-40.814,23.84
451,1436894943828,-3.581,-40.814,23.84
452,1436894943846,-3.581,-40.814,23.84
453,1436894943866,-3.581,-40.512,23.84
454,1436894943888,-3.581,-40.512,24.191
455,1436894943908,-3.581,-40.512,24.191
456,1436894943929,-3.581,-40.512,24.191
457,1436894943947,-3.581,-40.185,24.191
458,1436894943969,-3.581,-40.185,24.191
459,1436894944000,-3.581,-40.185,24.191
460,1436894944011,-3.581,-40.185,24.191
461,1436894944027,-3.581,-40.185,24.191
462,1436894944048,-3.581,-39.831,24.191
463,1436894944067,-3.581,-39.831,24.191
464,1436894944088,-3.581,-39.831,24.191
465,1436894944108,-3.581,-39.831,24.191
466,1436894944129,-3.581,-39.831,24.191
467,1436894944147,-3.581,-39.831,24.191
468,1436894944168,-3.581,-39.831,24.191
469,1436894944188,-3.581,-39.831,24.191
470,1436894944208,-3.581,-39.831,24.191
471,1436894944229,-3.581,-39.831,24.191
472,1436894944247,-3.581,-39.831,24.191
473,1436894944267,-3.581,-39.831,24.191
474,1436894944290,-3.581,-39.831,24.191
475,1436894944307,-3.581,-39.831,24.191
476,1436894944327,-3.581,-39.831,24.191
477,1436894944348,-3.581,-40.15,24.191
478,1436894944369,-3.581,-40.15,24.191
479,1436894944389,-3.581,-40.15,24.191
480,1436894944408,-3.581,-40.15,24.191
481,1436894944429,-3.581,-40.15,24.191
482,1436894944454,-3.581,-40.457,24.191
483,1436894944518,-3.581,-40.457,23.878
484,1436894944519,-3.581,-40.457,23.878
485,1436894944520,-3.887,-40.457,23.878
486,1436894944527,-3.887,-40.457,23.878
487,1436894944556,-3.887,-40.457,23.878
488,1436894944569,-3.887,-40.457,23.878
489,1436894944587,-3.887,-40.794,23.483
490,1436894944608,-3.887,-40.794,23.483
491,1436894944632,-3.887,-40.794,23.483
492,1436894944647,-3.887,-40.794,23.483
493,1436894944667,-3.887,-40.794,23.483
494,1436894944687,-3.887,-40.794,23.135
495,1436894944707,-3.887,-40.794,23.135
496,1436894944727,-3.887,-40.794,23.135
497,1436894944747,-3.887,-41.114,23.135
498,1436894944768,-3.887,-41.114,22.784
499,1436894944790,-3.887,-41.114,22.784
500,1436894944807,-3.887,-41.114,22.784
501,1436894944828,-3.887,-41.114,22.477
502,1436894944849,-3.887,-41.418,22.477
503,1436894944868,-3.887,-41.418,22.477
504,1436894944888,-3.887,-41.418,22.477
