id,attr_time,attr_x,attr_y,attr_z
1,1436894934834,-22.067,-39.924,-1.387
2,1436894934854,-22.067,-39.924,-1.387
3,1436894934880,-21.719,-39.924,-1.721
4,1436894934899,-21.719,-39.924,-1.721
5,1436894934916,-21.719,-39.924,-1.721
6,1436894934940,-21.719,-39.924,-1.721
7,1436894934960,-21.719,-39.924,-1.721
8,1436894934980,-21.719,-39.924,-1.721
9,1436894935000,-21.719,-39.924,-1.721
10,1436894935018,-21.719,-39.924,-1.721
11,1436894935035,-21.357,-39.924,-1.721
12,1436894935056,-21.357,-39.924,-1.721
13,1436894935075,-21.357,-39.924,-1.721
14,1436894935101,-21.357,-39.924,-1.721
15,1436894935121,-21.357,-39.924,-1.721
16,1436894935139,-21.357,-39.924,-1.721
17,1436894935156,-21.357,-39.924,-1.721
18,1436894935181,-21.357,-39.924,-1.721
19,1436894935208,-21.357,-39.924,-1.721
20,1436894935215,-21.357,-39.924,-1.721
21,1436894935238,-21.357,-39.924,-1.721
22,1436894935257,-21.357,-39.924,-1.721
23,1436894935278,-21.357,-39.924,-2.033
24,1436894935298,-21.357,-39.924,-2.033
25,1436894935316,-21.357,-39.924,-2.033
26,1436894935335,-21.357,-39.924,-2.033
27,1436894935357,-21.357,-39.924,-2.033
28,1436894935379,-21.357,-39.924,-2.033
29,1436894935399,-21.357,-39.924,-2.033
30,1436894935419,-21.357,-39.924,-2.033
31,1436894935438,-21.357,-39.924,-2.033
32,1436894935459,-21.357,-39.924,-2.033
33,1436894935480,-21.357,-39.924,-2.033
34,1436894935500,-21.357,-39.924,-2.033
35,1436894935520,-21.357,-39.924,-2.033
36,1436894935540,-21.357,-39.924,-2.033
37,1436894935559,-21.357,-39.924,-2.033
38,1436894935578,-21.357,-39.924,-2.033
39,1436894935599,-21.357,-39.924,-2.033
40,1436894935619,-21.357,-39.924,-2.033
41,1436894935638,-21.357,-39.924,-2.033
42,1436894935658,-21.357,-39.924,-2.033
43,1436894935680,-21.357,-39.924,-2.033
44,1436894935699,-21.357,-39.924,-2.033
45,1436894935720,-21.357,-39.924,-2.033
46,1436894935740,-21.357,-39.924,-2.033
47,1436894935759,-21.357,-39.924,-2.033
48,1436894935779,-21.357,-39.924,-1.692
49,1436894935799,-21.357,-39.924,-1.692
50,1436894935819,-21.357,-39.924,-1.692
51,1436894935844,-21.357,-39.924,-1.692
52,1436894935903,-21.357,-39.924,-1.692
53,1436894935904,-21.357,-39.924,-1.692
54,1436894935905,-21.357,-39.924,-1.692
55,1436894935921,-21.357,-39.924,-1.692
56,1436894935938,-21.357,-39.924,-1.692
57,1436894935960,-21.357,-39.924,-1.692
58,1436894935976,-21.357,-39.924,-1.692
59,1436894935999,-21.357,-39.924,-1.692
60,1436894936018,-21.357,-39.924,-1.692
61,1436894936037,-21.357,-39.924,-1.692
62,1436894936059,-21.667,-39.924,-1.692
63,1436894936079,-21.667,-39.924,-1.692
64,1436894936101,-21.667,-39.924,-1.692
65,1436894936117,-21.667,-39.924,-1.692
66,1436894936140,-21.667,-39.924,-1.692
67,1436894936160,-21.667,-39.924,-1.692
68,1436894936187,-21.667,-39.924,-1.692
69,1436894936197,-21.667,-39.924,-1.692
70,1436894936217,-21.667,-39.924,-1.692
71,1436894936237,-21.667,-39.924,-1.692
72,1436894936257,-21.667,-39.924,-1.692
73,1436894936280,-21.667,-39.924,-1.692
74,1436894936303,-21.667,-39.924,-1.692
75,1436894936320,-21.667,-39.924,-1.692
76,1436894936342,-21.667,-39.924,-1.692
77,1436894936362,-21.667,-39.924,-1.692
78,1436894936382,-21.667,-39.924,-1.692
79,1436894936400,-21.667,-39.924,-1.692
80,1436894936417,-21.667,-39.924,-1.692
81,1436894936438,-21.36,-39.924,-1.692
82,1436894936459,-21.36,-39.924,-2.024
83,1436894936482,-21.36,-39.924,-2.024
84,1436894936503,-21.36,-39.924,-2.024
85,1436894936523,-21.36,-39.924,-2.024
86,1436894936540,-21.36,-39.924,-2.024
87,1436894936568,-21.36,-39.924,-2.024
88,1436894936638,-21.36,-39.924,-2.024
89,1436894936639,-21.36,-39.924,-2.024
90,1436894936640,-21.36,-39.924,-2.024
91,1436894936641,-21.36,-39.924,-2.024
92,1436894936659,-21.36,-39.924,-2.024
93,1436894936681,-21.36,-39.924,-2.024
94,1436894936697,-21.36,-39.924,-2.024
95,1436894936717,-21.36,-39.924,-2.024
96,1436894936739,-21.36,-39.924,-2.024
97,1436894936758,-21.36,-39.924,-2.024
98,1436894936783,-21.36,-39.924,-2.024
99,1436894936798,-21.36,-39.924,-2.024
100,1436894936821,-21.36,-39.924,-2.024
101,1436894936844,-21.36,-39.924,-2.024
102,1436894936885,-21.36,-39.924,-2.024
103,1436894936886,-21.36,-39.924,-2.024
104,1436894936898,-21.36,-39.924,-2.024
105,1436894936917,-21.36,-39.924,-2.024
106,1436894936938,-21.36,-39.924,-2.024
107,1436894936958,-21.36,-39.924,-2.024
108,1436894936977,-21.36,-39.924,-2.024
109,1436894936998,-21.36,-39.924,-2.024
110,1436894937017,-21.36,-39.924,-2.024
111,1436894937038,-21.36,-39.924,-2.024
112,1436894937059,-21.36,-39.924,-2.024
113,1436894937077,-21.36,-39.924,-2.024
114,1436894937097,-21.36,-39.924,-2.024
115,1436894937117,-21.36,-39.924,-2.024
116,1436894937140,-21.36,-39.924,-2.024
117,1436894937160,-21.36,-39.924,-2.024
118,1436894937181,-21.36,-39.924,-2.024
119,1436894937199,-21.36,-39.924,-2.024
120,1436894937219,-21.36,-39.924,-2.024
121,1436894937237,-21.36,-39.924,-2.024
122,1436894937259,-21.36,-39.924,-2.024
123,1436894937292,-21.36,-39.924,-2.024
124,1436894937298,-21.36,-39.924,-2.024
125,1436894937319,-21.36,-39.924,-2.024
126,1436894937339,-21.36,-39.924,-2.024
127,1436894937357,-21.36,-39.924,-2.024
128,1436894937379,-21.36,-39.924,-2.024
129,1436894937398,-21.36,-39.924,-2.024
130,1436894937419,-21.36,-39.924,-2.024
131,1436894937442,-21.36,-39.924,-2.024
132,1436894937460,-21.36,-39.924,-2.024
133,1436894937479,-21.36,-39.924,-2.024
134,1436894937499,-21.36,-39.924,-2.024
135,1436894937520,-21.36,-39.924,-2.024
136,1436894937542,-21.36,-39.924,-2.024
137,1436894937561,-21.36,-39.924,-2.024
138,1436894937581,-21.36,-39.924,-2.024
139,1436894937601,-21.36,-39.924,-2.024
140,1436894937621,-21.36,-39.924,-2.024
141,1436894937638,-21.36,-39.924,-2.024
142,1436894937661,-21.36,-39.924,-2.024
143,1436894937681,-21.36,-39.924,-1.718
144,1436894937701,-21.36,-39.924,-1.718
145,1436894937721,-21.36,-39.924,-1.718
146,1436894937740,-21.36,-39.924,-1.718
147,1436894937761,-21.36,-39.924,-1.718
148,1436894937781,-21.36,-39.924,-1.718
149,1436894937801,-21.36,-39.924,-1.718
150,1436894937821,-21.36,-39.924,-1.718
151,1436894937838,-21.36,-39.924,-1.718
152,1436894937858,-21.36,-39.924,-1.718
153,1436894937879,-21.36,-39.924,-1.718
154,1436894937924,-21.36,-39.924,-1.718
155,1436894937925,-21.36,-39.924,-1.718
156,1436894937938,-21.36,-39.924,-1.718
157,1436894938043,-21.36,-39.924,-1.718
158,1436894938044,-21.36,-39.924,-1.718
159,1436894938045,-21.36,-39.924,-1.718
160,1436894938046,-21.36,-39.924,-1.718
161,1436894938047,-21.36,-39.924,-1.718
162,1436894938069,-21.36,-39.924,-1.718
163,1436894938079,-21.36,-39.924,-1.718
164,1436894938100,-21.36,-39.924,-1.718
165,1436894938119,-21.36,-39.924,-1.718
166,1436894938139,-21.36,-39.924,-1.718
167,1436894938161,-21.36,-39.924,-1.718
168,1436894938179,-21.36,-39.924,-1.718
169,1436894938203,-21.36,-39.924,-1.718
170,1436894938219,-21.36,-39.924,-1.718
171,1436894938239,-21.36,-39.924,-1.718
172,1436894938259,-21.36,-39.924,-1.718
173,1436894938279,-21.36,-39.924,-1.718
174,1436894938299,-21.36,-39.924,-1.718
175,1436894938319,-21.36,-39.924,-2.021
176,1436894938339,-21.36,-39.924,-2.021
177,1436894938359,-21.36,-39.924,-2.021
178,1436894938379,-21.36,-39.924,-2.021
179,1436894938399,-21.36,-39.924,-2.021
180,1436894938423,-21.36,-39.924,-2.021
181,1436894938439,-21.36,-39.924,-2.021
182,1436894938462,-21.36,-39.924,-2.021
183,1436894938482,-21.36,-39.924,-2.021
184,1436894938502,-21.36,-39.924,-2.021
185,1436894938523,-21.36,-39.924,-2.021
186,1436894938542,-21.36,-39.924,-2.021
187,1436894938562,-21.36,-39.924,-2.021
188,1436894938581,-21.36,-39.924,-2.021
189,1436894938602,-21.36,-39.924,-2.021
190,1436894938624,-21.36,-39.924,-2.021
191,1436894938643,-21.36,-39.924,-2.021
192,1436894938665,-21.36,-39.924,-2.021
193,1436894938680,-21.36,-39.924,-2.021
194,1436894938794,-21.36,-39.924,-2.021
195,1436894938795,-21.36,-39.924,-2.021
196,1436894938796,-21.36,-39.924,-2.021
197,1436894938797,-21.36,-39.924,-2.021
198,1436894938803,-21.36,-39.924,-2.021
199,1436894938804,-21.36,-39.924,-2.021
200,1436894938844,-21.36,-39.924,-2.021
201,1436894938845,-21.36,-39.924,-2.021
202,1436894938859,-21.36,-39.924,-2.021
203,1436894938889,-21.36,-39.924,-2.021
204,1436894938899,-21.36,-39.924,-2.021
205,1436894938920,-21.36,-39.924,-2.021
206,1436894938944,-21.36,-39.924,-2.021
207,1436894938960,-21.36,-39.924,-2.021
208,1436894938981,-21.36,-39.924,-2.021
209,1436894939002,-21.36,-39.924,-2.021
210,1436894939023,-21.36,-39.924,-2.021
211,1436894939043,-21.36,-39.924,-2.021
212,1436894939063,-21.36,-39.924,-2.021
213,1436894939083,-21.36,-39.924,-2.021
214,1436894939102,-21.36,-39.924,-2.021
215,1436894939122,-21.36,-39.924,-2.021
216,1436894939143,-21.36,-39.924,-2.021
217,1436894939162,-21.36,-39.924,-2.021
218,1436894939185,-21.36,-39.924,-2.021
219,1436894939203,-21.36,-39.924,-2.021
220,1436894939225,-21.36,-39.924,-2.021
221,1436894939245,-21.36,-39.924,-2.021
222,1436894939265,-21.36,-39.924,-2.021
223,1436894939283,-21.36,-39.924,-2.021
224,1436894939300,-21.36,-39.924,-2.021
225,1436894939320,-21.36,-39.924,-2.021
226,1436894939340,-21.36,-39.924,-2.021
227,1436894939365,-21.36,-39.924,-2.021
228,1436894939385,-21.36,-39.924,-2.021
229,1436894939406,-21.36,-39.924,-2.021
230,1436894939422,-21.36,-39.924,-2.021
231,1436894939447,-21.36,-39.924,-2.021
232,1436894939513,-21.36,-39.924,-2.021
233,1436894939514,-21.36,-39.924,-2.021
234,1436894939515,-21.36,-39.924,-2.021
235,1436894939525,-21.36,-39.924,-2.021
236,1436894939540,-21.36,-39.924,-2.021
237,1436894939562,-21.36,-39.924,-2.021
238,1436894939580,-21.36,-39.924,-2.021
239,1436894939608,-21.36,-39.924,-2.021
240,1436894939620,-21.36,-39.924,-2.021
241,1436894939641,-21.36,-39.924,-2.021
242,1436894939669,-21.36,-39.924,-2.021
243,1436894939681,-21.36,-39.924,-2.021
244,1436894939703,-21.36,-39.924,-2.021
245,1436894939720,-21.36,-39.924,-2.021
246,1436894939741,-21.36,-39.924,-2.021
247,1436894939760,-21.36,-39.924,-2.021
248,1436894939781,-21.36,-39.924,-2.021
249,1436894939803,-21.36,-39.924,-2.021
250,1436894939823,-21.36,-39.924,-2.021
251,1436894939843,-21.36,-39.924,-2.021
252,1436894939863,-21.36,-39.924,-2.021
253,1436894939883,-21.36,-39.924,-2.021
254,1436894939902,-21.36,-39.924,-2.021
255,1436894939922,-21.36,-39.924,-2.021
256,1436894939944,-21.36,-39.924,-2.021
257,1436894939964,-21.36,-39.924,-2.021
258,1436894939983,-21.36,-39.924,-2.021
259,1436894940002,-21.36,-39.924,-2.021
260,1436894940023,-21.36,-39.924,-2.021
261,1436894940043,-21.36,-39.924,-2.021
262,1436894940064,-21.36,-39.924,-2.021
263,1436894940093,-21.36,-39.924,-2.021
264,1436894940102,-21.36,-39.924,-2.021
265,1436894940122,-21.36,-39.924,-2.021
266,1436894940142,-21.36,-39.924,-2.021
267,1436894940168,-21.36,-39.924,-2.021
268,1436894940231,-21.36,-39.924,-2.021
269,1436894940232,-21.36,-39.924,-2.021
270,1436894940233,-21.36,-39.924,-2.021
271,1436894940243,-21.36,-39.924,-2.021
272,1436894940269,-21.36,-39.924,-2.021
273,1436894940282,-21.36,-39.924,-2.021
274,1436894940300,-21.36,-39.924,-2.021
275,1436894940322,-21.36,-39.924,-2.021
276,1436894940341,-21.36,-39.924,-2.021
277,1436894940365,-21.36,-39.924,-2.021
278,1436894940381,-21.36,-39.924,-2.021
279,1436894940404,-21.36,-39.924,-2.021
280,1436894940422,-21.36,-39.924,-2.021
281,1436894940443,-21.36,-39.924,-2.021
282,1436894940464,-21.36,-39.924,-2.021
283,1436894940484,-21.36,-39.924,-2.021
284,1436894940504,-21.36,-39.924,-2.021
285,1436894940522,-21.36,-39.924,-2.021
286,1436894940544,-21.36,-39.924,-2.021
287,1436894940564,-21.36,-39.924,-2.021
288,1436894940581,-21.36,-39.924,-2.021
289,1436894940602,-21.36,-39.924,-2.021
290,1436894940623,-21.36,-39.924,-2.021
291,1436894940644,-21.36,-39.924,-2.021
292,1436894940661,-21.36,-39.924,-2.021
293,1436894940684,-21.36,-39.924,-2.021
294,1436894940703,-21.36,-39.924,-2.021
295,1436894940721,-21.36,-39.924,-2.021
296,1436894940742,-21.36,-39.924,-2.021
297,1436894940764,-21.36,-39.924,-2.021
298,1436894940782,-21.36,-39.924,-2.021
299,1436894940803,-21.36,-39.924,-2.021
300,1436894940823,-21.36,-39.924,-2.021
301,1436894940844,-21.36,-39.924,-2.021
302,1436894940862,-21.36,-39.924,-2.021
303,1436894940885,-21.36,-39.924,-2.021
304,1436894940952,-21.36,-39.924,-2.021
305,1436894940953,-21.36,-39.924,-2.021
306,1436894940954,-21.36,-39.924,-2.021
307,1436894940964,-21.36,-39.924,-2.021
308,1436894940982,-21.36,-39.924,-2.021
309,1436894941004,-21.36,-39.924,-2.021
310,1436894941021,-21.36,-39.924,-2.021
311,1436894941083,-21.36,-39.924,-2.021
312,1436894941084,-21.36,-39.924,-2.021
313,1436894941085,-21.36,-39.924,-2.021
314,1436894941106,-21.041,-39.924,-2.021
315,1436894941122,-21.041,-39.924,-2.021
316,1436894941142,-21.041,-39.924,-2.021
317,1436894941162,-21.041,-39.924,-2.021
318,1436894941185,-21.041,-39.924,-2.021
319,1436894941202,-21.041,-39.924,-2.021
320,1436894941222,-21.041,-39.924,-2.021
321,1436894941245,-21.041,-39.924,-2.021
322,1436894941265,-21.041,-40.232,-1.686
323,1436894941285,-21.041,-40.232,-1.686
324,1436894941302,-21.041,-40.232,-1.686
325,1436894941322,-21.041,-40.232,-1.686
326,1436894941342,-21.041,-40.232,-1.686
327,1436894941362,-21.041,-40.232,-1.686
328,1436894941385,-21.041,-40.232,-1.686
329,1436894941402,-21.041,-40.232,-1.356
330,1436894941422,-21.041,-40.232,-1.356
331,1436894941445,-21.041,-40.232,-1.356
332,1436894941462,-21.041,-40.232,-1.356
333,1436894941483,-21.041,-40.232,-1.356
334,1436894941504,-21.041,-40.232,-1.356
335,1436894941523,-21.041,-40.232,-1.356
336,1436894941545,-21.041,-40.565,-1.016
337,1436894941563,-21.041,-40.565,-1.016
338,1436894941583,-21.041,-40.565,-1.016
339,1436894941693,-21.041,-40.565,-1.016
340,1436894941694,-21.041,-40.565,-1.016
341,1436894941695,-21.041,-40.565,-1.016
342,1436894941704,-21.041,-40.565,-1.016
343,1436894941705,-21.041,-40.565,-1.016
344,1436894941706,-21.041,-40.565,-1.016
345,1436894941784,-21.041,-40.565,-1.016
346,1436894941785,-21.041,-40.565,-1.016
347,1436894941786,-21.041,-40.565,-1.016
348,1436894941787,-21.041,-40.565,-0.712
349,1436894941802,-21.041,-40.565,-0.712
350,1436894941834,-21.041,-40.565,-0.712
351,1436894941842,-21.041,-40.565,-0.712
352,1436894941862,-21.041,-40.565,-0.712
353,1436894941882,-21.041,-40.565,-0.352
354,1436894941902,-21.041,-40.565,-0.352
355,1436894941923,-21.041,-40.565,-0.352
356,1436894941945,-21.041,-40.565,-0.352
357,1436894941963,-21.041,-40.565,-0.018
358,1436894941985,-21.041,-40.565,-0.018
359,1436894943520,-21.041,-40.565,-0.018
360,1436894943521,-21.041,-40.565,-0.018
361,1436894943522,-21.041,-40.565,0.358
362,1436894943523,-21.041,-40.565,0.358
363,1436894943524,-21.041,-40.565,0.358
364,1436894943525,-21.041,-40.565,0.73
365,1436894943526,-21.041,-40.565,0.73
366,1436894943527,-21.041,-40.565,1.074
367,1436894943528,-21.041,-40.565,1.074
368,1436894943529,-21.041,-40.565,1.387
369,1436894943530,-21.041,-40.565,1.387
370,1436894943531,-21.405,-40.249,1.737
371,1436894943532,-21.405,-40.249,1.737
372,1436894943533,-21.405,-40.249,1.737
373,1436894943534,-21.405,-40.249,2.11
374,1436894943535,-21.405,-40.249,2.11
375,1436894943536,-21.783,-40.249,2.11
376,1436894943537,-21.783,-40.249,2.563
377,1436894943538,-21.783,-40.249,2.563
378,1436894943539,-21.783,-40.249,2.891
379,1436894943540,-22.106,-39.92,2.891
380,1436894943541,-22.106,-39.92,3.236
381,1436894943542,-22.106,-39.92,3.236
382,1436894943543,-22.106,-39.92,3.236
383,1436894943544,-22.106,-39.92,3.669
384,1436894943545,-22.448,-39.92,3.669
385,1436894943546,-22.448,-39.92,3.973
386,1436894943547,-22.448,-39.92,3.973
387,1436894943548,-22.448,-39.602,3.973
388,1436894943549,-22.448,-39.602,4.388
389,1436894943550,-22.448,-39.602,4.388
390,1436894943551,-22.448,-39.602,4.388
391,1436894943552,-22.448,-39.602,4.757
392,1436894943553,-22.749,-39.602,4.757
393,1436894943554,-22.749,-39.602,4.757
394,1436894943555,-22.749,-39.602,5.131
395,1436894943556,-22.749,-39.602,5.131
396,1436894943557,-22.749,-39.602,5.131
397,1436894943558,-22.749,-39.602,5.45
398,1436894943559,-22.749,-39.602,5.45
399,1436894943560,-22.749,-39.271,5.45
400,1436894943561,-22.749,-39.271,5.45
401,1436894943562,-23.081,-39.271,5.795
402,1436894943563,-23.081,-39.271,5.795
403,1436894943564,-23.081,-39.271,5.795
404,1436894943565,-23.081,-39.271,5.795
405,1436894943566,-23.081,-39.271,5.795
406,1436894943567,-23.081,-39.271,6.111
407,1436894943568,-23.446,-39.271,6.111
408,1436894943569,-23.446,-39.271,6.111
409,1436894943570,-23.446,-39.271,6.111
410,1436894943571,-23.446,-39.271,6.111
411,1436894943572,-23.446,-39.271,6.111
412,1436894943573,-23.446,-39.271,6.111
413,1436894943574,-23.77,-39.271,6.111
414,1436894943575,-23.77,-39.271,6.457
415,1436894943576,-23.77,-39.271,6.457
416,1436894943577,-23.77,-39.271,6.457
417,1436894943578,-23.77,-39.271,6.457
418,1436894943579,-23.77,-39.271,6.457
419,1436894943580,-23.77,-38.948,6.457
420,1436894943581,-23.77,-38.948,6.457
421,1436894943582,-23.77,-38.948,6.457
422,1436894943583,-23.77,-38.948,6.457
423,1436894943584,-23.77,-38.948,6.457
424,1436894943585,-24.099,-38.948,6.776
425,1436894943586,-24.099,-38.948,6.776
426,1436894943587,-24.099,-38.948,6.776
427,1436894943588,-24.099,-38.948,6.776
428,1436894943589,-24.099,-38.948,6.776
429,1436894943590,-24.099,-38.948,6.776
430,1436894943591,-24.099,-38.948,7.099
431,1436894943592,-24.099,-38.948,7.099
432,1436894943593,-24.099,-38.948,7.099
433,1436894943594,-24.099,-38.948,7.099
434,1436894943595,-24.099,-38.948,7.099
435,1436894943596,-24.099,-38.948,7.099
436,1436894943597,-24.099,-38.948,7.099
437,1436894943598,-24.099,-38.948,7.099
438,1436894943599,-24.099,-38.948,7.099
439,1436894943604,-24.099,-38.948,7.099
440,1436894943627,-24.099,-38.948,7.099
441,1436894943647,-24.099,-38.948,7.099
442,1436894943667,-24.099,-38.948,7.099
443,1436894943685,-24.099,-38.948,7.099
444,1436894943710,-24.099,-38.948,7.099
445,1436894943724,-24.099,-38.948,7.099
446,1436894943747,-24.099,-38.948,7.099
447,1436894943765,-23.741,-38.948,7.099
448,1436894943788,-23.741,-38.948,7.099
449,1436894943804,-23.741,-38.948,6.765
450,1436894943827,-23.741,-38.948,6.765
451,1436894943845,-23.429,-38.948,6.765
452,1436894943864,-23.429,-38.948,6.765
453,1436894943885,-23.429,-38.948,6.765
454,1436894943905,-23.429,-38.948,6.765
455,1436894943927,-23.121,-38.948,6.765
456,1436894943948,-23.121,-38.948,6.765
457,1436894943967,-23.121,-39.253,6.765
458,1436894943986,-23.121,-39.253,6.765
459,1436894944007,-22.715,-39.253,6.765
460,1436894944024,-22.715,-39.253,6.765
461,1436894944045,-22.715,-39.253,6.765
462,1436894944066,-22.715,-39.253,6.765
463,1436894944119,-22.715,-39.253,6.765
464,1436894944120,-22.715,-39.253,6.765
465,1436894944129,-22.715,-39.253,6.765
466,1436894944144,-22.392,-39.57,6.765
467,1436894944167,-22.392,-39.57,6.765
468,1436894944185,-22.392,-39.57,6.765
469,1436894944204,-22.392,-39.57,6.765
470,1436894944230,-22.392,-39.57,6.765
471,1436894944246,-22.392,-39.57,6.765
472,1436894944264,-22.392,-39.57,6.765
473,1436894944286,-22.392,-39.57,6.765
474,1436894944306,-22.392,-39.57,6.437
475,1436894944330,-22.392,-39.57,6.437
476,1436894944348,-22.392,-39.57,6.437
477,1436894944368,-22.392,-39.57,6.437
478,1436894944388,-22.392,-39.57,6.437
479,1436894944408,-22.392,-39.57,6.437
480,1436894944427,-22.392,-39.57,6.437
481,1436894944448,-22.392,-39.57,6.437
482,1436894944468,-22.392,-39.57,6.437
483,1436894944488,-22.392,-39.57,6.437
484,1436894944505,-22.392,-39.57,6.437
485,1436894944524,-22.392,-39.57,6.437
486,1436894944548,-22.392,-39.57,6.437
487,1436894944568,-22.392,-39.57,6.437
488,1436894944587,-22.392,-39.875,6.437
489,1436894944608,-22.079,-39.875,6.437
490,1436894944628,-22.079,-39.875,6.437
491,1436894944648,-22.079,-39.875,6.437
492,1436894944665,-22.079,-39.875,6.437
493,1436894944688,-22.079,-39.875,6.437
494,1436894944713,-22.079,-39.875,6.437
495,1436894944726,-22.079,-39.875,6.437
496,1436894944749,-22.079,-39.875,6.437
497,1436894944766,-22.079,-39.875,6.437
498,1436894944786,-22.079,-39.875,6.437
499,1436894944900,-22.079,-39.875,6.437
