id,attr_time,attr_light
1,1436980333523,10.0
2,1436980333546,10.0
3,1436980333566,10.0
4,1436980333587,10.0
5,1436980333603,10.0
6,1436980333624,10.0
7,1436980333644,10.0
8,1436980333665,10.0
9,1436980333686,10.0
10,1436980333752,10.0
11,1436980333753,10.0
12,1436980333754,10.0
13,1436980333763,10.0
14,1436980333786,10.0
15,1436980333803,10.0
16,1436980333823,10.0
17,1436980333843,10.0
18,1436980333863,10.0
19,1436980333884,10.0
20,1436980333904,10.0
21,1436980333924,10.0
22,1436980333945,10.0
23,1436980333967,10.0
24,1436980333987,10.0
25,1436980334007,10.0
26,1436980334026,10.0
27,1436980334047,10.0
28,1436980334065,10.0
29,1436980334086,10.0
30,1436980334107,10.0
31,1436980334126,10.0
32,1436980334144,10.0
33,1436980334167,10.0
34,1436980334187,10.0
35,1436980334207,10.0
36,1436980334225,10.0
37,1436980334246,10.0
38,1436980334266,10.0
39,1436980334287,10.0
40,1436980334307,10.0
41,1436980334324,10.0
42,1436980334347,10.0
43,1436980334365,10.0
44,1436980334386,10.0
45,1436980334507,10.0
46,1436980334508,10.0
47,1436980334509,10.0
48,1436980334510,10.0
49,1436980334511,10.0
50,1436980334512,10.0
51,1436980334535,10.0
52,1436980334544,10.0
53,1436980334565,10.0
54,1436980334584,10.0
55,1436980334605,10.0
56,1436980334626,10.0
57,1436980334646,10.0
58,1436980334671,10.0
59,1436980334685,10.0
60,1436980334707,10.0
61,1436980334728,10.0
62,1436980334746,10.0
63,1436980334767,10.0
64,1436980334787,10.0
65,1436980334807,10.0
66,1436980334826,10.0
67,1436980334846,10.0
68,1436980334864,10.0
69,1436980334884,10.0
70,1436980334904,10.0
71,1436980334925,10.0
72,1436980334947,10.0
73,1436980334967,10.0
74,1436980334986,10.0
75,1436980335008,10.0
76,1436980335026,10.0
77,1436980335046,10.0
78,1436980335066,10.0
79,1436980335088,10.0
80,1436980335108,10.0
81,1436980335127,10.0
82,1436980335145,10.0
83,1436980335168,10.0
84,1436980335225,9.0
85,1436980335226,9.0
86,1436980335227,9.0
87,1436980335247,9.0
88,1436980335266,10.0
89,1436980335287,10.0
90,1436980335305,10.0
91,1436980335325,10.0
92,1436980335345,10.0
93,1436980335366,10.0
94,1436980335387,11.0
95,1436980335409,11.0
96,1436980335427,11.0
97,1436980335445,11.0
98,1436980335467,11.0
99,1436980335487,11.0
100,1436980335506,11.0
101,1436980335527,11.0
102,1436980335545,11.0
103,1436980335571,11.0
104,1436980335585,11.0
105,1436980335605,11.0
106,1436980335625,11.0
107,1436980335647,11.0
108,1436980335665,11.0
109,1436980335699,11.0
110,1436980335705,11.0
111,1436980335725,11.0
112,1436980335749,11.0
113,1436980335771,13.0
114,1436980335790,13.0
115,1436980335807,15.0
116,1436980335826,15.0
117,1436980335845,18.0
118,1436980335866,18.0
119,1436980335897,136.0
120,1436980336004,136.0
121,1436980336006,1448.0
122,1436980336007,1448.0
123,1436980336008,1907.0
124,1436980336009,1907.0
125,1436980336010,2781.0
126,1436980336035,2781.0
127,1436980336045,8513.0
128,1436980336065,8513.0
129,1436980336089,10749.0
130,1436980336105,10749.0
131,1436980336125,1195.0
132,1436980336147,1195.0
133,1436980336165,7001.0
134,1436980336189,276.0
135,1436980336209,276.0
136,1436980336229,191.0
137,1436980336249,191.0
138,1436980336267,148.0
139,1436980336289,148.0
140,1436980336309,120.0
141,1436980336329,120.0
142,1436980336349,101.0
143,1436980336365,101.0
144,1436980336387,90.0
145,1436980336409,90.0
146,1436980336429,85.0
147,1436980336449,85.0
148,1436980336466,86.0
149,1436980336487,86.0
150,1436980336508,89.0
151,1436980336529,89.0
152,1436980336549,91.0
153,1436980336567,91.0
154,1436980336588,93.0
155,1436980336605,93.0
156,1436980336636,95.0
157,1436980336690,95.0
158,1436980336691,96.0
159,1436980336692,96.0
160,1436980336713,96.0
161,1436980336726,95.0
162,1436980336747,95.0
163,1436980336769,92.0
164,1436980336786,92.0
165,1436980336808,89.0
166,1436980336826,89.0
167,1436980336850,87.0
168,1436980336869,87.0
169,1436980336887,80.0
170,1436980336906,80.0
171,1436980336927,73.0
172,1436980336949,73.0
173,1436980336967,66.0
174,1436980336987,66.0
175,1436980337010,59.0
176,1436980337027,59.0
177,1436980337049,56.0
178,1436980337066,56.0
179,1436980337086,53.0
180,1436980337106,53.0
181,1436980337126,52.0
182,1436980337147,52.0
183,1436980337166,51.0
184,1436980337187,51.0
185,1436980337209,50.0
186,1436980337233,50.0
187,1436980337248,50.0
188,1436980337270,51.0
189,1436980337287,51.0
190,1436980337307,51.0
191,1436980337327,51.0
192,1436980337348,52.0
193,1436980337370,52.0
194,1436980337422,53.0
195,1436980337423,53.0
196,1436980337427,53.0
197,1436980337447,53.0
198,1436980337468,53.0
199,1436980337489,53.0
200,1436980337507,53.0
201,1436980337527,53.0
202,1436980337549,52.0
203,1436980337568,52.0
204,1436980337588,51.0
205,1436980337608,51.0
206,1436980337630,50.0
207,1436980337650,50.0
208,1436980337669,49.0
209,1436980337690,49.0
210,1436980337708,48.0
211,1436980337729,48.0
212,1436980337750,48.0
213,1436980337769,48.0
214,1436980337790,48.0
215,1436980337809,49.0
216,1436980337829,49.0
217,1436980337852,50.0
218,1436980337870,50.0
219,1436980337887,51.0
220,1436980337912,51.0
221,1436980337932,51.0
222,1436980337951,51.0
223,1436980337968,51.0
224,1436980337988,51.0
225,1436980338009,52.0
226,1436980338032,52.0
227,1436980338053,51.0
228,1436980338072,51.0
229,1436980338091,51.0
230,1436980338111,51.0
231,1436980338182,51.0
232,1436980338183,51.0
233,1436980338184,50.0
234,1436980338190,50.0
235,1436980338211,49.0
236,1436980338228,49.0
237,1436980338247,49.0
238,1436980338288,49.0
239,1436980338289,48.0
240,1436980338318,48.0
241,1436980338330,48.0
242,1436980338349,48.0
243,1436980338367,48.0
244,1436980338391,48.0
245,1436980338409,48.0
246,1436980338430,48.0
247,1436980338478,48.0
248,1436980338479,47.0
249,1436980338491,47.0
250,1436980338511,47.0
251,1436980338530,47.0
252,1436980338552,47.0
253,1436980338572,47.0
254,1436980338589,47.0
255,1436980338609,47.0
256,1436980338630,47.0
257,1436980338648,47.0
258,1436980338669,47.0
259,1436980338688,47.0
260,1436980338714,48.0
261,1436980338730,48.0
262,1436980338752,48.0
263,1436980338772,48.0
264,1436980338788,48.0
265,1436980338810,48.0
266,1436980338828,48.0
267,1436980338851,48.0
268,1436980338870,48.0
269,1436980338932,48.0
270,1436980338933,48.0
271,1436980338934,48.0
272,1436980338951,48.0
273,1436980338973,48.0
274,1436980338993,48.0
275,1436980339008,49.0
276,1436980339028,49.0
277,1436980339050,49.0
278,1436980339070,49.0
279,1436980339089,49.0
280,1436980339109,49.0
281,1436980339134,49.0
282,1436980339152,49.0
283,1436980339174,49.0
284,1436980339189,49.0
285,1436980339212,49.0
286,1436980339231,49.0
287,1436980339252,49.0
288,1436980339272,49.0
289,1436980339292,49.0
290,1436980339312,49.0
291,1436980339329,48.0
292,1436980339349,48.0
293,1436980339372,48.0
294,1436980339390,48.0
295,1436980339412,48.0
296,1436980339430,48.0
297,1436980339452,48.0
298,1436980339472,48.0
299,1436980339492,48.0
300,1436980339512,48.0
301,1436980339534,48.0
302,1436980339552,48.0
303,1436980339573,48.0
304,1436980339592,48.0
305,1436980339612,48.0
306,1436980339665,48.0
307,1436980339666,48.0
308,1436980339684,48.0
309,1436980339689,48.0
310,1436980339710,48.0
311,1436980339731,48.0
312,1436980339749,48.0
313,1436980339769,48.0
314,1436980339789,48.0
315,1436980339812,48.0
316,1436980339834,47.0
317,1436980339850,47.0
318,1436980339875,47.0
319,1436980339892,47.0
320,1436980339912,47.0
321,1436980339932,47.0
322,1436980339952,47.0
323,1436980339972,47.0
324,1436980339992,47.0
325,1436980340013,47.0
326,1436980340032,47.0
327,1436980340052,47.0
328,1436980340080,47.0
329,1436980340089,47.0
330,1436980340109,47.0
331,1436980340129,47.0
332,1436980340149,47.0
333,1436980340173,48.0
334,1436980340192,48.0
335,1436980340213,48.0
336,1436980340233,48.0
337,1436980340252,49.0
338,1436980340272,49.0
339,1436980340292,49.0
340,1436980340311,49.0
341,1436980340330,50.0
342,1436980340395,50.0
343,1436980340396,50.0
344,1436980340397,50.0
345,1436980340420,50.0
346,1436980340429,50.0
347,1436980340460,50.0
348,1436980340470,50.0
349,1436980340491,50.0
350,1436980340512,50.0
351,1436980340530,50.0
352,1436980340552,50.0
353,1436980340570,50.0
354,1436980340592,50.0
355,1436980340610,50.0
356,1436980340633,50.0
357,1436980340653,50.0
358,1436980340670,50.0
359,1436980340693,50.0
360,1436980340713,50.0
361,1436980340733,50.0
362,1436980340753,50.0
363,1436980340773,50.0
364,1436980340793,49.0
365,1436980340811,49.0
366,1436980340833,49.0
367,1436980340854,49.0
368,1436980340875,49.0
369,1436980340894,49.0
370,1436980340913,49.0
371,1436980340934,49.0
372,1436980340953,49.0
373,1436980340973,49.0
374,1436980340994,49.0
375,1436980341014,48.0
376,1436980341035,48.0
377,1436980341051,48.0
378,1436980341075,48.0
379,1436980341145,48.0
380,1436980341146,48.0
381,1436980341147,48.0
382,1436980341151,48.0
383,1436980341171,48.0
384,1436980341195,48.0
385,1436980341211,48.0
386,1436980341230,48.0
387,1436980341253,48.0
388,1436980341271,48.0
389,1436980341292,48.0
390,1436980341311,48.0
391,1436980341334,48.0
392,1436980341355,48.0
393,1436980341370,48.0
394,1436980341390,48.0
395,1436980341414,48.0
396,1436980341446,48.0
397,1436980341475,49.0
398,1436980341476,49.0
399,1436980341491,49.0
400,1436980341511,49.0
401,1436980341531,49.0
402,1436980341551,49.0
403,1436980341571,49.0
404,1436980341591,49.0
405,1436980341611,49.0
406,1436980341631,49.0
407,1436980341651,49.0
408,1436980341671,48.0
409,1436980341693,48.0
410,1436980341711,49.0
411,1436980341731,49.0
412,1436980341751,49.0
413,1436980341772,49.0
414,1436980341791,49.0
415,1436980341824,49.0
416,1436980341853,48.0
417,1436980341854,48.0
418,1436980341875,48.0
419,1436980341891,48.0
420,1436980341911,48.0
421,1436980341936,48.0
422,1436980341951,48.0
423,1436980341977,48.0
424,1436980341992,48.0
425,1436980342011,48.0
426,1436980342033,48.0
427,1436980342054,48.0
428,1436980342072,48.0
429,1436980342091,48.0
430,1436980342112,48.0
431,1436980342130,48.0
432,1436980342150,48.0
433,1436980342172,48.0
434,1436980342194,48.0
435,1436980342214,48.0
436,1436980342232,48.0
437,1436980342251,48.0
438,1436980342275,48.0
439,1436980342295,48.0
440,1436980342315,48.0
441,1436980342334,48.0
442,1436980342351,48.0
443,1436980342373,48.0
444,1436980342392,48.0
445,1436980342411,48.0
446,1436980342432,48.0
447,1436980342453,48.0
448,1436980342471,48.0
449,1436980342493,48.0
450,1436980342522,48.0
451,1436980342531,48.0
452,1436980342551,48.0
453,1436980342571,48.0
454,1436980342593,48.0
455,1436980342612,48.0
456,1436980342634,48.0
457,1436980342652,48.0
458,1436980342675,48.0
459,1436980342695,48.0
460,1436980342715,48.0
461,1436980342733,48.0
462,1436980342755,48.0
463,1436980342775,48.0
464,1436980342795,48.0
465,1436980342815,48.0
466,1436980342833,48.0
467,1436980342855,48.0
468,1436980342872,48.0
469,1436980342893,48.0
470,1436980342916,48.0
471,1436980342931,48.0
472,1436980342954,48.0
473,1436980342976,48.0
474,1436980342996,48.0
475,1436980343015,48.0
476,1436980343036,48.0
477,1436980343056,48.0
478,1436980343075,48.0
479,1436980343093,48.0
480,1436980343114,48.0
481,1436980343134,48.0
482,1436980343156,48.0
483,1436980343220,48.0
484,1436980343221,48.0
485,1436980343222,48.0
486,1436980343232,48.0
487,1436980343256,49.0
488,1436980343272,49.0
489,1436980343293,49.0
490,1436980343314,49.0
491,1436980343337,49.0
492,1436980343354,49.0
493,1436980343372,49.0
494,1436980343395,49.0
495,1436980343415,49.0
496,1436980343433,49.0
497,1436980343456,49.0
498,1436980343473,49.0
499,1436980343492,49.0
500,1436980343517,49.0
501,1436980343536,50.0
502,1436980343555,50.0
503,1436980343576,50.0
504,1436980343596,50.0
505,1436980343613,50.0
506,1436980343636,50.0
507,1436980343654,50.0
508,1436980343676,50.0
509,1436980343696,50.0
510,1436980343716,50.0
511,1436980343735,50.0
512,1436980343754,50.0
513,1436980343775,50.0
514,1436980343796,50.0
515,1436980343818,50.0
516,1436980343837,50.0
517,1436980343853,50.0
518,1436980343873,50.0
519,1436980343953,50.0
520,1436980343954,50.0
521,1436980343955,50.0
522,1436980343956,50.0
523,1436980343975,50.0
524,1436980343995,50.0
525,1436980344013,50.0
526,1436980344038,49.0
527,1436980344067,49.0
528,1436980344073,49.0
529,1436980344093,49.0
530,1436980344114,49.0
531,1436980344136,49.0
532,1436980344157,49.0
533,1436980344176,49.0
534,1436980344196,49.0
535,1436980344216,49.0
536,1436980344236,49.0
537,1436980344256,49.0
538,1436980344276,49.0
539,1436980344296,49.0
540,1436980344317,49.0
541,1436980344333,50.0
542,1436980344356,50.0
543,1436980344376,50.0
544,1436980344395,50.0
545,1436980344416,50.0
546,1436980344435,50.0
547,1436980344465,50.0
548,1436980344480,50.0
549,1436980344497,50.0
550,1436980344516,50.0
551,1436980344536,49.0
552,1436980344555,49.0
553,1436980344575,49.0
554,1436980344594,49.0
555,1436980344619,49.0
556,1436980344684,49.0
557,1436980344685,49.0
558,1436980344686,49.0
559,1436980344693,49.0
560,1436980344714,48.0
561,1436980344734,48.0
562,1436980344753,48.0
563,1436980344776,48.0
564,1436980344793,48.0
565,1436980344815,48.0
566,1436980344839,48.0
567,1436980344854,48.0
568,1436980344875,48.0
569,1436980344896,48.0
570,1436980344916,48.0
571,1436980344936,48.0
572,1436980344954,48.0
573,1436980344974,48.0
574,1436980344994,49.0
575,1436980345014,49.0
576,1436980345036,49.0
577,1436980345056,49.0
578,1436980345074,49.0
579,1436980345096,49.0
580,1436980345116,49.0
581,1436980345136,49.0
582,1436980345157,49.0
583,1436980345176,49.0
584,1436980345196,49.0
585,1436980345217,49.0
586,1436980345236,49.0
587,1436980345257,49.0
588,1436980345277,49.0
589,1436980345296,49.0
590,1436980345315,49.0
591,1436980345335,48.0
592,1436980345356,48.0
593,1436980345427,48.0
594,1436980345428,48.0
595,1436980345429,48.0
596,1436980345459,48.0
597,1436980345460,48.0
598,1436980345474,48.0
599,1436980345497,48.0
600,1436980345516,48.0
601,1436980345534,48.0
602,1436980345556,48.0
603,1436980345575,49.0
604,1436980345595,49.0
605,1436980345627,49.0
606,1436980345634,49.0
607,1436980345656,49.0
608,1436980345674,49.0
609,1436980345694,49.0
610,1436980345715,49.0
611,1436980345736,49.0
612,1436980345757,49.0
613,1436980345777,49.0
614,1436980345797,49.0
615,1436980345816,49.0
616,1436980345836,49.0
617,1436980345854,49.0
618,1436980345876,49.0
619,1436980345896,49.0
620,1436980345917,49.0
621,1436980345936,49.0
622,1436980345958,50.0
623,1436980345978,50.0
624,1436980345995,50.0
625,1436980346017,50.0
626,1436980346038,51.0
627,1436980346058,51.0
628,1436980346077,52.0
629,1436980346097,52.0
630,1436980346120,52.0
631,1436980346175,52.0
632,1436980346176,53.0
633,1436980346186,53.0
634,1436980346196,54.0
635,1436980346215,54.0
636,1436980346237,54.0
637,1436980346255,54.0
638,1436980346276,54.0
639,1436980346295,55.0
640,1436980346315,55.0
641,1436980346336,55.0
642,1436980346358,55.0
643,1436980346376,56.0
644,1436980346395,56.0
645,1436980346417,58.0
646,1436980346435,58.0
647,1436980346461,58.0
648,1436980346475,58.0
649,1436980346497,46.0
650,1436980346517,46.0
651,1436980346538,37.0
652,1436980346687,37.0
653,1436980346688,64.0
654,1436980346689,64.0
655,1436980346690,64.0
656,1436980346691,64.0
657,1436980346692,59.0
658,1436980346693,59.0
659,1436980346746,55.0
660,1436980346747,55.0
661,1436980346748,54.0
662,1436980346755,54.0
663,1436980346775,54.0
664,1436980346797,54.0
665,1436980346822,54.0
666,1436980346882,54.0
667,1436980346883,54.0
668,1436980346884,54.0
669,1436980346896,54.0
670,1436980346916,54.0
671,1436980346940,54.0
672,1436980346956,54.0
673,1436980346978,54.0
674,1436980346997,55.0
675,1436980347016,55.0
676,1436980347039,56.0
677,1436980347056,56.0
678,1436980347077,56.0
679,1436980347098,56.0
680,1436980347115,56.0
681,1436980347135,56.0
682,1436980347157,57.0
683,1436980347178,57.0
684,1436980347199,58.0
685,1436980347219,58.0
686,1436980347239,57.0
687,1436980347257,57.0
688,1436980347278,55.0
689,1436980347299,55.0
690,1436980347320,55.0
691,1436980347336,54.0
692,1436980347356,54.0
693,1436980347376,53.0
694,1436980347400,53.0
695,1436980347417,53.0
696,1436980347439,53.0
697,1436980347456,53.0
698,1436980347476,53.0
699,1436980347497,53.0
700,1436980347515,53.0
701,1436980347537,54.0
702,1436980347559,54.0
703,1436980347584,54.0
704,1436980347604,54.0
705,1436980347616,54.0
706,1436980347637,54.0
707,1436980347656,57.0
708,1436980347677,57.0
709,1436980347696,47.0
710,1436980347719,47.0
711,1436980347737,51.0
712,1436980347757,51.0
713,1436980347777,62.0
714,1436980347796,62.0
715,1436980347819,56.0
716,1436980347840,56.0
717,1436980347856,56.0
718,1436980347879,52.0
719,1436980347900,52.0
720,1436980347918,51.0
721,1436980347940,51.0
722,1436980347959,52.0
723,1436980347980,52.0
724,1436980348000,53.0
725,1436980348023,53.0
726,1436980348039,52.0
727,1436980348059,52.0
728,1436980348077,52.0
729,1436980348096,52.0
730,1436980348117,52.0
731,1436980348140,52.0
732,1436980348163,53.0
733,1436980348179,53.0
734,1436980348199,54.0
735,1436980348218,54.0
736,1436980348242,54.0
737,1436980348310,54.0
738,1436980348311,54.0
739,1436980348312,54.0
740,1436980348321,54.0
741,1436980348347,54.0
742,1436980348359,54.0
743,1436980348377,54.0
744,1436980348397,54.0
745,1436980348417,54.0
746,1436980348438,54.0
747,1436980348484,54.0
748,1436980348485,54.0
749,1436980348497,54.0
750,1436980348521,54.0
751,1436980348539,54.0
752,1436980348561,54.0
753,1436980348579,54.0
754,1436980348600,54.0
755,1436980348621,54.0
756,1436980348640,54.0
757,1436980348661,54.0
758,1436980348681,54.0
759,1436980348698,54.0
760,1436980348718,54.0
761,1436980348741,54.0
762,1436980348757,54.0
763,1436980348778,54.0
764,1436980348797,54.0
765,1436980348820,54.0
766,1436980348844,54.0
767,1436980348860,54.0
768,1436980348880,54.0
769,1436980348897,54.0
770,1436980348917,55.0
771,1436980348937,55.0
772,1436980348959,55.0
773,1436980348981,55.0
774,1436980349038,55.0
775,1436980349042,55.0
776,1436980349043,55.0
777,1436980349059,55.0
778,1436980349081,56.0
779,1436980349101,56.0
780,1436980349118,56.0
781,1436980349138,56.0
782,1436980349160,56.0
783,1436980349178,56.0
784,1436980349201,56.0
785,1436980349220,56.0
786,1436980349238,56.0
787,1436980349261,56.0
788,1436980349282,56.0
789,1436980349301,56.0
790,1436980349321,56.0
791,1436980349342,56.0
792,1436980349361,56.0
793,1436980349378,56.0
794,1436980349400,56.0
795,1436980349422,56.0
796,1436980349442,56.0
797,1436980349459,56.0
798,1436980349481,56.0
799,1436980349501,56.0
800,1436980349519,56.0
801,1436980349538,57.0
802,1436980349558,57.0
803,1436980349584,58.0
804,1436980349604,58.0
805,1436980349624,38.0
806,1436980349642,38.0
807,1436980349658,30.0
808,1436980349679,30.0
809,1436980349698,48.0
810,1436980349721,48.0
811,1436980349741,54.0
812,1436980349793,54.0
813,1436980349794,55.0
814,1436980349813,55.0
815,1436980349820,55.0
816,1436980349841,55.0
817,1436980349862,54.0
818,1436980349878,54.0
819,1436980349898,53.0
820,1436980349921,53.0
821,1436980349939,53.0
822,1436980349960,53.0
823,1436980349979,53.0
824,1436980350006,51.0
825,1436980350026,51.0
826,1436980350038,50.0
827,1436980350059,50.0
828,1436980350079,48.0
829,1436980350098,48.0
830,1436980350122,46.0
831,1436980350141,46.0
832,1436980350162,45.0
833,1436980350182,45.0
834,1436980350199,35.0
835,1436980350222,35.0
836,1436980350242,27.0
837,1436980350262,27.0
838,1436980350280,49.0
839,1436980350301,49.0
840,1436980350323,54.0
841,1436980350343,54.0
842,1436980350363,54.0
843,1436980350382,54.0
844,1436980350402,54.0
845,1436980350419,54.0
846,1436980350440,54.0
847,1436980350462,54.0
848,1436980350479,54.0
849,1436980350533,54.0
850,1436980350534,54.0
851,1436980350552,54.0
852,1436980350559,54.0
853,1436980350585,54.0
854,1436980350603,54.0
855,1436980350619,54.0
856,1436980350640,54.0
857,1436980350659,54.0
858,1436980350682,54.0
859,1436980350701,54.0
860,1436980350720,54.0
861,1436980350739,54.0
862,1436980350763,54.0
863,1436980350783,53.0
864,1436980350803,53.0
865,1436980350822,53.0
866,1436980350842,53.0
867,1436980350863,53.0
868,1436980350883,53.0
869,1436980350903,53.0
870,1436980350923,53.0
871,1436980350943,53.0
