id,attr_time,attr_light
1,1436289167412,120.0
2,1436289167428,120.0
3,1436289167450,120.0
4,1436289167469,120.0
5,1436289167494,120.0
6,1436289167514,120.0
7,1436289167531,120.0
8,1436289167551,120.0
9,1436289167572,120.0
10,1436289167591,120.0
11,1436289167611,120.0
12,1436289167631,120.0
13,1436289167651,120.0
14,1436289167671,120.0
15,1436289167691,120.0
16,1436289167712,120.0
17,1436289167732,120.0
18,1436289167752,120.0
19,1436289167772,120.0
20,1436289167792,120.0
21,1436289167812,120.0
22,1436289167833,120.0
23,1436289167853,120.0
24,1436289167872,120.0
25,1436289167891,120.0
26,1436289167912,120.0
27,1436289167929,120.0
28,1436289167951,120.0
29,1436289168056,120.0
30,1436289168057,120.0
31,1436289168075,120.0
32,1436289168076,120.0
33,1436289168077,120.0
34,1436289168078,120.0
35,1436289168093,119.0
36,1436289168112,119.0
37,1436289168129,119.0
38,1436289168149,119.0
39,1436289168174,119.0
40,1436289168191,119.0
41,1436289168211,119.0
42,1436289168241,119.0
43,1436289168249,119.0
44,1436289168269,119.0
45,1436289168289,119.0
46,1436289168309,119.0
47,1436289168329,119.0
48,1436289168349,119.0
49,1436289168370,119.0
50,1436289168390,119.0
51,1436289168409,119.0
52,1436289168429,119.0
53,1436289168449,119.0
54,1436289168469,119.0
55,1436289168490,119.0
56,1436289168510,119.0
57,1436289168530,119.0
58,1436289168550,119.0
59,1436289168570,119.0
60,1436289168590,119.0
61,1436289168610,119.0
62,1436289168630,119.0
63,1436289168650,119.0
64,1436289168670,119.0
65,1436289168690,119.0
66,1436289168711,119.0
67,1436289168730,119.0
68,1436289168758,119.0
69,1436289168769,119.0
70,1436289168789,119.0
71,1436289168809,119.0
72,1436289168829,119.0
73,1436289168854,119.0
74,1436289168871,119.0
75,1436289168890,119.0
76,1436289168914,119.0
77,1436289168934,119.0
78,1436289168954,119.0
79,1436289168969,119.0
80,1436289168992,119.0
81,1436289169011,119.0
82,1436289169032,119.0
83,1436289169055,119.0
84,1436289169072,119.0
85,1436289169090,119.0
86,1436289169110,119.0
87,1436289169134,119.0
88,1436289169153,119.0
89,1436289169173,119.0
90,1436289169193,119.0
91,1436289169214,119.0
92,1436289169234,119.0
93,1436289169255,119.0
94,1436289169271,119.0
95,1436289169293,119.0
96,1436289169314,119.0
97,1436289169334,119.0
98,1436289169352,119.0
99,1436289169377,119.0
100,1436289169442,119.0
101,1436289169443,119.0
102,1436289169444,119.0
103,1436289169454,119.0
104,1436289169471,119.0
105,1436289169493,119.0
106,1436289169511,119.0
107,1436289169531,119.0
108,1436289169551,119.0
109,1436289169572,119.0
110,1436289169597,119.0
111,1436289169612,119.0
112,1436289169634,119.0
113,1436289169654,119.0
114,1436289169673,119.0
115,1436289169694,119.0
116,1436289169714,119.0
117,1436289169734,119.0
118,1436289169754,119.0
119,1436289169774,119.0
120,1436289169794,119.0
121,1436289169814,119.0
122,1436289169833,119.0
123,1436289169854,119.0
124,1436289169874,119.0
125,1436289169894,119.0
126,1436289169914,119.0
127,1436289169934,119.0
128,1436289169954,119.0
129,1436289169976,119.0
130,1436289169995,119.0
131,1436289170011,119.0
132,1436289170033,119.0
133,1436289170051,119.0
134,1436289170073,119.0
135,1436289170099,119.0
136,1436289170165,119.0
137,1436289170166,119.0
138,1436289170167,119.0
139,1436289170177,119.0
140,1436289170203,119.0
141,1436289170221,119.0
142,1436289170231,119.0
143,1436289170251,120.0
144,1436289170272,120.0
145,1436289170293,120.0
146,1436289170312,120.0
147,1436289170331,120.0
148,1436289170354,120.0
149,1436289170372,120.0
150,1436289170395,120.0
151,1436289170415,120.0
152,1436289170434,120.0
153,1436289170455,120.0
154,1436289170474,120.0
155,1436289170495,120.0
156,1436289170513,120.0
157,1436289170535,120.0
158,1436289170551,120.0
159,1436289170575,120.0
160,1436289170595,120.0
161,1436289170614,120.0
162,1436289170635,120.0
163,1436289170655,120.0
164,1436289170673,120.0
165,1436289170694,120.0
166,1436289170715,120.0
167,1436289170735,120.0
168,1436289170756,120.0
169,1436289170775,120.0
170,1436289170794,119.0
171,1436289170818,119.0
172,1436289170893,119.0
173,1436289170894,119.0
174,1436289170895,119.0
175,1436289170896,119.0
176,1436289170914,119.0
177,1436289170935,119.0
178,1436289170952,119.0
179,1436289171015,119.0
180,1436289171016,119.0
181,1436289171017,119.0
182,1436289171034,119.0
183,1436289171054,118.0
184,1436289171077,118.0
185,1436289171092,118.0
186,1436289171112,118.0
187,1436289171237,118.0
188,1436289171238,118.0
189,1436289171239,118.0
190,1436289171240,118.0
191,1436289171241,118.0
192,1436289171242,118.0
193,1436289171273,118.0
194,1436289171274,118.0
195,1436289171291,118.0
196,1436289171312,118.0
197,1436289171332,118.0
198,1436289171355,118.0
199,1436289171371,118.0
200,1436289171392,118.0
201,1436289171412,118.0
202,1436289171434,118.0
203,1436289171458,118.0
204,1436289171477,118.0
205,1436289171494,118.0
206,1436289171514,118.0
207,1436289171542,118.0
208,1436289171552,118.0
209,1436289171572,118.0
210,1436289171593,118.0
211,1436289171613,118.0
212,1436289171635,118.0
213,1436289171653,118.0
214,1436289171673,118.0
215,1436289171694,118.0
216,1436289171716,118.0
217,1436289171736,118.0
218,1436289171753,118.0
219,1436289171776,118.0
220,1436289171796,118.0
221,1436289171816,118.0
222,1436289171836,118.0
223,1436289171856,118.0
224,1436289171876,118.0
225,1436289171896,118.0
226,1436289171914,118.0
227,1436289171936,118.0
228,1436289171954,118.0
229,1436289171974,117.0
230,1436289171994,117.0
231,1436289172018,117.0
232,1436289172038,117.0
233,1436289172058,117.0
234,1436289172076,117.0
235,1436289172093,117.0
236,1436289172113,117.0
237,1436289172133,117.0
238,1436289172154,117.0
239,1436289172174,117.0
240,1436289172242,117.0
241,1436289172243,117.0
242,1436289172244,117.0
243,1436289172253,117.0
244,1436289172278,117.0
245,1436289172294,117.0
246,1436289172313,117.0
247,1436289172334,117.0
248,1436289172363,117.0
249,1436289172385,117.0
250,1436289172393,117.0
251,1436289172423,117.0
252,1436289172434,117.0
253,1436289172457,117.0
254,1436289172474,117.0
255,1436289172496,117.0
256,1436289172515,117.0
257,1436289172535,117.0
258,1436289172554,117.0
259,1436289172576,117.0
260,1436289172597,117.0
261,1436289172616,117.0
262,1436289172636,117.0
263,1436289172657,117.0
264,1436289172676,117.0
265,1436289172695,117.0
266,1436289172717,117.0
267,1436289172735,117.0
268,1436289172758,117.0
269,1436289172775,117.0
270,1436289172796,117.0
271,1436289172814,117.0
272,1436289172836,117.0
273,1436289172857,117.0
274,1436289172875,117.0
275,1436289172895,117.0
276,1436289172915,118.0
277,1436289172936,118.0
278,1436289172960,118.0
279,1436289173028,118.0
280,1436289173029,118.0
281,1436289173030,118.0
282,1436289173039,118.0
283,1436289173054,118.0
284,1436289173076,119.0
285,1436289173094,119.0
286,1436289173114,119.0
287,1436289173136,119.0
288,1436289173155,118.0
289,1436289173175,119.0
290,1436289173195,119.0
291,1436289173216,119.0
292,1436289173236,119.0
293,1436289173257,119.0
294,1436289173277,119.0
295,1436289173297,119.0
296,1436289173317,119.0
297,1436289173337,119.0
298,1436289173357,119.0
299,1436289173377,118.0
300,1436289173397,118.0
301,1436289173420,118.0
302,1436289173438,118.0
303,1436289173458,119.0
304,1436289173478,119.0
305,1436289173497,118.0
306,1436289173519,118.0
307,1436289173536,118.0
308,1436289173556,118.0
309,1436289173576,118.0
310,1436289173598,118.0
311,1436289173618,118.0
312,1436289173634,118.0
313,1436289173655,118.0
314,1436289173676,118.0
315,1436289173727,118.0
316,1436289173728,118.0
317,1436289173756,118.0
318,1436289173757,118.0
319,1436289173776,118.0
320,1436289173795,117.0
321,1436289173815,117.0
322,1436289173835,117.0
323,1436289173855,117.0
324,1436289173889,117.0
325,1436289173896,117.0
326,1436289173917,117.0
327,1436289173936,117.0
328,1436289173956,117.0
329,1436289173979,117.0
330,1436289173998,117.0
331,1436289174018,117.0
332,1436289174038,117.0
333,1436289174058,118.0
334,1436289174078,118.0
335,1436289174098,118.0
336,1436289174118,118.0
337,1436289174138,117.0
338,1436289174190,117.0
339,1436289174191,118.0
340,1436289174195,118.0
341,1436289174219,118.0
342,1436289174238,118.0
343,1436289174258,118.0
344,1436289174276,118.0
345,1436289174297,118.0
346,1436289174316,118.0
347,1436289174337,118.0
348,1436289174359,117.0
349,1436289174379,117.0
350,1436289174399,117.0
351,1436289174418,117.0
352,1436289174440,117.0
353,1436289174507,117.0
354,1436289174508,117.0
355,1436289174509,117.0
356,1436289174523,117.0
357,1436289174538,117.0
358,1436289174558,117.0
359,1436289174575,117.0
360,1436289174603,117.0
361,1436289174615,117.0
362,1436289174636,117.0
363,1436289174661,117.0
364,1436289174676,117.0
365,1436289174698,117.0
366,1436289174717,117.0
367,1436289174739,117.0
368,1436289174755,117.0
369,1436289174777,117.0
370,1436289174799,117.0
371,1436289174819,117.0
372,1436289174837,117.0
373,1436289174859,117.0
374,1436289174879,117.0
375,1436289174902,116.0
376,1436289174919,116.0
377,1436289174942,117.0
378,1436289174957,117.0
379,1436289174981,117.0
380,1436289174999,117.0
381,1436289175016,116.0
382,1436289175036,116.0
383,1436289175056,115.0
384,1436289175082,112.0
385,1436289175097,112.0
386,1436289175117,108.0
387,1436289175138,108.0
388,1436289175160,104.0
389,1436289175228,104.0
390,1436289175229,99.0
391,1436289175230,99.0
392,1436289175239,93.0
393,1436289175257,93.0
394,1436289175284,86.0
395,1436289175314,86.0
396,1436289175332,80.0
397,1436289175336,80.0
398,1436289175356,73.0
399,1436289175376,73.0
400,1436289175396,67.0
401,1436289175421,67.0
402,1436289175436,60.0
403,1436289175457,55.0
404,1436289175476,55.0
405,1436289175496,50.0
406,1436289175516,50.0
407,1436289175536,48.0
408,1436289175556,48.0
409,1436289175576,49.0
410,1436289175596,49.0
411,1436289175619,50.0
412,1436289175648,50.0
413,1436289175656,51.0
414,1436289175676,51.0
415,1436289175697,51.0
416,1436289175716,51.0
417,1436289175737,51.0
418,1436289175759,51.0
419,1436289175793,51.0
420,1436289175801,51.0
421,1436289175816,50.0
422,1436289175837,49.0
423,1436289175857,49.0
424,1436289175877,49.0
425,1436289175897,49.0
426,1436289175916,48.0
427,1436289175936,48.0
428,1436289175956,48.0
429,1436289175976,48.0
430,1436289175996,48.0
431,1436289176016,48.0
432,1436289176035,51.0
433,1436289176055,51.0
434,1436289176075,54.0
435,1436289176095,54.0
436,1436289176115,57.0
437,1436289176135,57.0
438,1436289176155,60.0
439,1436289176176,60.0
440,1436289176196,60.0
441,1436289176216,63.0
442,1436289176236,63.0
443,1436289176256,66.0
444,1436289176276,66.0
445,1436289176301,66.0
446,1436289176320,66.0
447,1436289176340,65.0
448,1436289176361,65.0
449,1436289176378,65.0
450,1436289176398,65.0
451,1436289176418,63.0
452,1436289176439,63.0
453,1436289176458,59.0
454,1436289176481,59.0
455,1436289176497,59.0
456,1436289176549,59.0
457,1436289176552,64.0
458,1436289176557,64.0
459,1436289176578,67.0
460,1436289176600,71.0
461,1436289176617,71.0
462,1436289176640,73.0
463,1436289176661,73.0
464,1436289176678,68.0
465,1436289176698,68.0
466,1436289176721,57.0
467,1436289176738,57.0
468,1436289176760,49.0
469,1436289176779,49.0
470,1436289176802,46.0
471,1436289176821,46.0
472,1436289176839,36.0
473,1436289176860,36.0
474,1436289176881,28.0
475,1436289176899,28.0
476,1436289176921,23.0
477,1436289176937,23.0
478,1436289176965,21.0
479,1436289176983,28.0
480,1436289177000,28.0
481,1436289177023,34.0
482,1436289177040,34.0
483,1436289177058,40.0
484,1436289177084,40.0
485,1436289177103,41.0
486,1436289177122,41.0
487,1436289177141,39.0
488,1436289177159,39.0
489,1436289177229,38.0
490,1436289177230,38.0
491,1436289177231,35.0
492,1436289177238,35.0
493,1436289177260,29.0
494,1436289177333,29.0
495,1436289177334,23.0
496,1436289177335,23.0
497,1436289177339,25.0
498,1436289177384,26.0
499,1436289177385,26.0
500,1436289177398,27.0
501,1436289177418,27.0
502,1436289177439,27.0
503,1436289177460,27.0
504,1436289177482,27.0
505,1436289177501,27.0
506,1436289177521,30.0
507,1436289177539,30.0
508,1436289177561,27.0
509,1436289177582,27.0
510,1436289177601,21.0
511,1436289177622,21.0
512,1436289177642,17.0
513,1436289177658,17.0
514,1436289177685,19.0
515,1436289177700,19.0
516,1436289177721,22.0
517,1436289177741,22.0
518,1436289177761,28.0
519,1436289177781,38.0
520,1436289177798,38.0
521,1436289177818,42.0
522,1436289177839,42.0
523,1436289177862,41.0
524,1436289177881,41.0
525,1436289177901,39.0
526,1436289177921,39.0
527,1436289177948,39.0
528,1436289178046,39.0
529,1436289178047,35.0
530,1436289178048,35.0
531,1436289178049,29.0
532,1436289178050,29.0
533,1436289178081,23.0
534,1436289178082,23.0
535,1436289178099,23.0
536,1436289178119,23.0
537,1436289178139,24.0
538,1436289178164,25.0
539,1436289178181,25.0
540,1436289178200,25.0
541,1436289178224,25.0
542,1436289178240,28.0
543,1436289178262,28.0
544,1436289178282,32.0
545,1436289178302,32.0
546,1436289178322,29.0
547,1436289178342,29.0
548,1436289178362,23.0
549,1436289178379,23.0
550,1436289178401,17.0
551,1436289178421,17.0
552,1436289178441,18.0
553,1436289178462,18.0
554,1436289178482,22.0
555,1436289178501,22.0
556,1436289178522,27.0
557,1436289178541,33.0
558,1436289178563,33.0
559,1436289178583,35.0
560,1436289178603,35.0
561,1436289178621,34.0
562,1436289178641,34.0
563,1436289178661,36.0
564,1436289178683,36.0
565,1436289178708,36.0
566,1436289178766,36.0
567,1436289178767,32.0
568,1436289178769,32.0
569,1436289178787,26.0
570,1436289178800,26.0
571,1436289178829,17.0
572,1436289178841,17.0
573,1436289178861,16.0
574,1436289178886,16.0
575,1436289178900,15.0
576,1436289178921,15.0
577,1436289178941,15.0
578,1436289178962,16.0
579,1436289178982,16.0
580,1436289179001,16.0
581,1436289179022,16.0
582,1436289179049,21.0
583,1436289179063,21.0
584,1436289179082,19.0
585,1436289179110,19.0
586,1436289179143,13.0
587,1436289179144,13.0
588,1436289179165,13.0
589,1436289179180,13.0
590,1436289179201,14.0
591,1436289179263,14.0
592,1436289179264,16.0
593,1436289179265,16.0
594,1436289179280,25.0
595,1436289179300,32.0
596,1436289179320,32.0
597,1436289179340,29.0
598,1436289179360,29.0
599,1436289179382,27.0
600,1436289179402,27.0
601,1436289179424,29.0
602,1436289179460,29.0
603,1436289179461,27.0
604,1436289179481,27.0
605,1436289179501,18.0
606,1436289179520,18.0
607,1436289179544,11.0
608,1436289179562,11.0
609,1436289179580,10.0
610,1436289179601,10.0
611,1436289179620,11.0
612,1436289179646,11.0
613,1436289179666,11.0
614,1436289179679,12.0
615,1436289179700,12.0
616,1436289179719,14.0
617,1436289179763,14.0
618,1436289179764,25.0
619,1436289179780,25.0
620,1436289179800,24.0
621,1436289179820,24.0
622,1436289179840,15.0
623,1436289179859,15.0
624,1436289179879,15.0
625,1436289179900,15.0
626,1436289179920,14.0
627,1436289179940,14.0
628,1436289179960,17.0
629,1436289179980,17.0
630,1436289180000,24.0
631,1436289180020,24.0
632,1436289180040,31.0
633,1436289180061,33.0
634,1436289180093,33.0
635,1436289180107,30.0
636,1436289180122,30.0
637,1436289180142,31.0
638,1436289180161,31.0
639,1436289180180,30.0
640,1436289180204,30.0
641,1436289180225,26.0
642,1436289180241,26.0
643,1436289180262,19.0
644,1436289180284,19.0
645,1436289180302,16.0
646,1436289180325,16.0
647,1436289180345,14.0
648,1436289180365,14.0
649,1436289180385,14.0
650,1436289180404,14.0
651,1436289180425,14.0
652,1436289180444,17.0
653,1436289180463,17.0
654,1436289180483,25.0
655,1436289182129,25.0
656,1436289182130,27.0
657,1436289182131,27.0
658,1436289182132,13.0
659,1436289182133,13.0
660,1436289182134,9.0
661,1436289182135,9.0
662,1436289182136,12.0
663,1436289182137,12.0
664,1436289182138,14.0
665,1436289182139,14.0
666,1436289182140,18.0
667,1436289182141,18.0
668,1436289182142,26.0
669,1436289182143,26.0
670,1436289182144,25.0
671,1436289182145,26.0
672,1436289182146,26.0
673,1436289182147,29.0
674,1436289182148,29.0
675,1436289182149,27.0
676,1436289182150,27.0
677,1436289182151,19.0
678,1436289182152,19.0
679,1436289182153,11.0
680,1436289182154,11.0
681,1436289182155,10.0
682,1436289182156,10.0
683,1436289182157,10.0
684,1436289182158,10.0
685,1436289182159,13.0
686,1436289182160,13.0
687,1436289182161,16.0
688,1436289182162,16.0
689,1436289182163,17.0
690,1436289182164,22.0
691,1436289182165,22.0
692,1436289182166,26.0
693,1436289182167,26.0
694,1436289182168,14.0
695,1436289182169,14.0
696,1436289182170,9.0
697,1436289182171,9.0
698,1436289182172,10.0
699,1436289182173,10.0
700,1436289182174,15.0
701,1436289182175,15.0
702,1436289182176,20.0
703,1436289182177,20.0
704,1436289182178,27.0
705,1436289182179,27.0
706,1436289182180,30.0
707,1436289182181,30.0
708,1436289182182,32.0
709,1436289182183,31.0
710,1436289182184,31.0
711,1436289182185,27.0
712,1436289182186,27.0
713,1436289182187,16.0
714,1436289182188,16.0
715,1436289182189,9.0
716,1436289182190,9.0
717,1436289182191,7.0
718,1436289182192,7.0
719,1436289182193,8.0
720,1436289182194,8.0
721,1436289182195,8.0
722,1436289182196,8.0
723,1436289182197,10.0
724,1436289182198,10.0
725,1436289182199,13.0
726,1436289182200,13.0
727,1436289182201,27.0
728,1436289182202,40.0
729,1436289182203,40.0
730,1436289182204,24.0
731,1436289182205,24.0
732,1436289182206,19.0
733,1436289182207,19.0
734,1436289182208,10.0
735,1436289182209,10.0
736,1436289182210,12.0
737,1436289182211,12.0
738,1436289182212,13.0
739,1436289182213,13.0
740,1436289182214,24.0
741,1436289182221,24.0
742,1436289182242,37.0
743,1436289182262,37.0
744,1436289182282,34.0
745,1436289182302,34.0
746,1436289182324,30.0
747,1436289182343,27.0
748,1436289182362,27.0
749,1436289182385,15.0
750,1436289182403,15.0
751,1436289182425,6.0
752,1436289182445,6.0
753,1436289182465,5.0
754,1436289182485,5.0
755,1436289182507,6.0
756,1436289182525,6.0
757,1436289182545,10.0
758,1436289182562,10.0
759,1436289182587,13.0
760,1436289182607,13.0
761,1436289182625,14.0
762,1436289182644,14.0
763,1436289182663,25.0
764,1436289182682,25.0
765,1436289182703,81.0
766,1436289182724,111.0
767,1436289182744,111.0
768,1436289182767,28.0
769,1436289182784,28.0
770,1436289182808,24.0
771,1436289182824,24.0
772,1436289182846,27.0
773,1436289182868,27.0
774,1436289182888,32.0
775,1436289182908,32.0
776,1436289182928,40.0
777,1436289182948,40.0
778,1436289182968,46.0
779,1436289182988,46.0
780,1436289183005,49.0
781,1436289183025,49.0
782,1436289183048,49.0
783,1436289183068,49.0
784,1436289183085,45.0
785,1436289183105,36.0
786,1436289183124,36.0
787,1436289183147,26.0
788,1436289183168,26.0
789,1436289183187,19.0
790,1436289183208,19.0
791,1436289183232,20.0
792,1436289183243,20.0
793,1436289183265,23.0
794,1436289183293,23.0
795,1436289183353,25.0
796,1436289183354,25.0
797,1436289183355,27.0
798,1436289183386,27.0
799,1436289183387,35.0
800,1436289183407,35.0
801,1436289183428,47.0
802,1436289183444,47.0
803,1436289183464,51.0
804,1436289183484,38.0
805,1436289183505,38.0
806,1436289183529,39.0
807,1436289183546,39.0
808,1436289183566,44.0
809,1436289183586,44.0
810,1436289183608,49.0
811,1436289183628,49.0
812,1436289183648,54.0
813,1436289183668,54.0
814,1436289183688,63.0
815,1436289183708,63.0
816,1436289183726,70.0
817,1436289183747,70.0
818,1436289183767,70.0
819,1436289183786,70.0
820,1436289183806,63.0
821,1436289183826,63.0
822,1436289183846,55.0
823,1436289183866,45.0
824,1436289183891,45.0
825,1436289183906,33.0
826,1436289183928,33.0
827,1436289183946,29.0
828,1436289183966,29.0
829,1436289183987,30.0
830,1436289184008,30.0
831,1436289184030,35.0
832,1436289184089,35.0
833,1436289184100,42.0
834,1436289184101,42.0
835,1436289184107,47.0
836,1436289184125,47.0
837,1436289184148,80.0
838,1436289184218,80.0
839,1436289184219,98.0
840,1436289184220,98.0
841,1436289184226,58.0
842,1436289184246,47.0
843,1436289184269,47.0
844,1436289184287,47.0
845,1436289184306,47.0
846,1436289184326,52.0
847,1436289184346,52.0
848,1436289184367,59.0
849,1436289184389,59.0
850,1436289184409,69.0
851,1436289184429,69.0
852,1436289184448,77.0
853,1436289184467,77.0
854,1436289184489,81.0
855,1436289184509,81.0
856,1436289184529,79.0
857,1436289184546,79.0
