id,attr_time,attr_light
1,1436894934820,0.0
2,1436894934841,0.0
3,1436894934863,0.0
4,1436894934883,0.0
5,1436894934902,0.0
6,1436894934921,0.0
7,1436894934940,0.0
8,1436894934961,0.0
9,1436894934982,0.0
10,1436894935003,0.0
11,1436894935020,0.0
12,1436894935040,0.0
13,1436894935061,0.0
14,1436894935092,0.0
15,1436894935161,0.0
16,1436894935162,0.0
17,1436894935163,0.0
18,1436894935164,0.0
19,1436894935181,0.0
20,1436894935204,0.0
21,1436894935220,0.0
22,1436894935245,0.0
23,1436894935264,0.0
24,1436894935291,0.0
25,1436894935300,0.0
26,1436894935327,0.0
27,1436894935342,0.0
28,1436894935364,0.0
29,1436894935383,0.0
30,1436894935403,0.0
31,1436894935423,0.0
32,1436894935443,0.0
33,1436894935463,0.0
34,1436894935483,0.0
35,1436894935503,0.0
36,1436894935523,0.0
37,1436894935543,0.0
38,1436894935561,0.0
39,1436894935584,0.0
40,1436894935605,0.0
41,1436894935626,0.0
42,1436894935645,0.0
43,1436894935662,0.0
44,1436894935680,0.0
45,1436894935700,0.0
46,1436894935720,0.0
47,1436894935746,0.0
48,1436894935761,0.0
49,1436894935787,0.0
50,1436894935803,0.0
51,1436894935830,0.0
52,1436894935882,0.0
53,1436894935892,0.0
54,1436894935893,0.0
55,1436894935904,0.0
56,1436894935922,0.0
57,1436894935943,0.0
58,1436894935962,0.0
59,1436894935989,0.0
60,1436894936013,0.0
61,1436894936022,0.0
62,1436894936046,0.0
63,1436894936063,0.0
64,1436894936084,0.0
65,1436894936104,0.0
66,1436894936123,0.0
67,1436894936142,0.0
68,1436894936165,0.0
69,1436894936182,0.0
70,1436894936204,0.0
71,1436894936224,0.0
72,1436894936244,0.0
73,1436894936264,0.0
74,1436894936281,0.0
75,1436894936304,0.0
76,1436894936324,0.0
77,1436894936344,0.0
78,1436894936364,0.0
79,1436894936384,0.0
80,1436894936403,0.0
81,1436894936424,0.0
82,1436894936444,0.0
83,1436894936464,0.0
84,1436894936483,0.0
85,1436894936503,0.0
86,1436894936523,0.0
87,1436894936542,0.0
88,1436894936566,0.0
89,1436894936614,0.0
90,1436894936615,0.0
91,1436894936634,0.0
92,1436894936641,0.0
93,1436894936661,0.0
94,1436894936683,0.0
95,1436894936701,0.0
96,1436894936721,0.0
97,1436894936743,0.0
98,1436894936763,0.0
99,1436894936785,0.0
100,1436894936802,0.0
101,1436894936824,0.0
102,1436894936844,0.0
103,1436894936864,0.0
104,1436894936886,0.0
105,1436894936904,0.0
106,1436894936923,0.0
107,1436894936944,0.0
108,1436894936964,0.0
109,1436894936985,0.0
110,1436894937004,0.0
111,1436894937022,0.0
112,1436894937045,0.0
113,1436894937065,0.0
114,1436894937082,0.0
115,1436894937102,0.0
116,1436894937121,0.0
117,1436894937147,0.0
118,1436894937167,0.0
119,1436894937187,0.0
120,1436894937203,0.0
121,1436894937221,0.0
122,1436894937242,0.0
123,1436894937262,0.0
124,1436894937284,0.0
125,1436894937306,0.0
126,1436894937376,0.0
127,1436894937377,0.0
128,1436894937378,0.0
129,1436894937396,0.0
130,1436894937421,0.0
131,1436894937422,0.0
132,1436894937494,0.0
133,1436894937495,0.0
134,1436894937496,0.0
135,1436894937529,0.0
136,1436894937530,0.0
137,1436894937542,0.0
138,1436894937591,0.0
139,1436894937592,0.0
140,1436894937602,0.0
141,1436894937623,0.0
142,1436894937645,0.0
143,1436894937664,0.0
144,1436894937684,0.0
145,1436894937704,0.0
146,1436894937723,0.0
147,1436894937742,0.0
148,1436894937762,0.0
149,1436894937783,0.0
150,1436894937803,0.0
151,1436894937824,0.0
152,1436894937842,0.0
153,1436894937864,0.0
154,1436894937884,0.0
155,1436894937904,0.0
156,1436894937923,0.0
157,1436894937943,0.0
158,1436894937965,0.0
159,1436894937985,0.0
160,1436894938005,0.0
161,1436894938026,0.0
162,1436894938046,0.0
163,1436894938062,0.0
164,1436894938084,0.0
165,1436894938103,0.0
166,1436894938169,0.0
167,1436894938170,0.0
168,1436894938171,0.0
169,1436894938193,0.0
170,1436894938202,0.0
171,1436894938222,0.0
172,1436894938243,0.0
173,1436894938262,0.0
174,1436894938285,0.0
175,1436894938302,0.0
176,1436894938323,0.0
177,1436894938348,0.0
178,1436894938363,0.0
179,1436894938386,0.0
180,1436894938405,0.0
181,1436894938426,0.0
182,1436894938446,0.0
183,1436894938466,0.0
184,1436894938487,0.0
185,1436894938504,0.0
186,1436894938526,0.0
187,1436894938546,0.0
188,1436894938566,0.0
189,1436894938585,0.0
190,1436894938604,0.0
191,1436894938626,0.0
192,1436894938646,0.0
193,1436894938666,0.0
194,1436894938684,0.0
195,1436894938704,0.0
196,1436894938726,0.0
197,1436894938746,0.0
198,1436894938766,0.0
199,1436894938786,0.0
200,1436894938803,0.0
201,1436894938823,0.0
202,1436894938853,0.0
203,1436894938911,0.0
204,1436894938912,0.0
205,1436894938913,0.0
206,1436894938933,0.0
207,1436894938943,0.0
208,1436894938966,0.0
209,1436894938985,0.0
210,1436894939003,0.0
211,1436894939023,0.0
212,1436894939043,0.0
213,1436894939067,0.0
214,1436894939089,0.0
215,1436894939105,0.0
216,1436894939124,0.0
217,1436894939147,0.0
218,1436894939167,0.0
219,1436894939187,0.0
220,1436894939204,0.0
221,1436894939224,0.0
222,1436894939247,0.0
223,1436894939263,0.0
224,1436894939283,0.0
225,1436894939306,0.0
226,1436894939326,0.0
227,1436894939344,0.0
228,1436894939367,0.0
229,1436894939387,0.0
230,1436894939408,0.0
231,1436894939424,0.0
232,1436894939446,0.0
233,1436894939467,0.0
234,1436894939487,0.0
235,1436894939507,0.0
236,1436894939524,0.0
237,1436894939544,0.0
238,1436894939565,0.0
239,1436894939671,0.0
240,1436894939672,0.0
241,1436894939673,0.0
242,1436894939674,0.0
243,1436894939675,0.0
244,1436894939701,0.0
245,1436894939704,0.0
246,1436894939727,0.0
247,1436894939775,0.0
248,1436894939776,0.0
249,1436894939794,0.0
250,1436894939804,0.0
251,1436894939824,0.0
252,1436894939844,0.0
253,1436894939866,0.0
254,1436894939885,0.0
255,1436894939907,0.0
256,1436894939924,0.0
257,1436894939945,0.0
258,1436894939965,0.0
259,1436894939985,0.0
260,1436894940032,0.0
261,1436894940033,0.0
262,1436894940045,0.0
263,1436894940064,0.0
264,1436894940088,0.0
265,1436894940116,0.0
266,1436894940135,0.0
267,1436894940144,0.0
268,1436894940164,0.0
269,1436894940184,0.0
270,1436894940204,0.0
271,1436894940224,0.0
272,1436894940244,0.0
273,1436894940264,0.0
274,1436894940285,0.0
275,1436894940304,0.0
276,1436894940324,0.0
277,1436894940359,0.0
278,1436894940370,0.0
279,1436894940385,0.0
280,1436894940404,0.0
281,1436894940425,0.0
282,1436894940445,0.0
283,1436894940465,0.0
284,1436894940485,0.0
285,1436894940505,0.0
286,1436894940523,0.0
287,1436894940543,0.0
288,1436894940564,0.0
289,1436894940583,0.0
290,1436894940606,0.0
291,1436894940626,0.0
292,1436894940648,0.0
293,1436894940666,0.0
294,1436894940685,0.0
295,1436894940705,0.0
296,1436894940725,0.0
297,1436894940748,0.0
298,1436894940765,0.0
299,1436894940786,0.0
300,1436894940804,0.0
301,1436894940824,0.0
302,1436894940843,0.0
303,1436894940866,0.0
304,1436894940888,0.0
305,1436894940906,0.0
306,1436894940925,0.0
307,1436894940944,0.0
308,1436894940964,0.0
309,1436894940984,0.0
310,1436894941005,0.0
311,1436894941028,0.0
312,1436894941107,0.0
313,1436894941108,0.0
314,1436894941109,0.0
315,1436894941110,0.0
316,1436894941126,0.0
317,1436894941147,0.0
318,1436894941165,0.0
319,1436894941185,0.0
320,1436894941206,0.0
321,1436894941227,0.0
322,1436894941248,0.0
323,1436894941267,0.0
324,1436894941288,0.0
325,1436894941309,0.0
326,1436894941329,0.0
327,1436894941348,0.0
328,1436894941369,0.0
329,1436894941389,0.0
330,1436894941408,0.0
331,1436894941425,0.0
332,1436894941448,0.0
333,1436894941469,0.0
334,1436894941498,0.0
335,1436894941505,0.0
336,1436894941528,0.0
337,1436894941561,0.0
338,1436894941567,0.0
339,1436894941587,0.0
340,1436894941609,0.0
341,1436894941628,0.0
342,1436894941649,0.0
343,1436894941666,0.0
344,1436894941689,0.0
345,1436894941708,0.0
346,1436894941728,0.0
347,1436894941750,0.0
348,1436894941771,0.0
349,1436894941834,0.0
350,1436894941835,0.0
351,1436894941836,0.0
352,1436894941846,0.0
353,1436894941873,0.0
354,1436894941893,0.0
355,1436894941910,0.0
356,1436894941934,0.0
357,1436894941947,0.0
358,1436894941975,0.0
359,1436894941987,0.0
360,1436894942009,0.0
361,1436894942026,0.0
362,1436894942049,0.0
363,1436894942070,0.0
364,1436894942089,0.0
365,1436894942113,0.0
366,1436894942129,0.0
367,1436894942149,0.0
368,1436894942169,0.0
369,1436894942191,0.0
370,1436894942206,0.0
371,1436894942230,0.0
372,1436894942246,0.0
373,1436894942267,0.0
374,1436894942286,0.0
375,1436894942309,0.0
376,1436894942332,0.0
377,1436894942349,0.0
378,1436894942369,0.0
379,1436894942386,0.0
380,1436894942406,0.0
381,1436894942426,0.0
382,1436894942450,0.0
383,1436894942467,0.0
384,1436894942539,0.0
385,1436894942540,0.0
386,1436894942541,0.0
387,1436894942547,0.0
388,1436894942569,0.0
389,1436894942591,0.0
390,1436894942606,0.0
391,1436894942633,0.0
392,1436894942649,0.0
393,1436894942668,0.0
394,1436894942688,0.0
395,1436894942708,0.0
396,1436894942727,0.0
397,1436894942750,0.0
398,1436894942770,0.0
399,1436894942789,0.0
400,1436894942809,0.0
401,1436894942830,0.0
402,1436894942850,0.0
403,1436894942870,0.0
404,1436894942889,0.0
405,1436894942910,0.0
406,1436894942930,0.0
407,1436894942950,0.0
408,1436894942970,0.0
409,1436894942990,0.0
410,1436894943010,0.0
411,1436894943030,0.0
412,1436894943053,0.0
413,1436894943071,0.0
414,1436894943096,0.0
415,1436894943120,0.0
416,1436894943129,0.0
417,1436894943152,0.0
418,1436894943168,0.0
419,1436894943190,0.0
420,1436894943208,0.0
421,1436894943291,0.0
422,1436894943292,0.0
423,1436894943293,0.0
424,1436894943294,0.0
425,1436894943308,0.0
426,1436894943350,0.0
427,1436894943351,0.0
428,1436894943368,0.0
429,1436894943390,0.0
430,1436894943409,0.0
431,1436894943430,0.0
432,1436894943449,0.0
433,1436894943471,0.0
434,1436894943488,0.0
435,1436894943511,0.0
436,1436894943530,0.0
437,1436894943551,0.0
438,1436894943571,0.0
439,1436894943590,0.0
440,1436894943610,0.0
441,1436894943630,0.0
442,1436894943650,0.0
443,1436894943672,0.0
444,1436894943689,0.0
445,1436894943711,0.0
446,1436894943730,0.0
447,1436894943750,0.0
448,1436894943769,0.0
449,1436894943790,0.0
450,1436894943811,0.0
451,1436894943831,0.0
452,1436894943850,0.0
453,1436894943870,0.0
454,1436894943889,0.0
455,1436894943910,0.0
456,1436894943930,0.0
457,1436894943948,0.0
458,1436894944016,0.0
459,1436894944017,0.0
460,1436894944018,0.0
461,1436894944029,0.0
462,1436894944057,0.0
463,1436894944071,0.0
464,1436894944088,0.0
465,1436894944111,0.0
466,1436894944137,0.0
467,1436894944190,0.0
468,1436894944191,0.0
469,1436894944198,0.0
470,1436894944219,0.0
471,1436894944231,0.0
472,1436894944249,0.0
473,1436894944271,0.0
474,1436894944291,0.0
475,1436894944311,0.0
476,1436894944329,0.0
477,1436894944351,0.0
478,1436894944371,0.0
479,1436894944391,0.0
480,1436894944411,0.0
481,1436894944431,0.0
482,1436894944452,0.0
483,1436894944468,0.0
484,1436894944491,0.0
485,1436894944511,0.0
486,1436894944533,0.0
487,1436894944551,0.0
488,1436894944571,0.0
489,1436894944591,0.0
490,1436894944612,0.0
491,1436894944632,0.0
492,1436894944651,0.0
493,1436894944672,0.0
494,1436894944693,0.0
495,1436894944711,0.0
496,1436894944733,0.0
497,1436894944793,0.0
498,1436894944794,0.0
499,1436894944795,0.0
500,1436894944809,0.0
501,1436894944830,0.0
502,1436894944854,0.0
503,1436894944870,0.0
504,1436894944890,0.0
505,1436894944911,0.0
506,1436894944930,0.0
507,1436894944950,0.0
508,1436894944970,0.0
509,1436894944992,0.0
510,1436894945009,0.0
511,1436894945032,0.0
512,1436894945055,0.0
513,1436894945071,0.0
514,1436894945090,0.0
515,1436894945117,0.0
516,1436894945130,0.0
517,1436894945152,0.0
518,1436894945170,0.0
519,1436894945200,0.0
520,1436894945272,0.0
521,1436894945273,0.0
522,1436894945274,0.0
523,1436894945275,0.0
524,1436894945311,0.0
525,1436894945312,0.0
526,1436894945329,0.0
527,1436894945351,0.0
528,1436894945369,0.0
529,1436894945389,0.0
530,1436894945662,0.0
531,1436894945663,0.0
532,1436894945664,0.0
533,1436894945665,0.0
534,1436894945666,0.0
535,1436894945667,0.0
536,1436894945668,0.0
537,1436894945669,0.0
538,1436894945670,0.0
539,1436894945671,0.0
540,1436894945672,0.0
541,1436894945673,0.0
542,1436894945674,0.0
543,1436894945675,0.0
544,1436894945688,0.0
545,1436894945709,0.0
546,1436894945728,0.0
547,1436894945749,0.0
548,1436894945768,0.0
549,1436894945788,0.0
550,1436894945808,0.0
551,1436894945828,0.0
552,1436894945848,0.0
553,1436894945868,0.0
554,1436894945888,0.0
555,1436894945909,0.0
556,1436894945928,0.0
557,1436894945951,0.0
558,1436894945970,0.0
559,1436894945993,0.0
560,1436894946011,0.0
561,1436894946034,0.0
562,1436894946051,0.0
563,1436894946071,0.0
564,1436894946090,0.0
565,1436894946116,0.0
566,1436894946136,0.0
567,1436894946152,0.0
568,1436894946171,0.0
569,1436894946194,0.0
570,1436894946236,0.0
571,1436894946237,0.0
572,1436894946251,0.0
573,1436894946269,0.0
574,1436894946291,0.0
575,1436894946310,0.0
576,1436894946332,0.0
577,1436894946351,0.0
578,1436894946374,0.0
579,1436894946390,0.0
580,1436894946413,0.0
581,1436894946434,0.0
582,1436894946451,0.0
583,1436894946474,0.0
584,1436894946494,0.0
585,1436894946514,0.0
586,1436894946532,0.0
587,1436894946553,0.0
588,1436894946573,0.0
589,1436894946593,0.0
590,1436894946612,0.0
591,1436894946632,0.0
592,1436894946654,0.0
593,1436894946674,0.0
594,1436894946693,0.0
595,1436894946712,0.0
596,1436894946733,0.0
597,1436894946753,0.0
598,1436894946773,0.0
599,1436894946794,0.0
600,1436894946812,0.0
601,1436894946832,0.0
602,1436894946852,0.0
603,1436894946871,0.0
604,1436894946947,0.0
605,1436894946950,0.0
606,1436894946961,0.0
607,1436894946962,0.0
608,1436894946972,0.0
609,1436894946991,0.0
610,1436894947011,0.0
611,1436894947031,0.0
612,1436894947055,0.0
613,1436894947072,0.0
614,1436894947092,0.0
615,1436894947111,0.0
616,1436894947134,0.0
617,1436894947153,0.0
618,1436894947174,0.0
619,1436894947194,0.0
620,1436894947214,0.0
621,1436894947235,0.0
622,1436894947254,0.0
623,1436894947274,0.0
624,1436894947294,0.0
625,1436894947314,0.0
626,1436894947334,0.0
627,1436894947352,0.0
628,1436894947374,0.0
629,1436894947394,0.0
630,1436894947413,0.0
631,1436894947434,0.0
632,1436894947453,0.0
633,1436894947475,0.0
634,1436894947495,0.0
635,1436894947515,0.0
636,1436894947534,0.0
637,1436894947553,0.0
638,1436894947572,0.0
639,1436894947593,0.0
640,1436894947612,0.0
641,1436894947682,0.0
642,1436894947683,0.0
643,1436894947684,0.0
644,1436894947702,0.0
645,1436894947711,0.0
646,1436894947731,0.0
647,1436894947751,0.0
648,1436894947771,0.0
649,1436894947802,0.0
650,1436894947822,0.0
651,1436894947844,0.0
652,1436894947851,0.0
653,1436894947875,0.0
654,1436894947893,0.0
655,1436894947911,0.0
656,1436894947931,0.0
657,1436894947952,0.0
658,1436894947985,0.0
659,1436894947991,0.0
660,1436894948012,0.0
661,1436894948031,0.0
662,1436894948051,0.0
663,1436894948071,0.0
664,1436894948091,0.0
665,1436894948111,0.0
666,1436894948131,0.0
667,1436894948151,0.0
668,1436894948171,0.0
669,1436894948191,0.0
670,1436894948212,0.0
671,1436894948233,0.0
672,1436894948253,0.0
673,1436894948273,0.0
674,1436894948291,0.0
675,1436894948311,0.0
676,1436894948332,0.0
677,1436894948357,0.0
678,1436894948383,0.0
679,1436894948401,0.0
680,1436894948414,0.0
681,1436894948431,0.0
682,1436894948452,0.0
683,1436894948471,0.0
684,1436894948492,0.0
685,1436894948513,0.0
686,1436894948535,0.0
687,1436894948555,0.0
688,1436894948574,0.0
689,1436894948594,0.0
690,1436894948612,0.0
691,1436894948634,0.0
692,1436894948656,0.0
693,1436894948674,0.0
694,1436894948695,0.0
695,1436894948713,0.0
696,1436894948734,0.0
697,1436894948756,0.0
698,1436894948774,0.0
699,1436894948793,0.0
700,1436894948812,0.0
701,1436894948834,0.0
702,1436894948856,0.0
703,1436894948876,0.0
704,1436894948897,0.0
705,1436894948913,0.0
706,1436894948933,0.0
707,1436894948953,0.0
708,1436894948972,0.0
709,1436894948993,0.0
710,1436894949014,0.0
711,1436894949070,0.0
712,1436894949072,0.0
713,1436894949073,0.0
714,1436894949093,0.0
715,1436894949117,0.0
716,1436894949133,0.0
717,1436894949153,0.0
718,1436894949174,0.0
719,1436894949193,0.0
720,1436894949213,0.0
721,1436894949233,0.0
722,1436894949255,0.0
723,1436894949274,0.0
724,1436894949296,0.0
725,1436894949313,0.0
726,1436894949333,0.0
727,1436894949354,0.0
728,1436894949374,0.0
729,1436894949394,0.0
730,1436894949413,0.0
731,1436894949434,0.0
732,1436894949456,0.0
733,1436894949474,0.0
734,1436894949496,0.0
735,1436894949514,0.0
736,1436894949534,0.0
737,1436894949554,0.0
738,1436894949576,0.0
739,1436894949595,0.0
740,1436894949617,0.0
741,1436894949633,0.0
742,1436894949654,0.0
743,1436894949675,0.0
744,1436894949695,0.0
745,1436894949715,0.0
746,1436894949742,0.0
747,1436894949790,0.0
748,1436894949791,0.0
749,1436894949794,0.0
750,1436894949814,0.0
751,1436894949834,0.0
752,1436894949854,0.0
753,1436894949873,0.0
754,1436894949893,0.0
755,1436894949914,0.0
756,1436894949935,0.0
757,1436894949955,0.0
758,1436894949975,0.0
759,1436894949994,0.0
760,1436894950014,0.0
761,1436894950034,0.0
762,1436894950057,0.0
763,1436894950077,0.0
764,1436894950097,0.0
765,1436894950117,0.0
766,1436894950135,0.0
767,1436894950155,0.0
768,1436894950190,0.0
769,1436894950195,0.0
770,1436894950216,0.0
771,1436894950236,0.0
772,1436894950254,0.0
773,1436894950274,0.0
774,1436894950294,0.0
775,1436894950314,0.0
776,1436894950334,0.0
777,1436894950354,0.0
778,1436894950374,0.0
779,1436894950394,0.0
780,1436894950416,0.0
781,1436894950434,0.0
782,1436894950454,0.0
783,1436894950474,0.0
784,1436894950494,0.0
785,1436894950527,0.0
786,1436894950538,0.0
787,1436894950558,0.0
788,1436894950574,0.0
789,1436894950594,0.0
790,1436894950614,0.0
791,1436894950633,0.0
792,1436894950653,0.0
793,1436894950673,0.0
794,1436894950693,0.0
795,1436894950713,0.0
796,1436894950733,0.0
797,1436894950753,0.0
798,1436894950773,0.0
799,1436894950793,0.0
800,1436894950813,0.0
801,1436894950833,0.0
802,1436894950853,0.0
803,1436894950873,0.0
804,1436894950893,0.0
805,1436894950913,0.0
806,1436894950934,0.0
807,1436894950953,0.0
808,1436894950973,0.0
809,1436894950993,0.0
810,1436894951013,0.0
811,1436894951033,0.0
812,1436894951053,0.0
813,1436894951079,0.0
814,1436894951097,0.0
815,1436894951117,0.0
816,1436894951136,0.0
817,1436894951156,0.0
818,1436894951174,0.0
819,1436894951195,0.0
820,1436894951245,0.0
821,1436894951246,0.0
822,1436894951255,0.0
823,1436894951274,0.0
824,1436894951294,0.0
825,1436894951319,0.0
826,1436894951337,0.0
827,1436894951356,0.0
828,1436894951374,0.0
829,1436894951399,0.0
830,1436894951416,0.0
831,1436894951440,0.0
832,1436894951454,0.0
833,1436894951488,0.0
834,1436894951494,0.0
835,1436894951514,0.0
836,1436894951537,0.0
837,1436894951557,0.0
838,1436894951577,0.0
839,1436894951597,0.0
840,1436894951619,0.0
841,1436894951637,0.0
842,1436894951655,0.0
843,1436894951675,0.0
844,1436894951695,0.0
845,1436894951721,0.0
846,1436894951740,0.0
847,1436894951760,0.0
848,1436894951778,0.0
849,1436894951795,0.0
850,1436894951815,0.0
851,1436894951835,0.0
852,1436894951858,0.0
853,1436894951879,0.0
854,1436894951946,0.0
855,1436894951947,0.0
856,1436894951948,0.0
857,1436894951955,0.0
858,1436894951984,0.0
859,1436894951997,0.0
860,1436894952015,0.0
861,1436894952038,0.0
862,1436894952056,0.0
863,1436894952079,0.0
864,1436894952104,0.0
865,1436894952117,0.0
866,1436894952136,0.0
867,1436894952157,0.0
868,1436894952178,0.0
869,1436894952198,0.0
870,1436894952219,0.0
871,1436894952238,0.0
872,1436894952259,0.0
873,1436894952279,0.0
874,1436894952299,0.0
875,1436894952319,0.0
876,1436894952338,0.0
877,1436894952359,0.0
878,1436894952379,0.0
879,1436894952396,0.0
880,1436894952419,0.0
881,1436894952438,0.0
882,1436894952460,0.0
883,1436894952479,0.0
884,1436894952500,0.0
885,1436894952519,0.0
886,1436894952537,0.0
887,1436894952556,0.0
888,1436894952577,0.0
889,1436894952599,0.0
890,1436894952618,0.0
891,1436894952688,0.0
892,1436894952689,0.0
893,1436894952690,0.0
894,1436894952697,0.0
895,1436894952719,0.0
896,1436894952740,0.0
897,1436894952756,0.0
898,1436894952776,0.0
899,1436894952798,0.0
900,1436894952818,0.0
901,1436894952839,0.0
902,1436894952857,0.0
903,1436894952876,0.0
904,1436894952899,0.0
905,1436894952919,0.0
906,1436894952940,0.0
907,1436894952959,0.0
908,1436894952979,0.0
909,1436894952999,0.0
910,1436894953019,0.0
911,1436894953039,0.0
912,1436894953057,0.0
