id,attr_time,attr_x,attr_y,attr_z
1,1436538414303,-10.293,3.898,30.609
2,1436538414323,-10.293,3.898,30.609
3,1436538414345,-10.293,3.898,30.609
4,1436538414365,-10.293,3.898,30.609
5,1436538414385,-10.293,3.898,30.609
6,1436538414404,-10.293,3.898,30.609
7,1436538414423,-10.293,3.898,30.609
8,1436538414443,-10.293,3.898,30.609
9,1436538414463,-10.293,3.898,30.609
10,1436538414489,-10.293,3.898,30.609
11,1436538414547,-10.293,3.898,30.609
12,1436538414548,-10.293,3.898,30.609
13,1436538414549,-10.293,3.898,30.609
14,1436538414570,-10.293,3.898,30.609
15,1436538414581,-10.293,3.898,30.609
16,1436538414609,-10.293,3.898,30.609
17,1436538414623,-10.293,3.898,30.609
18,1436538414643,-10.293,3.898,30.609
19,1436538414661,-10.293,3.898,30.609
20,1436538414682,-10.293,3.898,30.609
21,1436538414709,-10.293,3.898,30.609
22,1436538414725,-10.293,3.898,30.609
23,1436538414744,-10.293,3.898,30.609
24,1436538414761,-10.293,3.898,30.609
25,1436538414785,-10.293,3.898,30.609
26,1436538414805,-10.293,3.898,30.609
27,1436538414825,-10.293,3.898,30.609
28,1436538414844,-10.293,3.898,30.609
29,1436538414865,-10.293,3.898,30.609
30,1436538414885,-10.293,3.898,30.609
31,1436538414905,-10.293,3.898,30.609
32,1436538414925,-10.293,3.898,30.609
33,1436538414945,-10.293,3.898,30.609
34,1436538414963,-10.293,3.898,30.609
35,1436538414984,-10.293,3.898,30.609
36,1436538415005,-10.293,3.898,30.609
37,1436538415024,-10.293,3.898,30.609
38,1436538415044,-10.293,3.898,30.609
39,1436538415063,-10.293,3.898,30.609
40,1436538415086,-10.293,3.898,30.609
41,1436538415106,-10.293,3.898,30.609
42,1436538415126,-10.293,3.898,30.609
43,1436538415145,-10.293,3.898,30.609
44,1436538415163,-10.293,3.898,30.609
45,1436538415183,-10.293,3.898,30.609
46,1436538415204,-10.293,3.898,30.609
47,1436538415224,-10.293,3.898,30.609
48,1436538415307,-10.293,3.898,30.609
49,1436538415308,-10.293,3.898,30.926
50,1436538415309,-10.293,3.898,30.926
51,1436538415310,-10.293,3.898,30.926
52,1436538415322,-10.293,3.898,30.926
53,1436538415345,-10.293,3.898,30.926
54,1436538415362,-10.293,3.898,30.926
55,1436538415382,-10.293,3.898,30.926
56,1436538415417,-10.293,3.898,30.926
57,1436538415424,-10.293,3.898,30.926
58,1436538415444,-10.293,3.898,30.926
59,1436538415463,-10.293,3.898,30.926
60,1436538415486,-10.293,3.898,30.926
61,1436538415504,-10.293,3.898,30.926
62,1436538415525,-10.293,3.898,30.926
63,1436538415545,-10.293,3.898,30.926
64,1436538415563,-10.293,3.898,30.926
65,1436538415586,-10.293,3.898,30.926
66,1436538415605,-10.293,3.898,30.926
67,1436538415625,-10.293,3.898,30.926
68,1436538415644,-10.293,3.898,30.926
69,1436538415665,-10.293,3.898,30.926
70,1436538415705,-10.293,3.898,30.926
71,1436538415706,-10.293,3.898,30.926
72,1436538415724,-10.293,3.898,30.926
73,1436538415744,-10.293,3.898,30.926
74,1436538415763,-10.293,3.898,30.926
75,1436538415783,-10.293,3.898,30.926
76,1436538415808,-10.293,3.898,30.926
77,1436538415828,-10.293,3.898,30.926
78,1436538415848,-10.293,3.898,30.926
79,1436538415866,-10.293,3.898,30.926
80,1436538415883,-10.293,3.898,30.926
81,1436538415902,-10.293,3.898,30.926
82,1436538415922,-10.293,3.898,30.926
83,1436538415944,-10.293,3.898,30.926
84,1436538416049,-10.293,3.898,30.926
85,1436538416050,-10.293,3.898,30.926
86,1436538416092,-10.293,3.898,30.926
87,1436538416093,-10.293,3.898,30.926
88,1436538416094,-10.293,3.898,30.926
89,1436538416095,-10.293,3.898,30.926
90,1436538416096,-10.293,3.898,30.926
91,1436538416111,-10.293,3.898,30.926
92,1436538416123,-10.293,3.898,30.926
93,1436538416143,-10.293,3.898,30.926
94,1436538416163,-10.293,3.898,30.926
95,1436538416187,-10.293,3.898,30.926
96,1436538416207,-10.293,3.898,30.926
97,1436538416278,-10.293,3.898,30.926
98,1436538416279,-10.293,3.898,30.926
99,1436538416291,-10.293,3.898,30.926
100,1436538416292,-10.293,3.898,30.926
101,1436538416303,-10.293,3.898,30.926
102,1436538416324,-10.293,3.898,30.926
103,1436538416346,-10.293,3.898,30.926
104,1436538416365,-10.293,3.898,30.926
105,1436538416384,-10.293,3.898,30.926
106,1436538416406,-10.293,3.898,30.926
107,1436538416426,-10.293,3.898,30.926
108,1436538416446,-10.293,3.898,30.926
109,1436538416466,-10.293,3.898,30.926
110,1436538416484,-10.293,3.596,30.926
111,1436538416506,-10.293,3.596,30.926
112,1436538416526,-10.293,3.596,30.926
113,1436538416543,-10.293,3.596,30.926
114,1436538416580,-10.293,3.202,30.926
115,1436538416587,-10.293,3.202,30.926
116,1436538416603,-10.293,3.202,30.926
117,1436538416623,-10.293,2.862,30.926
118,1436538416644,-10.293,2.862,31.227
119,1436538416664,-10.293,2.862,31.227
120,1436538416684,-10.293,2.862,31.227
121,1436538416704,-10.293,2.482,31.227
122,1436538416724,-10.293,2.482,31.227
123,1436538416744,-10.293,2.482,31.59
124,1436538416767,-10.293,2.482,31.59
125,1436538416787,-10.293,2.163,31.907
126,1436538416809,-10.293,2.163,32.225
127,1436538416866,-10.293,2.163,32.835
128,1436538416867,-10.293,2.163,32.835
129,1436538416868,-10.293,1.765,33.32
130,1436538416884,-10.293,1.765,33.32
131,1436538416904,-10.293,1.765,33.885
132,1436538416925,-10.293,1.432,33.885
133,1436538416944,-10.293,1.432,33.885
134,1436538416964,-10.293,1.432,33.885
135,1436538416986,-10.293,1.432,34.584
136,1436538417005,-10.293,1.055,34.584
137,1436538417025,-10.293,1.055,34.584
138,1436538417046,-10.293,1.055,34.584
139,1436538417064,-10.293,1.055,34.584
140,1436538417085,-10.293,1.055,34.887
141,1436538417105,-10.293,0.732,34.887
142,1436538417127,-10.293,0.732,35.205
143,1436538417147,-10.293,0.732,35.205
144,1436538417167,-10.293,0.732,35.51
145,1436538417186,-10.293,0.732,35.51
146,1436538417204,-10.293,0.732,35.51
147,1436538417227,-10.293,0.732,35.836
148,1436538417247,-10.293,0.732,35.836
149,1436538417266,-10.293,0.732,35.836
150,1436538417285,-10.293,1.104,35.836
151,1436538417305,-10.293,1.104,36.187
152,1436538417325,-10.293,1.104,36.187
153,1436538417345,-10.293,1.431,36.187
154,1436538417364,-10.293,1.431,36.187
155,1436538417388,-10.293,1.431,36.187
156,1436538417408,-10.293,1.841,34.429
157,1436538417428,-10.293,1.841,31.579
158,1436538417447,-10.293,2.223,29.71
159,1436538417466,-10.293,2.223,28.224
160,1436538417486,-10.293,2.679,27.528
161,1436538417506,-10.293,2.679,26.249
162,1436538417524,-9.931,3.262,25.494
163,1436538417547,-9.931,3.805,24.807
164,1436538417615,-9.931,4.623,24.043
165,1436538417616,-9.931,5.316,23.22
166,1436538417617,-9.931,5.928,22.749
167,1436538417624,-9.55,6.42,22.749
168,1436538417644,-9.55,6.878,22.749
169,1436538417676,-9.55,7.228,22.749
170,1436538417684,-9.55,7.575,22.749
171,1436538417706,-9.55,7.575,22.749
172,1436538417724,-9.55,7.575,22.749
173,1436538417747,-9.55,7.575,22.749
174,1436538417764,-9.236,7.197,23.272
175,1436538417785,-9.236,6.889,23.608
176,1436538417810,-9.236,6.889,24.076
177,1436538417826,-9.236,6.889,24.383
178,1436538417846,-9.236,6.889,24.383
179,1436538417868,-8.865,6.488,23.916
180,1436538417888,-8.865,6.488,23.916
181,1436538417908,-8.865,5.674,23.916
182,1436538417935,-8.525,4.823,24.737
183,1436538417945,-8.525,4.33,25.932
184,1436538417965,-8.525,3.633,26.774
185,1436538417985,-8.168,3.21,27.851
186,1436538418005,-8.168,3.21,28.392
187,1436538418025,-8.168,3.21,29.84
188,1436538418045,-7.844,3.21,30.708
189,1436538418065,-7.844,2.838,30.708
190,1436538418086,-7.844,2.838,31.019
191,1436538418108,-7.395,2.401,31.443
192,1436538418125,-7.395,2.401,32.032
193,1436538418145,-7.031,2.401,33.265
194,1436538418165,-7.031,1.725,33.685
195,1436538418185,-6.619,1.725,34.365
196,1436538418205,-6.619,1.725,35.05
197,1436538418225,-6.193,1.725,35.05
198,1436538418245,-6.193,1.725,35.513
199,1436538418267,-5.821,1.725,35.075
200,1436538418287,-5.821,1.725,35.075
201,1436538418309,-5.497,1.353,35.075
202,1436538418380,-5.497,1.353,35.075
203,1436538418381,-5.497,1.353,36.012
204,1436538418382,-5.099,0.952,36.012
205,1436538418387,-5.099,0.952,36.012
206,1436538418408,-5.099,0.952,36.012
207,1436538418428,-4.737,0.952,36.012
208,1436538418445,-4.737,0.599,36.012
209,1436538418473,-4.737,0.599,36.012
210,1436538418485,-4.737,0.599,35.63
211,1436538418506,-4.426,0.599,35.63
212,1436538418526,-4.426,0.599,35.63
213,1436538418545,-4.426,0.599,35.63
214,1436538418565,-4.426,0.599,35.63
215,1436538418588,-4.426,0.599,34.597
216,1436538418609,-4.426,0.599,32.089
217,1436538418628,-4.426,0.599,29.756
218,1436538418647,-4.426,0.599,28.227
219,1436538418667,-4.426,0.976,27.839
220,1436538418688,-4.426,0.976,26.766
221,1436538418708,-4.426,1.3,25.427
222,1436538418727,-4.742,1.3,24.792
223,1436538418746,-4.742,1.663,23.748
224,1436538418767,-4.742,1.663,23.377
225,1436538418786,-4.742,2.061,22.711
226,1436538418809,-4.742,2.061,22.711
227,1436538418827,-4.742,2.558,21.743
228,1436538418846,-4.742,2.558,21.743
229,1436538418868,-4.742,2.944,21.743
230,1436538418886,-4.742,2.944,21.743
231,1436538418908,-4.742,2.944,21.743
232,1436538418929,-4.742,3.308,21.743
233,1436538418947,-4.742,3.308,21.743
234,1436538418967,-4.742,3.611,22.457
235,1436538418989,-4.742,3.611,22.798
236,1436538419016,-4.742,3.611,23.588
237,1436538419093,-4.742,3.611,23.228
238,1436538419094,-4.742,3.611,23.228
239,1436538419095,-4.417,3.611,22.851
240,1436538419096,-4.417,3.611,22.851
241,1436538419106,-4.417,3.611,22.851
242,1436538419128,-4.417,3.611,23.286
243,1436538419146,-4.089,3.611,24.372
244,1436538419179,-4.089,2.722,25.5
245,1436538419186,-4.089,2.091,27.407
246,1436538419207,-4.089,1.483,27.909
247,1436538419227,-3.764,1.483,28.883
248,1436538419246,-3.764,0.862,29.835
249,1436538419266,-3.764,0.862,30.726
250,1436538419286,-3.764,0.862,31.512
251,1436538419309,-3.436,0.512,32.572
252,1436538419328,-3.436,0.512,33.602
253,1436538419349,-3.436,0.512,34.152
254,1436538419369,-3.436,0.135,34.582
255,1436538419388,-3.024,0.135,35.607
256,1436538419409,-3.024,0.135,35.937
257,1436538419429,-3.024,0.135,36.349
258,1436538419448,-2.621,0.135,36.666
259,1436538419469,-2.621,-0.205,37.191
260,1436538419488,-2.621,-0.205,38.38
261,1436538419508,-2.621,-0.511,38.38
262,1436538419529,-2.621,-0.511,38.996
263,1436538419549,-2.287,-0.511,38.363
264,1436538419570,-2.287,-0.511,37.995
265,1436538419588,-2.287,-0.511,37.489
266,1436538419609,-2.287,-0.511,37.489
267,1436538419633,-2.287,-0.511,37.489
268,1436538419650,-2.287,-0.511,37.489
269,1436538419667,-2.287,-0.511,36.46
270,1436538419690,-2.287,-0.511,35.995
271,1436538419714,-2.287,-0.511,35.995
272,1436538419739,-2.287,-0.511,35.995
273,1436538419748,-2.287,-0.511,34.947
274,1436538419797,-2.287,-0.511,33.117
275,1436538419798,-2.287,-0.511,31.436
276,1436538419809,-2.287,-0.511,29.925
277,1436538419826,-2.699,-0.511,28.681
278,1436538419848,-2.699,-0.511,26.736
279,1436538419867,-2.699,-0.511,26.736
280,1436538419886,-2.699,-0.207,25.439
281,1436538419907,-3.045,-0.207,24.566
282,1436538419926,-3.045,-0.207,24.035
283,1436538419951,-3.045,-0.207,23.423
284,1436538419974,-3.045,0.181,22.654
285,1436538419987,-3.045,0.181,21.546
286,1436538420007,-3.347,0.181,21.034
287,1436538420030,-3.347,0.61,20.141
288,1436538420051,-3.347,0.61,20.527
289,1436538420070,-3.347,0.967,20.527
290,1436538420088,-3.347,1.38,20.527
291,1436538420109,-3.347,1.741,20.527
292,1436538420129,-3.347,1.741,20.527
293,1436538420150,-3.347,1.741,21.057
294,1436538420172,-3.347,1.741,21.47
295,1436538420191,-3.347,1.741,22.277
296,1436538420208,-3.347,1.741,22.729
297,1436538420229,-3.347,1.741,23.11
298,1436538420247,-3.347,1.741,23.11
299,1436538420267,-3.347,0.65,23.11
300,1436538420287,-3.009,-0.329,24.203
301,1436538420309,-3.009,-1.089,25.492
302,1436538420333,-3.009,-1.777,27.03
303,1436538420349,-2.658,-2.308,28.776
304,1436538420371,-2.658,-2.308,29.962
305,1436538420387,-2.658,-2.308,30.577
306,1436538420407,-2.658,-2.308,31.105
307,1436538420427,-2.284,-2.716,31.883
308,1436538420449,-2.284,-2.716,31.883
309,1436538420468,-2.284,-2.716,33.105
310,1436538420523,-2.284,-2.716,33.543
311,1436538420524,-1.951,-2.307,34.091
312,1436538420532,-1.951,-2.307,35.853
313,1436538420547,-1.951,-2.307,36.267
314,1436538420571,-1.951,-2.307,36.267
315,1436538420592,-1.615,-2.307,36.267
316,1436538420607,-1.615,-2.682,37.232
317,1436538420628,-1.615,-2.682,37.539
318,1436538420649,-1.615,-2.682,37.539
319,1436538420667,-1.615,-3.028,37.539
320,1436538420689,-1.615,-3.028,37.879
321,1436538420709,-1.615,-3.028,38.386
322,1436538420729,-1.615,-3.028,38.923
323,1436538420751,-1.615,-3.028,38.273
324,1436538420770,-1.615,-3.028,38.273
325,1436538420791,-1.615,-3.028,37.448
326,1436538420808,-1.615,-3.028,37.448
327,1436538420830,-1.615,-3.028,36.61
328,1436538420851,-1.615,-3.028,36.61
329,1436538420871,-1.615,-3.028,36.276
330,1436538420890,-1.615,-3.028,35.414
331,1436538420910,-1.615,-3.028,33.285
332,1436538420929,-1.615,-3.028,31.314
333,1436538420952,-1.937,-3.028,29.324
334,1436538420967,-1.937,-2.709,28.141
335,1436538420988,-1.937,-2.709,27.546
336,1436538421008,-2.391,-2.709,26.049
337,1436538421027,-2.391,-2.369,24.247
338,1436538421048,-2.391,-2.369,23.133
339,1436538421068,-2.735,-2.369,22.323
340,1436538421088,-2.735,-1.924,21.189
341,1436538421108,-2.735,-1.924,20.648
342,1436538421128,-2.735,-1.533,19.607
343,1436538421148,-3.103,-0.996,18.786
344,1436538421172,-3.103,-0.288,17.988
345,1436538421248,-3.103,0.392,18.489
346,1436538421250,-3.103,0.846,18.489
347,1436538421251,-3.103,0.846,17.808
348,1436538421252,-3.103,0.846,19.081
349,1436538421394,-3.446,0.846,19.673
350,1436538421395,-3.446,0.372,20.382
351,1436538421396,-3.446,0.372,20.382
352,1436538421397,-3.446,0.372,20.382
353,1436538421398,-3.446,0.372,20.884
354,1436538421399,-3.446,0.372,21.376
355,1436538421400,-3.446,0.372,22.154
356,1436538421415,-3.085,-0.532,22.154
357,1436538421444,-3.085,-1.165,22.888
358,1436538421448,-3.085,-1.751,24.06
359,1436538421481,-3.085,-2.432,24.06
360,1436538421487,-3.085,-2.432,25.517
361,1436538421507,-3.085,-2.432,26.994
362,1436538421527,-3.085,-2.432,27.323
363,1436538421547,-3.085,-2.74,28.193
364,1436538421567,-3.085,-3.172,28.546
365,1436538421588,-3.085,-3.529,29.849
366,1436538421609,-3.085,-3.529,30.386
367,1436538421632,-3.085,-3.529,30.386
368,1436538421649,-2.714,-3.529,30.99
369,1436538421669,-2.714,-3.529,31.588
370,1436538421707,-2.714,-3.875,31.994
371,1436538421708,-2.412,-3.875,31.994
372,1436538421731,-2.412,-3.875,32.597
373,1436538421748,-2.412,-3.875,32.597
374,1436538421772,-2.412,-3.875,32.597
375,1436538421789,-2.412,-4.225,33.082
376,1436538421809,-2.412,-4.225,33.082
377,1436538421831,-2.412,-4.225,33.082
378,1436538421848,-2.412,-4.225,33.39
379,1436538421867,-2.412,-4.225,33.39
380,1436538421892,-2.412,-4.225,33.39
381,1436538421912,-2.412,-4.225,32.368
382,1436538421932,-2.412,-4.225,32.02
383,1436538421952,-2.412,-4.225,32.02
384,1436538421969,-2.412,-4.225,31.213
385,1436538421991,-2.412,-4.225,29.644
386,1436538422010,-2.412,-4.225,28.167
387,1436538422035,-2.412,-4.225,26.507
388,1436538422052,-2.412,-4.225,24.942
389,1436538422071,-2.412,-4.225,22.825
390,1436538422091,-2.412,-3.469,21.4
391,1436538422108,-2.412,-2.905,19.874
392,1436538422130,-2.412,-2.04,19.361
393,1436538422149,-2.804,-0.369,18.373
394,1436538422168,-2.804,0.575,18.032
395,1436538422189,-2.804,1.199,16.667
396,1436538422212,-3.109,1.545,16.667
397,1436538422232,-3.109,1.545,15.946
398,1436538422249,-3.109,2.224,15.946
399,1436538422272,-3.109,2.595,15.615
400,1436538422292,-3.109,2.595,15.615
401,1436538422312,-3.109,2.595,15.615
402,1436538422332,-3.109,2.595,15.615
403,1436538422350,-3.109,1.44,15.615
404,1436538422372,-3.109,1.44,15.969
405,1436538422392,-2.761,1.44,16.505
406,1436538422412,-2.761,1.019,16.833
407,1436538422431,-2.761,1.019,17.26
408,1436538422451,-2.317,1.019,17.26
409,1436538422473,-1.844,1.019,17.26
410,1436538422493,-1.202,1.019,16.68
411,1436538422513,-0.352,0.669,16.68
412,1436538422531,0.433,0.669,16.68
413,1436538422552,0.433,0.669,16.273
414,1436538422571,0.433,0.669,16.273
415,1436538422593,0.433,0.669,16.273
416,1436538422614,0.767,0.669,16.273
417,1436538422636,1.202,0.114,16.273
418,1436538422651,1.795,0.114,16.273
419,1436538422771,1.795,0.114,16.273
420,1436538422772,1.795,0.114,16.273
421,1436538422773,1.795,0.114,16.273
422,1436538422774,1.795,-0.326,16.273
423,1436538422775,1.795,-0.326,16.273
424,1436538422776,2.536,-0.749,16.273
425,1436538422791,3.131,-0.749,16.577
426,1436538422809,4.191,-1.216,16.577
427,1436538422829,5.064,-1.216,16.577
428,1436538422855,5.899,-2.032,16.577
429,1436538422871,6.527,-2.47,16.577
430,1436538422891,6.527,-2.943,16.577
431,1436538422911,6.857,-2.943,16.577
432,1436538422931,7.324,-3.491,16.889
433,1436538422954,7.324,-3.982,16.889
434,1436538422972,8.084,-3.982,16.889
435,1436538422993,8.084,-3.982,17.349
436,1436538423013,8.084,-4.307,17.349
437,1436538423033,8.084,-4.307,17.349
438,1436538423053,8.084,-3.936,17.741
439,1436538423072,8.084,-3.936,17.741
440,1436538423093,8.804,-3.936,18.083
441,1436538423113,8.804,-4.277,18.083
442,1436538423133,9.143,-4.277,18.083
443,1436538423153,9.143,-4.277,18.083
444,1436538423171,9.465,-4.655,18.083
445,1436538423193,9.465,-4.655,18.083
446,1436538423212,10.182,-4.655,18.083
447,1436538423240,10.9,-4.655,18.083
448,1436538423250,11.351,-4.655,16.889
449,1436538423271,11.351,-4.655,14.407
450,1436538423293,12.211,-4.655,12.828
451,1436538423313,12.705,-2.616,11.34
452,1436538423333,12.705,-1.446,10.314
453,1436538423353,12.705,0.209,9.443
454,1436538423376,12.705,0.99,8.526
455,1436538423393,12.705,2.33,8.039
456,1436538423413,12.705,3.28,7.482
457,1436538423434,12.705,4.298,6.756
458,1436538423504,12.705,5.01,6.756
459,1436538423505,12.705,5.412,6.756
460,1436538423506,12.705,4.959,6.214
461,1436538423513,12.705,5.302,6.541
462,1436538423533,13.116,4.896,6.541
463,1436538423555,13.116,4.489,6.541
464,1436538423571,13.523,3.437,7.414
465,1436538423590,13.523,2.41,8.512
466,1436538423617,13.902,1.031,9.239
467,1436538423634,13.902,0.617,9.239
468,1436538423652,16.279,1.055,8.75
469,1436538423673,17.601,1.725,7.997
470,1436538423697,17.601,2.156,7.676
471,1436538423713,17.601,2.156,7.676
472,1436538423732,17.913,2.156,7.676
473,1436538423753,18.351,2.156,7.676
474,1436538423773,19.099,1.808,7.676
475,1436538423792,19.958,1.47,7.676
476,1436538423813,19.958,1.47,7.676
477,1436538423833,19.467,1.47,7.676
478,1436538423854,19.094,0.77,8.283
479,1436538423873,19.094,0.422,8.283
480,1436538423896,19.459,0.422,8.601
481,1436538423913,20.281,0.061,8.601
482,1436538423936,21.282,0.061,9.513
483,1436538423956,22.631,0.061,10.479
484,1436538423976,23.159,-0.457,11.579
485,1436538423990,23.547,-0.978,11.579
486,1436538424013,23.547,-1.458,12.803
487,1436538424032,23.547,-2.017,13.166
488,1436538424052,24.034,-2.42,14.292
489,1436538424077,24.496,-2.42,14.292
490,1436538424095,25.007,-3.039,15.069
491,1436538424116,25.007,-3.039,15.428
492,1436538424134,25.337,-3.039,15.754
493,1436538424159,25.337,-3.541,16.154
494,1436538424232,25.848,-3.541,16.47
495,1436538424233,25.848,-3.541,17.593
496,1436538424234,26.644,-3.541,17.002
497,1436538424235,26.644,-3.541,17.002
498,1436538424252,27.421,-3.541,17.488
499,1436538424275,27.944,-3.541,17.488
500,1436538424291,27.944,-3.541,17.488
501,1436538424313,28.498,-3.541,17.111
502,1436538424333,28.498,-3.541,16.523
503,1436538424352,29.202,-3.541,15.898
504,1436538424373,29.963,-3.541,15.898
505,1436538424392,30.674,-2.891,15.446
506,1436538424415,31.114,-1.213,14.831
507,1436538424434,31.114,0.502,13.15
508,1436538424454,31.114,2.362,10.618
509,1436538424474,31.114,4.782,9.333
510,1436538424496,30.57,6.517,7.83
511,1436538424515,30.57,7.986,6.573
512,1436538424534,30.57,10.157,5.859
513,1436538424554,30.186,11.637,4.908
514,1436538424574,30.186,12.31,3.982
515,1436538424595,30.186,13.441,3.549
516,1436538424613,30.186,14.25,2.964
517,1436538424635,30.186,14.25,2.351
518,1436538424653,30.186,14.25,2.89
519,1436538424674,30.186,13.883,2.89
520,1436538424692,30.186,13.139,2.89
521,1436538424713,30.186,13.139,4.141
522,1436538424737,30.186,12.304,4.141
523,1436538424772,30.186,11.393,4.141
524,1436538424773,30.186,10.94,4.832
