id,attr_time,attr_light
1,1436166025027,46.0
2,1436166025028,46.0
3,1436166025052,46.0
4,1436166025068,46.0
5,1436166025085,46.0
6,1436166025107,46.0
7,1436166025124,46.0
8,1436166025144,46.0
9,1436166025167,46.0
10,1436166025191,46.0
11,1436166025206,46.0
12,1436166025227,46.0
13,1436166025246,46.0
14,1436166025265,46.0
15,1436166025287,46.0
16,1436166025305,46.0
17,1436166025328,46.0
18,1436166025352,46.0
19,1436166025368,46.0
20,1436166025388,46.0
21,1436166025410,46.0
22,1436166025427,46.0
23,1436166025448,46.0
24,1436166025472,46.0
25,1436166025488,46.0
26,1436166025509,46.0
27,1436166025538,46.0
28,1436166025546,46.0
29,1436166025567,46.0
30,1436166025588,46.0
31,1436166025606,46.0
32,1436166025626,46.0
33,1436166025649,46.0
34,1436166025668,46.0
35,1436166025689,46.0
36,1436166025711,46.0
37,1436166025729,46.0
38,1436166025747,46.0
39,1436166025769,46.0
40,1436166025797,46.0
41,1436166025847,46.0
42,1436166025848,46.0
43,1436166025849,46.0
44,1436166025869,46.0
45,1436166025888,46.0
46,1436166025907,46.0
47,1436166025926,46.0
48,1436166025949,46.0
49,1436166025968,46.0
50,1436166025989,46.0
51,1436166026012,46.0
52,1436166026027,46.0
53,1436166026047,46.0
54,1436166026069,46.0
55,1436166026086,46.0
56,1436166026107,46.0
57,1436166026131,46.0
58,1436166026150,46.0
59,1436166026169,46.0
60,1436166026192,46.0
61,1436166026210,46.0
62,1436166026230,46.0
63,1436166026253,46.0
64,1436166026268,46.0
65,1436166026290,46.0
66,1436166026312,46.0
67,1436166026330,46.0
68,1436166026350,46.0
69,1436166026373,46.0
70,1436166026389,46.0
71,1436166026409,46.0
72,1436166026439,46.0
73,1436166026482,46.0
74,1436166026483,46.0
75,1436166026497,46.0
76,1436166026536,46.0
77,1436166026537,46.0
78,1436166026550,46.0
79,1436166026565,46.0
80,1436166026586,46.0
81,1436166026608,46.0
82,1436166026627,46.0
83,1436166026649,46.0
84,1436166026673,46.0
85,1436166026688,46.0
86,1436166026710,46.0
87,1436166026733,46.0
88,1436166026748,46.0
89,1436166026770,46.0
90,1436166026794,46.0
91,1436166026809,46.0
92,1436166026830,46.0
93,1436166026849,46.0
94,1436166026869,46.0
95,1436166026889,46.0
96,1436166026912,46.0
97,1436166026928,46.0
98,1436166026950,46.0
99,1436166026972,46.0
100,1436166026994,46.0
101,1436166027036,46.0
102,1436166027037,46.0
103,1436166027046,46.0
104,1436166027090,46.0
105,1436166027093,46.0
106,1436166027108,46.0
107,1436166027142,46.0
108,1436166027156,46.0
109,1436166027169,46.0
110,1436166027187,46.0
111,1436166027211,46.0
112,1436166027229,46.0
113,1436166027251,46.0
114,1436166027274,46.0
115,1436166027294,46.0
116,1436166027310,46.0
117,1436166027333,46.0
118,1436166027351,46.0
119,1436166027370,46.0
120,1436166027393,46.0
121,1436166027409,46.0
122,1436166027434,46.0
123,1436166027453,46.0
124,1436166027474,46.0
125,1436166027490,46.0
126,1436166027586,46.0
127,1436166027587,46.0
128,1436166027588,46.0
129,1436166027589,46.0
130,1436166027590,46.0
131,1436166027614,46.0
132,1436166027629,46.0
133,1436166027649,46.0
134,1436166027668,46.0
135,1436166027718,46.0
136,1436166027719,46.0
137,1436166027732,46.0
138,1436166027760,46.0
139,1436166027774,46.0
140,1436166027787,46.0
141,1436166027810,46.0
142,1436166027827,46.0
143,1436166027847,46.0
144,1436166027869,46.0
145,1436166027887,46.0
146,1436166027907,46.0
147,1436166027930,46.0
148,1436166027947,46.0
149,1436166028201,46.0
150,1436166028202,46.0
151,1436166028203,46.0
152,1436166028204,46.0
153,1436166028205,46.0
154,1436166028206,46.0
155,1436166028207,46.0
156,1436166028208,46.0
157,1436166028209,46.0
158,1436166028210,46.0
159,1436166028211,46.0
160,1436166028212,46.0
161,1436166028213,46.0
162,1436166028231,46.0
163,1436166028247,46.0
164,1436166028267,46.0
165,1436166028291,46.0
166,1436166028315,46.0
167,1436166028328,46.0
168,1436166028351,46.0
169,1436166028369,46.0
170,1436166028388,46.0
171,1436166028411,46.0
172,1436166028429,46.0
173,1436166028448,46.0
174,1436166028480,46.0
175,1436166028492,46.0
176,1436166028512,46.0
177,1436166028532,46.0
178,1436166028552,47.0
179,1436166028573,47.0
180,1436166028594,47.0
181,1436166028612,47.0
182,1436166028634,47.0
183,1436166028654,47.0
184,1436166028673,47.0
185,1436166028690,47.0
186,1436166028714,47.0
187,1436166028730,47.0
188,1436166028754,47.0
189,1436166028774,47.0
190,1436166028795,47.0
191,1436166028812,47.0
192,1436166028834,47.0
193,1436166028849,47.0
194,1436166028870,47.0
195,1436166028892,48.0
196,1436166028955,48.0
197,1436166028956,48.0
198,1436166028957,48.0
199,1436166028969,48.0
200,1436166028989,48.0
201,1436166029020,47.0
202,1436166029035,47.0
203,1436166029053,47.0
204,1436166029075,47.0
205,1436166029089,47.0
206,1436166029108,47.0
207,1436166029132,47.0
208,1436166029150,47.0
209,1436166029169,47.0
210,1436166029193,47.0
211,1436166029213,47.0
212,1436166029233,47.0
213,1436166029255,47.0
214,1436166029273,47.0
215,1436166029292,47.0
216,1436166029315,47.0
217,1436166029333,47.0
218,1436166029350,47.0
219,1436166029373,47.0
220,1436166029391,47.0
221,1436166029411,47.0
222,1436166029438,47.0
223,1436166029456,47.0
224,1436166029472,47.0
225,1436166029494,47.0
226,1436166029511,47.0
227,1436166029530,47.0
228,1436166029553,47.0
229,1436166029571,47.0
230,1436166029619,47.0
231,1436166029620,47.0
232,1436166029635,47.0
233,1436166029651,47.0
234,1436166029672,47.0
235,1436166029689,47.0
236,1436166029713,47.0
237,1436166029732,47.0
238,1436166029752,47.0
239,1436166029773,47.0
240,1436166029795,47.0
241,1436166029813,47.0
242,1436166029830,47.0
243,1436166029855,47.0
244,1436166029873,47.0
245,1436166029893,47.0
246,1436166029915,47.0
247,1436166029933,47.0
248,1436166029956,47.0
249,1436166029975,47.0
250,1436166029993,47.0
251,1436166030014,47.0
252,1436166030034,47.0
253,1436166030053,47.0
254,1436166030074,47.0
255,1436166030096,47.0
256,1436166030113,47.0
257,1436166030134,47.0
258,1436166030155,47.0
259,1436166030174,47.0
260,1436166030194,47.0
261,1436166030288,47.0
262,1436166030289,47.0
263,1436166030290,47.0
264,1436166030291,47.0
265,1436166030292,47.0
266,1436166030313,47.0
267,1436166030341,47.0
268,1436166030371,47.0
269,1436166030372,47.0
270,1436166030397,47.0
271,1436166030412,47.0
272,1436166030434,47.0
273,1436166030456,47.0
274,1436166030475,47.0
275,1436166030496,47.0
276,1436166030516,47.0
277,1436166030534,47.0
278,1436166030554,47.0
279,1436166030576,47.0
280,1436166030593,47.0
281,1436166030614,47.0
282,1436166030635,47.0
283,1436166030652,47.0
284,1436166030674,47.0
285,1436166030694,47.0
286,1436166030711,47.0
287,1436166030732,47.0
288,1436166030758,47.0
289,1436166030777,47.0
290,1436166030797,47.0
291,1436166030816,47.0
292,1436166030832,47.0
293,1436166030852,47.0
294,1436166030877,47.0
295,1436166030894,47.0
296,1436166030912,47.0
297,1436166030954,47.0
298,1436166030955,47.0
299,1436166030970,47.0
300,1436166031004,47.0
301,1436166031018,47.0
302,1436166031032,47.0
303,1436166031061,47.0
304,1436166031074,47.0
305,1436166031095,47.0
306,1436166031117,47.0
307,1436166031135,47.0
308,1436166031154,47.0
309,1436166031176,47.0
310,1436166031194,47.0
311,1436166031214,47.0
312,1436166031237,47.0
313,1436166031255,47.0
314,1436166031273,47.0
315,1436166031297,47.0
316,1436166031315,47.0
317,1436166031335,47.0
318,1436166031357,47.0
319,1436166031374,47.0
320,1436166031396,47.0
321,1436166031417,47.0
322,1436166031436,47.0
323,1436166031455,47.0
324,1436166031476,48.0
325,1436166031494,48.0
326,1436166031514,48.0
327,1436166031626,48.0
328,1436166031627,48.0
329,1436166031628,48.0
330,1436166031629,48.0
331,1436166031630,48.0
332,1436166031631,48.0
333,1436166031661,48.0
334,1436166031680,48.0
335,1436166031692,48.0
336,1436166031715,48.0
337,1436166031733,48.0
338,1436166031755,47.0
339,1436166031776,47.0
340,1436166031795,47.0
341,1436166031815,47.0
342,1436166031837,47.0
343,1436166031854,47.0
344,1436166031879,47.0
345,1436166031898,47.0
346,1436166031915,47.0
347,1436166031935,47.0
348,1436166031956,47.0
349,1436166031973,47.0
350,1436166031995,47.0
351,1436166032015,47.0
352,1436166032034,47.0
353,1436166032054,47.0
354,1436166032080,47.0
355,1436166032095,47.0
356,1436166032115,47.0
357,1436166032138,47.0
358,1436166032155,47.0
359,1436166032175,47.0
360,1436166032195,47.0
361,1436166032215,47.0
362,1436166032233,47.0
363,1436166032276,47.0
364,1436166032277,47.0
365,1436166032296,47.0
366,1436166032314,47.0
367,1436166032331,47.0
368,1436166032356,47.0
369,1436166032374,47.0
370,1436166032392,47.0
371,1436166032414,47.0
372,1436166032439,47.0
373,1436166032456,47.0
374,1436166032476,47.0
375,1436166032497,47.0
376,1436166032516,47.0
377,1436166032536,47.0
378,1436166032558,47.0
379,1436166032576,47.0
380,1436166032596,47.0
381,1436166032619,48.0
382,1436166032634,48.0
383,1436166032656,48.0
384,1436166032678,48.0
385,1436166032693,48.0
386,1436166032714,48.0
387,1436166032739,48.0
388,1436166032758,48.0
389,1436166032779,48.0
390,1436166032798,48.0
391,1436166032813,48.0
392,1436166032834,48.0
393,1436166032858,47.0
394,1436166032875,47.0
395,1436166032960,47.0
396,1436166032961,47.0
397,1436166032962,47.0
398,1436166032963,47.0
399,1436166032974,47.0
400,1436166032995,47.0
401,1436166033013,47.0
402,1436166033035,47.0
403,1436166033056,47.0
404,1436166033073,47.0
405,1436166033100,47.0
406,1436166033118,47.0
407,1436166033138,47.0
408,1436166033158,47.0
409,1436166033176,47.0
410,1436166033197,47.0
411,1436166033219,47.0
412,1436166033237,47.0
413,1436166033257,47.0
414,1436166033279,47.0
415,1436166033295,47.0
416,1436166033316,47.0
417,1436166033339,47.0
418,1436166033357,47.0
419,1436166033377,48.0
420,1436166033399,48.0
421,1436166033416,48.0
422,1436166033436,48.0
423,1436166033457,48.0
424,1436166033477,48.0
425,1436166033497,48.0
426,1436166033517,48.0
427,1436166033535,47.0
428,1436166033608,47.0
429,1436166033609,47.0
430,1436166033610,47.0
431,1436166033615,47.0
432,1436166033637,47.0
433,1436166033656,47.0
434,1436166033673,47.0
435,1436166033696,47.0
436,1436166033715,47.0
437,1436166033737,47.0
438,1436166033759,46.0
439,1436166033777,46.0
440,1436166033796,46.0
441,1436166033819,46.0
442,1436166033837,46.0
443,1436166033857,46.0
444,1436166033879,46.0
445,1436166033897,46.0
446,1436166033917,46.0
447,1436166033939,46.0
448,1436166033955,46.0
449,1436166033978,46.0
450,1436166033999,46.0
451,1436166034019,46.0
452,1436166034039,46.0
453,1436166034058,46.0
454,1436166034077,46.0
455,1436166034097,46.0
456,1436166034120,46.0
457,1436166034139,46.0
458,1436166034159,46.0
459,1436166034180,46.0
460,1436166034198,46.0
461,1436166034219,46.0
462,1436166034268,46.0
463,1436166034269,46.0
464,1436166034276,46.0
465,1436166034297,46.0
466,1436166034315,46.0
467,1436166034334,46.0
468,1436166034358,46.0
469,1436166034374,46.0
470,1436166034396,46.0
471,1436166034419,46.0
472,1436166034438,46.0
473,1436166034458,46.0
474,1436166034479,47.0
475,1436166034497,47.0
476,1436166034518,47.0
477,1436166034540,47.0
478,1436166034558,47.0
479,1436166034578,47.0
480,1436166034600,47.0
481,1436166034619,47.0
482,1436166034636,47.0
483,1436166034660,47.0
484,1436166034676,47.0
485,1436166034696,47.0
486,1436166034718,47.0
487,1436166034740,47.0
488,1436166034760,47.0
489,1436166034780,47.0
490,1436166034798,47.0
491,1436166034816,47.0
492,1436166034840,47.0
493,1436166034855,47.0
494,1436166034878,47.0
495,1436166034939,47.0
496,1436166034940,47.0
497,1436166034941,47.0
498,1436166034958,47.0
499,1436166034978,47.0
500,1436166035003,47.0
501,1436166035019,46.0
502,1436166035036,46.0
503,1436166035059,46.0
504,1436166035078,46.0
505,1436166035098,46.0
506,1436166035118,46.0
507,1436166035140,46.0
508,1436166035157,46.0
509,1436166035179,46.0
510,1436166035202,46.0
511,1436166035218,46.0
512,1436166035239,46.0
513,1436166035261,46.0
514,1436166035278,46.0
515,1436166035312,46.0
516,1436166035373,46.0
517,1436166035374,46.0
518,1436166035375,46.0
519,1436166035449,46.0
520,1436166035450,46.0
521,1436166035451,46.0
522,1436166035452,46.0
523,1436166035464,46.0
524,1436166035474,46.0
525,1436166035496,46.0
526,1436166035514,46.0
527,1436166035538,46.0
528,1436166035558,46.0
529,1436166035576,46.0
530,1436166035595,47.0
531,1436166035619,47.0
532,1436166035635,47.0
533,1436166035656,47.0
534,1436166035679,47.0
535,1436166035696,47.0
536,1436166035716,47.0
537,1436166035738,47.0
538,1436166035756,47.0
539,1436166035777,47.0
540,1436166035798,47.0
541,1436166035822,48.0
542,1436166035838,48.0
543,1436166035860,48.0
544,1436166035878,48.0
545,1436166035902,48.0
546,1436166035921,48.0
547,1436166035938,48.0
548,1436166035969,48.0
549,1436166035982,48.0
550,1436166035996,48.0
551,1436166036016,47.0
552,1436166036038,47.0
553,1436166036056,47.0
554,1436166036078,47.0
555,1436166036105,47.0
556,1436166036117,47.0
557,1436166036138,47.0
558,1436166036163,47.0
559,1436166036207,47.0
560,1436166036208,47.0
561,1436166036220,47.0
562,1436166036238,46.0
563,1436166036265,46.0
564,1436166036280,46.0
565,1436166036297,46.0
566,1436166036318,46.0
567,1436166036339,46.0
568,1436166036359,46.0
569,1436166036378,46.0
570,1436166036403,46.0
571,1436166036418,46.0
572,1436166036438,46.0
573,1436166036466,46.0
574,1436166036477,46.0
575,1436166036497,46.0
576,1436166036519,46.0
577,1436166036537,46.0
578,1436166036557,46.0
579,1436166036582,46.0
580,1436166036598,46.0
581,1436166036618,46.0
582,1436166036641,46.0
583,1436166036660,46.0
584,1436166036680,46.0
585,1436166036705,46.0
586,1436166036718,46.0
587,1436166036738,46.0
588,1436166036759,46.0
589,1436166036778,45.0
590,1436166036800,45.0
591,1436166036820,45.0
592,1436166036869,44.0
593,1436166036870,44.0
594,1436166036885,44.0
595,1436166036903,44.0
596,1436166036930,44.0
597,1436166036945,44.0
598,1436166036959,44.0
599,1436166036976,44.0
600,1436166036998,44.0
601,1436166037016,44.0
602,1436166037036,45.0
603,1436166037062,45.0
604,1436166037078,46.0
605,1436166037099,46.0
606,1436166037123,46.0
607,1436166037138,46.0
608,1436166037158,47.0
609,1436166037185,48.0
610,1436166037199,48.0
611,1436166037220,49.0
612,1436166037241,49.0
613,1436166037258,49.0
614,1436166037277,49.0
615,1436166037304,49.0
616,1436166037323,49.0
617,1436166037344,49.0
618,1436166037363,49.0
619,1436166037378,48.0
620,1436166037398,48.0
621,1436166037423,46.0
622,1436166037440,46.0
623,1436166037510,45.0
624,1436166037511,45.0
625,1436166037518,44.0
626,1436166037519,44.0
627,1436166037545,43.0
628,1436166037558,43.0
629,1436166037576,43.0
630,1436166037600,42.0
631,1436166037624,42.0
632,1436166037639,42.0
633,1436166037664,42.0
634,1436166037680,42.0
635,1436166037702,42.0
636,1436166037725,42.0
637,1436166037740,42.0
638,1436166037761,43.0
639,1436166037782,43.0
640,1436166037802,42.0
641,1436166037819,42.0
642,1436166037843,42.0
643,1436166037859,42.0
644,1436166037878,42.0
645,1436166037901,42.0
646,1436166037924,42.0
647,1436166037941,42.0
648,1436166038034,42.0
649,1436166038035,42.0
650,1436166038036,42.0
651,1436166038037,42.0
652,1436166038038,42.0
653,1436166038059,42.0
654,1436166038084,42.0
655,1436166038099,42.0
656,1436166038129,42.0
657,1436166038143,42.0
658,1436166038161,42.0
659,1436166038178,43.0
660,1436166038201,43.0
661,1436166038221,43.0
662,1436166038238,43.0
663,1436166038264,43.0
664,1436166038285,43.0
665,1436166038301,43.0
666,1436166038323,43.0
667,1436166038342,43.0
668,1436166038361,43.0
669,1436166038383,43.0
670,1436166038402,43.0
671,1436166038421,43.0
672,1436166038444,43.0
673,1436166038462,43.0
674,1436166038482,43.0
675,1436166038504,43.0
676,1436166038520,43.0
677,1436166038552,43.0
678,1436166038565,43.0
679,1436166038582,43.0
680,1436166038599,43.0
681,1436166038621,43.0
682,1436166038639,43.0
683,1436166038665,43.0
684,1436166038760,42.0
685,1436166038761,42.0
686,1436166038762,42.0
687,1436166038763,42.0
688,1436166038764,42.0
689,1436166038778,42.0
690,1436166038801,42.0
691,1436166038819,42.0
692,1436166038843,42.0
693,1436166038863,42.0
694,1436166038882,42.0
695,1436166038902,42.0
696,1436166038924,42.0
697,1436166038946,42.0
698,1436166038962,42.0
699,1436166038984,42.0
700,1436166039002,42.0
701,1436166039064,42.0
702,1436166039065,42.0
703,1436166039066,42.0
704,1436166039078,42.0
705,1436166039100,42.0
706,1436166039118,42.0
707,1436166039138,42.0
708,1436166039164,42.0
709,1436166039182,42.0
710,1436166039202,42.0
711,1436166039224,42.0
712,1436166039242,42.0
713,1436166039266,42.0
714,1436166039285,42.0
715,1436166039305,42.0
716,1436166039323,42.0
717,1436166039342,42.0
718,1436166039387,42.0
719,1436166039388,42.0
720,1436166039403,42.0
721,1436166039422,42.0
722,1436166039439,43.0
723,1436166039464,43.0
724,1436166039479,43.0
725,1436166039500,43.0
726,1436166039525,43.0
727,1436166039541,43.0
728,1436166039560,43.0
729,1436166039583,43.0
730,1436166039600,43.0
731,1436166039620,43.0
732,1436166039645,43.0
733,1436166039664,43.0
734,1436166039684,43.0
735,1436166039725,43.0
736,1436166039726,43.0
737,1436166039744,43.0
738,1436166039765,43.0
739,1436166039782,43.0
740,1436166039802,43.0
741,1436166039825,43.0
742,1436166039844,43.0
743,1436166039863,43.0
744,1436166039885,43.0
745,1436166039903,43.0
746,1436166039923,43.0
747,1436166039944,43.0
748,1436166039963,43.0
749,1436166039983,43.0
750,1436166040033,43.0
751,1436166040034,43.0
752,1436166040051,43.0
753,1436166040068,43.0
754,1436166040087,42.0
755,1436166040100,42.0
756,1436166040124,42.0
757,1436166040142,42.0
758,1436166040163,42.0
759,1436166040185,42.0
760,1436166040203,42.0
761,1436166040223,42.0
762,1436166040243,42.0
763,1436166040263,42.0
764,1436166040284,42.0
765,1436166040306,42.0
766,1436166040323,42.0
767,1436166040343,42.0
768,1436166040366,42.0
769,1436166040384,42.0
770,1436166040403,42.0
771,1436166040426,42.0
772,1436166040441,42.0
773,1436166040466,42.0
774,1436166040487,42.0
775,1436166040506,42.0
776,1436166040523,42.0
777,1436166040548,42.0
778,1436166040646,42.0
779,1436166040647,42.0
780,1436166040648,42.0
781,1436166040649,42.0
782,1436166040650,42.0
783,1436166040662,42.0
784,1436166040689,42.0
785,1436166040703,42.0
786,1436166040722,42.0
787,1436166040741,42.0
788,1436166040761,42.0
789,1436166040785,42.0
790,1436166040892,42.0
791,1436166040893,42.0
792,1436166040894,42.0
793,1436166040895,42.0
794,1436166040896,41.0
795,1436166040902,41.0
796,1436166040919,41.0
797,1436166040940,41.0
798,1436166040962,41.0
799,1436166040980,41.0
800,1436166041004,41.0
801,1436166041024,41.0
802,1436166041044,41.0
803,1436166041063,41.0
804,1436166041086,41.0
805,1436166041104,41.0
806,1436166041123,41.0
807,1436166041146,41.0
808,1436166041164,41.0
809,1436166041184,41.0
810,1436166041205,41.0
811,1436166041223,41.0
812,1436166041269,41.0
813,1436166041270,41.0
814,1436166041280,41.0
815,1436166041314,41.0
816,1436166041329,41.0
817,1436166041342,41.0
818,1436166041366,41.0
819,1436166041384,41.0
820,1436166041404,41.0
821,1436166041425,42.0
822,1436166041446,41.0
823,1436166041466,41.0
824,1436166041484,41.0
825,1436166041507,41.0
826,1436166041524,41.0
827,1436166041569,41.0
828,1436166041570,41.0
829,1436166041586,41.0
830,1436166041602,42.0
831,1436166041627,42.0
832,1436166041644,41.0
833,1436166041665,41.0
834,1436166041686,42.0
835,1436166041705,42.0
836,1436166041725,42.0
837,1436166041748,42.0
838,1436166041765,42.0
839,1436166041785,42.0
840,1436166041806,42.0
841,1436166041826,41.0
842,1436166041846,41.0
843,1436166041868,42.0
844,1436166041949,42.0
845,1436166041950,41.0
846,1436166041951,41.0
847,1436166041952,41.0
848,1436166041968,41.0
849,1436166041983,41.0
850,1436166042002,41.0
851,1436166042022,41.0
852,1436166042044,41.0
853,1436166042065,41.0
854,1436166042085,41.0
855,1436166042107,41.0
856,1436166042127,41.0
857,1436166042143,41.0
858,1436166042167,41.0
859,1436166042185,41.0
860,1436166042205,41.0
861,1436166042227,41.0
862,1436166042245,41.0
863,1436166042264,41.0
864,1436166042288,41.0
865,1436166042305,41.0
866,1436166042325,41.0
867,1436166042348,41.0
868,1436166042365,41.0
869,1436166042385,41.0
870,1436166042410,41.0
871,1436166042425,41.0
872,1436166042445,41.0
873,1436166042467,41.0
