id,attr_time,attr_light
1,1436166025005,0.0
2,1436166025027,0.0
3,1436166025047,0.0
4,1436166025067,0.0
5,1436166025085,0.0
6,1436166025105,0.0
7,1436166025129,0.0
8,1436166025146,0.0
9,1436166025167,0.0
10,1436166025185,0.0
11,1436166025206,0.0
12,1436166025226,0.0
13,1436166025250,0.0
14,1436166025270,0.0
15,1436166025290,0.0
16,1436166025308,0.0
17,1436166025325,0.0
18,1436166025344,0.0
19,1436166025365,0.0
20,1436166025385,0.0
21,1436166025405,0.0
22,1436166025459,0.0
23,1436166025460,0.0
24,1436166025477,0.0
25,1436166025484,0.0
26,1436166025505,0.0
27,1436166025527,0.0
28,1436166025544,0.0
29,1436166025569,0.0
30,1436166025585,0.0
31,1436166025605,0.0
32,1436166025625,0.0
33,1436166025645,0.0
34,1436166025668,0.0
35,1436166025688,0.0
36,1436166025708,0.0
37,1436166025726,0.0
38,1436166025748,0.0
39,1436166025768,0.0
40,1436166025788,0.0
41,1436166025808,0.0
42,1436166025825,0.0
43,1436166025845,0.0
44,1436166025866,0.0
45,1436166025887,0.0
46,1436166025908,0.0
47,1436166025926,0.0
48,1436166025947,0.0
49,1436166025968,0.0
50,1436166025989,0.0
51,1436166026009,0.0
52,1436166026031,0.0
53,1436166026048,0.0
54,1436166026068,0.0
55,1436166026085,0.0
56,1436166026107,0.0
57,1436166026127,0.0
58,1436166026149,0.0
59,1436166026213,0.0
60,1436166026214,0.0
61,1436166026215,0.0
62,1436166026225,0.0
63,1436166026250,0.0
64,1436166026266,0.0
65,1436166026287,0.0
66,1436166026307,0.0
67,1436166026326,0.0
68,1436166026346,0.0
69,1436166026366,0.0
70,1436166026388,0.0
71,1436166026405,0.0
72,1436166026429,0.0
73,1436166026448,0.0
74,1436166026465,0.0
75,1436166026486,0.0
76,1436166026506,0.0
77,1436166026525,0.0
78,1436166026549,0.0
79,1436166026569,0.0
80,1436166026590,0.0
81,1436166026606,0.0
82,1436166026629,0.0
83,1436166026646,0.0
84,1436166026665,0.0
85,1436166026686,0.0
86,1436166026711,0.0
87,1436166026731,0.0
88,1436166026753,0.0
89,1436166026769,0.0
90,1436166026814,0.0
91,1436166026815,0.0
92,1436166026826,0.0
93,1436166026846,0.0
94,1436166026866,0.0
95,1436166026920,0.0
96,1436166026921,0.0
97,1436166026938,0.0
98,1436166026946,0.0
99,1436166026967,0.0
100,1436166026988,0.0
101,1436166027006,0.0
102,1436166027032,0.0
103,1436166027047,0.0
104,1436166027068,0.0
105,1436166027088,0.0
106,1436166027107,0.0
107,1436166027129,0.0
108,1436166027148,0.0
109,1436166027170,0.0
110,1436166027189,0.0
111,1436166027209,0.0
112,1436166027229,0.0
113,1436166027249,0.0
114,1436166027271,0.0
115,1436166027289,0.0
116,1436166027309,0.0
117,1436166027327,0.0
118,1436166027348,0.0
119,1436166027369,0.0
120,1436166027387,0.0
121,1436166027408,0.0
122,1436166027430,0.0
123,1436166027449,0.0
124,1436166027469,0.0
125,1436166027490,0.0
126,1436166027510,0.0
127,1436166027530,0.0
128,1436166027548,0.0
129,1436166027568,0.0
130,1436166027587,0.0
131,1436166027607,0.0
132,1436166027654,0.0
133,1436166027655,0.0
134,1436166027675,0.0
135,1436166027686,0.0
136,1436166027708,0.0
137,1436166027727,0.0
138,1436166027746,0.0
139,1436166027768,0.0
140,1436166027786,0.0
141,1436166027809,0.0
142,1436166027831,0.0
143,1436166027847,0.0
144,1436166027869,0.0
145,1436166027888,0.0
146,1436166027909,0.0
147,1436166027930,0.0
148,1436166027950,0.0
149,1436166027970,0.0
150,1436166027987,0.0
151,1436166028010,0.0
152,1436166028030,0.0
153,1436166028050,0.0
154,1436166028068,0.0
155,1436166028089,0.0
156,1436166028109,0.0
157,1436166028130,0.0
158,1436166028150,0.0
159,1436166028169,0.0
160,1436166028190,0.0
161,1436166028210,0.0
162,1436166028229,0.0
163,1436166028250,0.0
164,1436166028275,0.0
165,1436166028287,0.0
166,1436166028307,0.0
167,1436166028327,0.0
168,1436166028347,0.0
169,1436166028375,0.0
170,1436166028387,0.0
171,1436166028407,0.0
172,1436166028427,0.0
173,1436166028447,0.0
174,1436166028467,0.0
175,1436166028488,0.0
176,1436166028524,0.0
177,1436166028527,0.0
178,1436166028568,0.0
179,1436166028569,0.0
180,1436166028603,0.0
181,1436166028609,0.0
182,1436166028636,0.0
183,1436166028648,0.0
184,1436166028668,0.0
185,1436166028688,0.0
186,1436166028708,0.0
187,1436166028728,0.0
188,1436166028747,0.0
189,1436166028768,0.0
190,1436166028789,0.0
191,1436166028810,0.0
192,1436166028838,0.0
193,1436166028848,0.0
194,1436166028868,0.0
195,1436166028888,0.0
196,1436166028908,0.0
197,1436166028931,0.0
198,1436166028948,0.0
199,1436166028968,0.0
200,1436166028987,0.0
201,1436166029009,0.0
202,1436166029028,0.0
203,1436166029048,0.0
204,1436166029067,0.0
205,1436166029087,0.0
206,1436166029107,0.0
207,1436166029138,0.0
208,1436166029147,0.0
209,1436166029168,0.0
210,1436166029187,0.0
211,1436166029209,0.0
212,1436166029228,0.0
213,1436166029249,0.0
214,1436166029268,0.0
215,1436166029291,0.0
216,1436166029311,0.0
217,1436166029328,0.0
218,1436166029348,0.0
219,1436166029371,0.0
220,1436166029391,0.0
221,1436166029411,0.0
222,1436166029428,0.0
223,1436166029449,0.0
224,1436166029471,0.0
225,1436166029488,0.0
226,1436166029508,0.0
227,1436166029529,0.0
228,1436166029549,0.0
229,1436166029570,0.0
230,1436166029590,0.0
231,1436166029609,0.0
232,1436166029629,0.0
233,1436166029650,0.0
234,1436166029672,0.0
235,1436166029691,0.0
236,1436166029711,0.0
237,1436166029731,0.0
238,1436166029749,0.0
239,1436166029772,0.0
240,1436166029821,0.0
241,1436166029822,0.0
242,1436166029842,0.0
243,1436166029850,0.0
244,1436166029870,0.0
245,1436166029890,0.0
246,1436166029908,0.0
247,1436166029929,0.0
248,1436166029949,0.0
249,1436166029971,0.0
250,1436166029989,0.0
251,1436166030009,0.0
252,1436166030029,0.0
253,1436166030049,0.0
254,1436166030068,0.0
255,1436166030092,0.0
256,1436166030112,0.0
257,1436166030132,0.0
258,1436166030151,0.0
259,1436166030170,0.0
260,1436166030192,0.0
261,1436166030212,0.0
262,1436166030230,0.0
263,1436166030251,0.0
264,1436166030272,0.0
265,1436166030289,0.0
266,1436166030309,0.0
267,1436166030329,0.0
268,1436166030349,0.0
269,1436166030371,0.0
270,1436166030403,0.0
271,1436166030409,0.0
272,1436166030429,0.0
273,1436166030449,0.0
274,1436166030469,0.0
275,1436166030489,0.0
276,1436166030509,0.0
277,1436166030543,0.0
278,1436166030556,0.0
279,1436166030570,0.0
280,1436166030589,0.0
281,1436166030610,0.0
282,1436166030629,0.0
283,1436166030655,0.0
284,1436166030669,0.0
285,1436166030689,0.0
286,1436166030711,0.0
287,1436166030729,0.0
288,1436166030749,0.0
289,1436166030771,0.0
290,1436166030789,0.0
291,1436166030809,0.0
292,1436166030829,0.0
293,1436166030849,0.0
294,1436166030869,0.0
295,1436166030889,0.0
296,1436166030912,0.0
297,1436166030932,0.0
298,1436166030949,0.0
299,1436166030971,0.0
300,1436166030990,0.0
301,1436166031012,0.0
302,1436166031035,0.0
303,1436166031051,0.0
304,1436166031071,0.0
305,1436166031090,0.0
306,1436166031109,0.0
307,1436166031130,0.0
308,1436166031155,0.0
309,1436166031175,0.0
310,1436166031190,0.0
311,1436166031234,0.0
312,1436166031235,0.0
313,1436166031249,0.0
314,1436166031269,0.0
315,1436166031289,0.0
316,1436166031311,0.0
317,1436166031330,0.0
318,1436166031352,0.0
319,1436166031371,0.0
320,1436166031392,0.0
321,1436166031413,0.0
322,1436166031436,0.0
323,1436166031452,0.0
324,1436166031471,0.0
325,1436166031491,0.0
326,1436166031512,0.0
327,1436166031537,0.0
328,1436166031549,0.0
329,1436166031570,0.0
330,1436166031590,0.0
331,1436166031611,0.0
332,1436166031632,0.0
333,1436166031650,0.0
334,1436166031671,0.0
335,1436166031690,0.0
336,1436166031715,0.0
337,1436166031737,0.0
338,1436166031756,0.0
339,1436166031774,0.0
340,1436166031791,0.0
341,1436166031810,0.0
342,1436166031830,0.0
343,1436166031854,0.0
344,1436166031871,0.0
345,1436166031940,0.0
346,1436166031941,0.0
347,1436166031942,0.0
348,1436166031950,0.0
349,1436166031974,0.0
350,1436166031995,0.0
351,1436166032010,0.0
352,1436166032033,0.0
353,1436166032051,0.0
354,1436166032072,0.0
355,1436166032091,0.0
356,1436166032113,0.0
357,1436166032131,0.0
358,1436166032155,0.0
359,1436166032174,0.0
360,1436166032193,0.0
361,1436166032213,0.0
362,1436166032234,0.0
363,1436166032255,0.0
364,1436166032274,0.0
365,1436166032292,0.0
366,1436166032312,0.0
367,1436166032333,0.0
368,1436166032355,0.0
369,1436166032381,0.0
370,1436166032396,0.0
371,1436166032417,0.0
372,1436166032433,0.0
373,1436166032452,0.0
374,1436166032472,0.0
375,1436166032493,0.0
376,1436166032514,0.0
377,1436166032537,0.0
378,1436166032556,0.0
379,1436166032574,0.0
380,1436166032644,0.0
381,1436166032645,0.0
382,1436166032646,0.0
383,1436166032660,0.0
384,1436166032673,0.0
385,1436166032695,0.0
386,1436166032716,0.0
387,1436166032731,0.0
388,1436166032751,0.0
389,1436166032773,0.0
390,1436166032793,0.0
391,1436166032812,0.0
392,1436166032832,0.0
393,1436166032857,0.0
394,1436166032875,0.0
395,1436166032895,0.0
396,1436166032915,0.0
397,1436166032935,0.0
398,1436166032955,0.0
399,1436166032975,0.0
400,1436166032995,0.0
401,1436166033014,0.0
402,1436166033035,0.0
403,1436166033053,0.0
404,1436166033073,0.0
405,1436166033095,0.0
406,1436166033114,0.0
407,1436166033135,0.0
408,1436166033154,0.0
409,1436166033174,0.0
410,1436166033195,0.0
411,1436166033215,0.0
412,1436166033235,0.0
413,1436166033256,0.0
414,1436166033275,0.0
415,1436166033296,0.0
416,1436166033313,0.0
417,1436166033422,0.0
418,1436166033444,0.0
419,1436166033445,0.0
420,1436166033446,0.0
421,1436166033447,0.0
422,1436166033448,0.0
423,1436166033478,0.0
424,1436166033479,0.0
425,1436166033584,0.0
426,1436166033585,0.0
427,1436166033586,0.0
428,1436166033587,0.0
429,1436166033588,0.0
430,1436166033638,0.0
431,1436166033639,0.0
432,1436166033640,0.0
433,1436166033652,0.0
434,1436166033672,0.0
435,1436166033692,0.0
436,1436166033712,0.0
437,1436166033732,0.0
438,1436166033752,0.0
439,1436166033774,0.0
440,1436166033792,0.0
441,1436166033812,0.0
442,1436166033832,0.0
443,1436166033856,0.0
444,1436166033872,0.0
445,1436166033897,0.0
446,1436166033918,0.0
447,1436166033936,0.0
448,1436166033956,0.0
449,1436166033976,0.0
450,1436166033995,0.0
451,1436166034015,0.0
452,1436166034036,0.0
453,1436166034052,0.0
454,1436166034076,0.0
455,1436166034094,0.0
456,1436166034113,0.0
457,1436166034145,0.0
458,1436166034159,0.0
459,1436166034175,0.0
460,1436166034192,0.0
461,1436166034214,0.0
462,1436166034233,0.0
463,1436166034254,0.0
464,1436166034273,0.0
465,1436166034296,0.0
466,1436166034316,0.0
467,1436166034334,0.0
468,1436166034352,0.0
469,1436166034375,0.0
470,1436166034396,0.0
471,1436166034416,0.0
472,1436166034436,0.0
473,1436166034453,0.0
474,1436166034476,0.0
475,1436166034493,0.0
476,1436166034514,0.0
477,1436166034536,0.0
478,1436166034553,0.0
479,1436166034575,0.0
480,1436166034597,0.0
481,1436166034618,0.0
482,1436166034638,0.0
483,1436166034661,0.0
484,1436166034676,0.0
485,1436166034693,0.0
486,1436166034713,0.0
487,1436166034736,0.0
488,1436166034755,0.0
489,1436166034778,0.0
490,1436166034841,0.0
491,1436166034842,0.0
492,1436166034843,0.0
493,1436166034853,0.0
494,1436166034882,0.0
495,1436166034894,0.0
496,1436166034916,0.0
497,1436166034935,0.0
498,1436166034953,0.0
499,1436166034976,0.0
500,1436166034994,0.0
501,1436166035015,0.0
502,1436166035034,0.0
503,1436166035057,0.0
504,1436166035076,0.0
505,1436166035094,0.0
506,1436166035117,0.0
507,1436166035137,0.0
508,1436166035157,0.0
509,1436166035178,0.0
510,1436166035197,0.0
511,1436166035217,0.0
512,1436166035236,0.0
513,1436166035257,0.0
514,1436166035276,0.0
515,1436166035295,0.0
516,1436166035315,0.0
517,1436166035335,0.0
518,1436166035356,0.0
519,1436166035377,0.0
520,1436166035397,0.0
521,1436166035415,0.0
522,1436166035436,0.0
523,1436166035456,0.0
524,1436166035476,0.0
525,1436166035501,0.0
526,1436166035574,0.0
527,1436166035575,0.0
528,1436166035576,0.0
529,1436166035577,0.0
530,1436166035597,0.0
531,1436166035617,0.0
532,1436166035635,0.0
533,1436166035659,0.0
534,1436166035688,0.0
535,1436166035695,0.0
536,1436166035715,0.0
537,1436166035736,0.0
538,1436166035758,0.0
539,1436166035777,0.0
540,1436166035795,0.0
541,1436166035818,0.0
542,1436166035837,0.0
543,1436166035858,0.0
544,1436166035877,0.0
545,1436166035895,0.0
546,1436166035918,0.0
547,1436166035937,0.0
548,1436166035955,0.0
549,1436166035978,0.0
550,1436166035997,0.0
551,1436166036016,0.0
552,1436166036038,0.0
553,1436166036057,0.0
554,1436166036077,0.0
555,1436166036099,0.0
556,1436166036118,0.0
557,1436166036138,0.0
558,1436166036158,0.0
559,1436166036176,0.0
560,1436166036196,0.0
561,1436166036228,0.0
562,1436166036296,0.0
563,1436166036297,0.0
564,1436166036298,0.0
565,1436166036299,0.0
566,1436166036317,0.0
567,1436166036338,0.0
568,1436166036356,0.0
569,1436166036376,0.0
570,1436166036397,0.0
571,1436166036415,0.0
572,1436166036438,0.0
573,1436166036458,0.0
574,1436166036478,0.0
575,1436166036498,0.0
576,1436166036520,0.0
577,1436166036535,0.0
578,1436166036555,0.0
579,1436166036575,0.0
580,1436166036597,0.0
581,1436166036617,0.0
582,1436166036638,0.0
583,1436166036658,0.0
584,1436166036679,0.0
585,1436166036696,0.0
586,1436166036716,0.0
587,1436166036738,0.0
588,1436166036758,0.0
589,1436166036779,0.0
590,1436166036835,0.0
591,1436166036836,0.0
592,1436166036837,0.0
593,1436166036858,0.0
594,1436166036878,0.0
595,1436166036899,0.0
596,1436166036920,0.0
597,1436166036936,0.0
598,1436166036959,0.0
599,1436166037036,0.0
600,1436166037037,0.0
601,1436166037038,0.0
602,1436166037039,0.0
603,1436166037058,0.0
604,1436166037079,0.0
605,1436166037095,0.0
606,1436166037115,0.0
607,1436166037137,0.0
608,1436166037157,0.0
609,1436166037176,0.0
610,1436166037197,0.0
611,1436166037219,0.0
612,1436166037237,0.0
613,1436166037259,0.0
614,1436166037279,0.0
615,1436166037299,0.0
616,1436166037319,0.0
617,1436166037336,0.0
618,1436166037359,0.0
619,1436166037379,0.0
620,1436166037399,0.0
621,1436166037417,0.0
622,1436166037437,0.0
623,1436166037459,0.0
624,1436166037477,0.0
625,1436166037497,0.0
626,1436166037518,0.0
627,1436166037538,0.0
628,1436166037560,0.0
629,1436166037581,0.0
630,1436166037599,0.0
631,1436166037617,0.0
632,1436166037637,0.0
633,1436166037657,0.0
634,1436166037678,0.0
635,1436166037699,0.0
636,1436166037766,0.0
637,1436166037767,0.0
638,1436166037768,0.0
639,1436166037776,0.0
640,1436166037801,0.0
641,1436166037816,0.0
642,1436166037837,0.0
643,1436166037858,0.0
644,1436166037876,0.0
645,1436166037898,0.0
646,1436166037920,0.0
647,1436166037937,0.0
648,1436166037959,0.0
649,1436166037979,0.0
650,1436166037999,0.0
651,1436166038019,0.0
652,1436166038039,0.0
653,1436166038059,0.0
654,1436166038080,0.0
655,1436166038100,0.0
656,1436166038120,0.0
657,1436166038140,0.0
658,1436166038157,0.0
659,1436166038180,0.0
660,1436166038198,0.0
661,1436166038218,0.0
662,1436166038237,0.0
663,1436166038258,0.0
664,1436166038280,0.0
665,1436166038300,0.0
666,1436166038319,0.0
667,1436166038339,0.0
668,1436166038357,0.0
669,1436166038378,0.0
670,1436166038399,0.0
671,1436166038421,0.0
672,1436166038474,0.0
673,1436166038475,0.0
674,1436166038479,0.0
675,1436166038499,0.0
676,1436166038519,0.0
677,1436166038538,0.0
678,1436166038557,0.0
679,1436166038577,0.0
680,1436166038599,0.0
681,1436166038617,0.0
682,1436166038638,0.0
683,1436166038660,0.0
684,1436166038677,0.0
685,1436166038698,0.0
686,1436166038720,0.0
687,1436166038740,0.0
688,1436166038760,0.0
689,1436166038794,0.0
690,1436166038797,0.0
691,1436166038817,0.0
692,1436166038837,0.0
693,1436166038857,0.0
694,1436166038880,0.0
695,1436166038898,0.0
696,1436166038920,0.0
697,1436166038940,0.0
698,1436166038959,0.0
699,1436166038978,0.0
700,1436166039000,0.0
701,1436166039020,0.0
702,1436166039041,0.0
703,1436166039062,0.0
704,1436166039079,0.0
705,1436166039100,0.0
706,1436166039117,0.0
707,1436166039139,0.0
708,1436166039158,0.0
709,1436166039178,0.0
710,1436166039230,0.0
711,1436166039231,0.0
712,1436166039248,0.0
713,1436166039257,0.0
714,1436166039282,0.0
715,1436166039298,0.0
716,1436166039319,0.0
717,1436166039339,0.0
718,1436166039358,0.0
719,1436166039378,0.0
720,1436166039400,0.0
721,1436166039419,0.0
722,1436166039439,0.0
723,1436166039460,0.0
724,1436166039481,0.0
725,1436166039499,0.0
726,1436166039522,0.0
727,1436166039543,0.0
728,1436166039558,0.0
729,1436166039580,0.0
730,1436166039599,0.0
731,1436166039620,0.0
732,1436166039638,0.0
733,1436166039659,0.0
734,1436166039679,0.0
735,1436166039699,0.0
736,1436166039720,0.0
737,1436166039740,0.0
738,1436166039760,0.0
739,1436166039780,0.0
740,1436166039800,0.0
741,1436166039820,0.0
742,1436166039840,0.0
743,1436166039858,0.0
744,1436166039879,0.0
745,1436166039899,0.0
746,1436166039968,0.0
747,1436166039969,0.0
748,1436166039979,0.0
749,1436166039980,0.0
750,1436166039998,0.0
751,1436166040021,0.0
752,1436166040038,0.0
753,1436166040058,0.0
754,1436166040080,0.0
755,1436166040099,0.0
756,1436166040119,0.0
757,1436166040141,0.0
758,1436166040158,0.0
759,1436166040179,0.0
760,1436166040199,0.0
761,1436166040219,0.0
762,1436166040240,0.0
763,1436166040267,0.0
764,1436166040278,0.0
765,1436166040298,0.0
766,1436166040318,0.0
767,1436166040339,0.0
768,1436166040358,0.0
769,1436166040378,0.0
770,1436166040399,0.0
771,1436166040418,0.0
772,1436166040439,0.0
773,1436166040458,0.0
774,1436166040478,0.0
775,1436166040498,0.0
776,1436166040518,0.0
777,1436166040540,0.0
778,1436166040558,0.0
779,1436166040578,0.0
780,1436166040599,0.0
781,1436166040618,0.0
782,1436166040638,0.0
783,1436166040658,0.0
784,1436166040678,0.0
785,1436166040698,0.0
786,1436166040720,0.0
787,1436166040739,0.0
788,1436166040758,0.0
789,1436166040778,0.0
790,1436166040798,0.0
791,1436166040818,0.0
792,1436166040838,0.0
793,1436166040858,0.0
794,1436166040878,0.0
795,1436166040898,0.0
796,1436166040918,0.0
797,1436166040938,0.0
798,1436166040958,0.0
799,1436166040978,0.0
800,1436166040998,0.0
801,1436166041019,0.0
802,1436166041038,0.0
803,1436166041058,0.0
804,1436166041079,0.0
805,1436166041100,0.0
806,1436166041121,0.0
807,1436166041141,0.0
808,1436166041160,0.0
809,1436166041182,0.0
810,1436166041199,0.0
811,1436166041221,0.0
812,1436166041239,0.0
813,1436166041260,0.0
814,1436166041280,0.0
815,1436166041300,0.0
816,1436166041319,0.0
817,1436166041339,0.0
818,1436166041361,0.0
819,1436166041380,0.0
820,1436166041402,0.0
821,1436166041419,0.0
822,1436166041441,0.0
823,1436166041460,0.0
824,1436166041480,0.0
825,1436166041504,0.0
826,1436166041521,0.0
827,1436166041540,0.0
828,1436166041560,0.0
829,1436166041583,0.0
830,1436166041599,0.0
831,1436166041621,0.0
832,1436166041639,0.0
833,1436166041662,0.0
834,1436166041683,0.0
835,1436166041702,0.0
836,1436166041722,0.0
837,1436166041740,0.0
838,1436166041759,0.0
839,1436166041781,0.0
840,1436166041804,0.0
841,1436166041824,0.0
842,1436166041844,0.0
843,1436166041861,0.0
844,1436166041886,0.0
845,1436166041951,0.0
846,1436166041952,0.0
847,1436166041953,0.0
848,1436166041961,0.0
849,1436166041988,0.0
850,1436166042000,0.0
851,1436166042020,0.0
852,1436166042042,0.0
853,1436166042060,0.0
854,1436166042084,0.0
855,1436166042103,0.0
856,1436166042121,0.0
857,1436166042140,0.0
858,1436166042161,0.0
859,1436166042182,0.0
860,1436166042204,0.0
861,1436166042224,0.0
862,1436166042243,0.0
863,1436166042261,0.0
864,1436166042282,0.0
865,1436166042304,0.0
866,1436166042322,0.0
867,1436166042348,0.0
868,1436166042362,0.0
869,1436166042393,0.0
870,1436166042408,0.0
871,1436166042421,0.0
872,1436166042443,0.0
873,1436166042460,0.0
874,1436166042480,0.0
875,1436166042501,0.0
876,1436166042529,0.0
877,1436166042546,0.0
878,1436166042567,0.0
879,1436166042588,0.0
880,1436166042612,0.0
881,1436166042685,0.0
882,1436166042686,0.0
883,1436166042687,0.0
884,1436166042688,0.0
885,1436166042711,0.0
886,1436166042722,0.0
887,1436166042740,0.0
888,1436166042761,0.0
889,1436166042781,0.0
890,1436166042805,0.0
891,1436166042823,0.0
892,1436166042842,0.0
893,1436166042861,0.0
894,1436166042885,0.0
895,1436166042904,0.0
896,1436166042924,0.0
897,1436166042944,0.0
898,1436166042963,0.0
899,1436166042985,0.0
900,1436166043004,0.0
901,1436166043042,0.0
902,1436166043043,0.0
903,1436166043095,0.0
904,1436166043096,0.0
905,1436166043105,0.0
906,1436166043121,0.0
907,1436166043141,0.0
908,1436166043161,0.0
909,1436166043181,0.0
910,1436166043201,0.0
911,1436166043221,0.0
912,1436166043241,0.0
