id,attr_time,attr_x,attr_y,attr_z
1,1436548932042,43.4586,-14.9612,-17.6285
2,1436548932058,45.0363,-13.3789,-17.7963
3,1436548932081,43.985,-13.3789,-16.4505
4,1436548932097,43.985,-13.3789,-16.4505
5,1436548932122,45.0363,-11.972,-17.4591
6,1436548932137,45.2118,-14.2578,-17.9642
7,1436548932160,45.2118,-14.2578,-17.9642
8,1436548932176,43.985,-13.0264,-18.4692
9,1436548932201,43.4586,-12.851,-17.2913
10,1436548932216,43.4586,-12.851,-17.2913
11,1436548932240,42.7582,-12.1475,-17.2913
12,1436548932257,43.8095,-13.5544,-18.9728
13,1436548932280,43.8095,-13.5544,-18.9728
14,1436548932294,42.7582,-11.4456,-17.9642
15,1436548932319,44.1605,-13.9053,-17.2913
16,1436548932334,44.1605,-13.9053,-17.2913
17,1436548932358,45.0363,-11.972,-17.1234
18,1436548932374,44.3359,-11.972,-17.1234
19,1436548932397,44.3359,-11.972,-17.1234
20,1436548932413,43.2846,-13.3789,-16.4505
21,1436548932438,43.4586,-12.5,-17.6285
22,1436548932454,43.4586,-12.5,-17.6285
23,1436548932477,43.634,-12.6755,-18.8049
24,1436548932493,43.8095,-12.851,-18.2999
25,1436548932519,43.8095,-12.851,-18.2999
26,1436548932532,44.1605,-13.9053,-18.6371
27,1436548932556,44.5099,-12.5,-18.9728
28,1436548932570,44.5099,-12.5,-18.9728
29,1436548932596,43.1091,-11.0931,-17.6285
30,1436548932610,43.4586,-12.5,-17.2913
31,1436548932635,43.4586,-12.5,-17.2913
32,1436548932651,44.1605,-13.9053,-18.6371
33,1436548932674,43.8095,-11.7966,-17.6285
34,1436548932690,43.8095,-11.7966,-17.6285
35,1436548932714,43.2846,-11.6211,-18.132
36,1436548932730,43.985,-12.6755,-17.7963
37,1436548932754,43.985,-12.6755,-17.7963
38,1436548932769,43.8095,-12.851,-18.9728
39,1436548932793,44.1605,-11.7966,-18.6371
40,1436548932808,44.1605,-11.7966,-18.6371
41,1436548932833,44.1605,-11.7966,-18.6371
42,1436548932848,44.5099,-12.5,-18.2999
43,1436548932873,44.5099,-12.5,-18.2999
44,1436548932885,43.8095,-13.5544,-17.9642
45,1436548932915,44.1605,-12.851,-18.2999
46,1436548932926,44.1605,-12.851,-18.2999
47,1436548932951,44.3359,-12.3245,-17.4591
48,1436548932967,43.634,-12.6755,-18.132
49,1436548932990,43.634,-12.6755,-18.132
50,1436548933006,44.8608,-11.7966,-18.9728
51,1436548933029,43.2846,-11.972,-17.4591
52,1436548933045,43.2846,-11.972,-17.4591
53,1436548933070,44.6854,-12.3245,-16.1148
54,1436548933086,43.2846,-13.0264,-18.4692
55,1436548933109,43.2846,-13.0264,-18.4692
56,1436548933125,44.3359,-14.4333,-17.4591
57,1436548933148,42.5827,-13.0264,-18.132
58,1436548933164,42.5827,-13.0264,-18.132
59,1436548933188,43.2846,-11.2686,-18.4692
60,1436548933202,42.9337,-13.0264,-16.4505
61,1436548933228,42.9337,-13.0264,-16.4505
62,1436548933242,43.634,-11.972,-18.132
63,1436548933267,43.985,-11.972,-17.1234
64,1436548933284,43.985,-11.972,-17.1234
65,1436548933307,42.9337,-12.3245,-17.4591
66,1436548933323,42.7582,-12.851,-18.9728
67,1436548933345,42.7582,-12.851,-18.9728
68,1436548933362,44.3359,-11.972,-18.132
69,1436548933385,43.4586,-12.1475,-17.6285
70,1436548933401,43.4586,-12.1475,-17.6285
71,1436548933425,43.1091,-11.7966,-18.2999
72,1436548933441,43.2846,-13.3789,-18.4692
73,1436548933465,43.2846,-13.3789,-18.4692
74,1436548933483,45.0363,-13.0264,-17.4591
75,1436548933504,42.7582,-12.5,-17.6285
76,1436548933519,42.7582,-12.5,-17.6285
77,1436548933544,42.9337,-13.3789,-17.4591
78,1436548933558,44.5099,-13.9053,-19.31
79,1436548933582,44.5099,-13.9053,-19.31
80,1436548933599,44.8608,-11.7966,-17.6285
81,1436548933623,42.9337,-11.6211,-17.1234
82,1436548933638,42.9337,-11.6211,-17.1234
83,1436548933661,44.1605,-11.0931,-17.6285
84,1436548933681,43.1091,-12.851,-18.9728
85,1436548933702,43.1091,-12.851,-18.9728
86,1436548933717,43.985,-11.972,-18.4692
87,1436548933744,42.4088,-12.1475,-17.9642
88,1436548933757,42.4088,-12.1475,-17.9642
89,1436548933781,43.634,-11.972,-16.7877
90,1436548933797,43.8095,-10.7422,-20.6543
91,1436548933821,43.8095,-10.7422,-20.6543
92,1436548933836,43.8095,-12.851,-17.2913
93,1436548933860,42.9337,-11.2686,-17.7963
94,1436548933874,42.9337,-11.2686,-17.7963
95,1436548933900,44.8608,-10.7422,-16.6183
96,1436548933915,43.2846,-12.6755,-18.8049
97,1436548933940,43.2846,-12.6755,-18.8049
98,1436548933954,43.8095,-11.7966,-18.6371
99,1436548933976,44.1605,-12.5,-16.2827
100,1436548933994,44.1605,-12.5,-16.2827
101,1436548934017,44.8608,-13.5544,-17.6285
102,1436548934034,44.1605,-13.2034,-17.6285
103,1436548934058,44.1605,-13.2034,-17.6285
104,1436548934072,45.3857,-12.6755,-18.4692
105,1436548934097,43.2846,-12.6755,-17.1234
106,1436548934115,43.2846,-12.6755,-17.1234
107,1436548934137,44.6854,-10.9177,-16.7877
108,1436548934152,45.2118,-11.0931,-17.2913
109,1436548934176,45.2118,-11.0931,-17.2913
110,1436548934190,43.4586,-13.2034,-18.2999
111,1436548934214,43.2846,-12.6755,-18.8049
112,1436548934230,43.2846,-12.6755,-18.8049
113,1436548934255,44.1605,-12.1475,-17.9642
114,1436548934271,43.634,-13.7299,-18.132
115,1436548934293,43.634,-13.7299,-18.132
116,1436548934312,45.3857,-12.3245,-18.132
117,1436548934333,43.2846,-12.6755,-15.7776
118,1436548934349,43.2846,-12.6755,-15.7776
119,1436548934371,43.4586,-12.5,-16.9556
120,1436548934389,43.4586,-13.5544,-17.6285
121,1436548934413,43.4586,-13.5544,-17.6285
122,1436548934428,43.8095,-12.851,-17.2913
123,1436548934453,43.4586,-12.851,-16.9556
124,1436548934468,43.4586,-12.851,-16.9556
125,1436548934492,44.3359,-12.3245,-17.7963
126,1436548934507,44.3359,-12.3245,-17.7963
127,1436548934532,44.3359,-12.3245,-17.7963
128,1436548934545,44.5099,-11.0931,-18.6371
129,1436548934571,43.2846,-12.3245,-18.4692
130,1436548934586,43.2846,-12.3245,-18.4692
131,1436548934610,44.1605,-12.5,-17.6285
132,1436548934626,44.1605,-12.851,-20.3186
133,1436548934649,44.1605,-12.851,-20.3186
134,1436548934665,44.8608,-11.7966,-17.9642
135,1436548934690,43.634,-11.2686,-17.1234
136,1436548934705,43.634,-11.2686,-17.1234
137,1436548934728,43.634,-13.0264,-17.7963
138,1436548934745,43.2846,-12.3245,-18.132
139,1436548934770,43.2846,-12.3245,-18.132
140,1436548934784,43.634,-13.3789,-18.132
141,1436548934808,42.4088,-12.1475,-18.9728
142,1436548934821,42.4088,-12.1475,-18.9728
143,1436548934848,42.5827,-10.5667,-17.4591
144,1436548934862,44.5099,-12.5,-18.9728
145,1436548934887,44.5099,-12.5,-18.9728
146,1436548934902,46.6125,-11.7966,-17.2913
147,1436548934927,45.0363,-10.9177,-17.7963
148,1436548934942,45.0363,-10.9177,-17.7963
149,1436548934968,43.985,-10.9177,-17.7963
150,1436548934982,43.4586,-10.7422,-19.31
151,1436548935006,43.4586,-10.7422,-19.31
152,1436548935021,43.4586,-11.7966,-18.6371
153,1436548935044,44.1605,-11.7966,-18.2999
154,1436548935060,44.1605,-11.7966,-18.2999
155,1436548935085,42.2333,-10.5667,-18.132
156,1436548935100,43.1091,-13.5544,-18.6371
157,1436548935124,43.1091,-13.5544,-18.6371
158,1436548935141,43.4586,-12.851,-18.2999
159,1436548935164,42.9337,-12.6755,-16.7877
160,1436548935178,42.9337,-12.6755,-16.7877
161,1436548935203,44.3359,-11.972,-17.1234
162,1436548935219,43.8095,-11.0931,-18.2999
163,1436548935242,43.8095,-11.0931,-18.2999
164,1436548935258,43.8095,-11.0931,-17.2913
165,1436548935281,42.9337,-11.972,-18.132
166,1436548935297,42.9337,-11.972,-18.132
167,1436548935322,44.6854,-11.6211,-17.1234
168,1436548935337,43.8095,-12.5,-18.2999
169,1436548935361,43.8095,-12.5,-18.2999
170,1436548935376,45.3857,-11.2686,-17.7963
171,1436548935401,42.7582,-12.5,-15.6097
172,1436548935416,42.7582,-12.5,-15.6097
173,1436548935439,43.8095,-12.5,-17.2913
174,1436548935455,44.8608,-12.851,-16.9556
175,1436548935480,44.8608,-12.851,-16.9556
176,1436548935494,43.2846,-12.6755,-17.7963
177,1436548935519,45.2118,-11.7966,-17.2913
178,1436548935537,45.2118,-11.7966,-17.2913
179,1436548935559,42.7582,-11.4456,-16.6183
180,1436548935574,42.5827,-10.5667,-16.7877
181,1436548935597,42.5827,-10.5667,-16.7877
182,1436548935613,43.985,-12.3245,-17.4591
183,1436548935638,43.1091,-10.3897,-17.2913
184,1436548935653,43.1091,-10.3897,-17.2913
185,1436548935677,44.5099,-10.3897,-16.9556
186,1436548935693,43.985,-11.2686,-17.7963
187,1436548935717,43.985,-11.2686,-17.7963
188,1436548935734,44.5099,-12.1475,-18.6371
189,1436548935756,45.9122,-9.68781,-18.2999
190,1436548935771,45.9122,-9.68781,-18.2999
191,1436548935798,42.5827,-10.2142,-17.7963
192,1436548935810,42.4088,-12.5,-18.6371
193,1436548935835,42.4088,-12.5,-18.6371
194,1436548935849,43.4586,-10.3897,-17.9642
195,1436548935874,43.634,-10.9177,-17.1234
196,1436548935890,43.634,-10.9177,-17.1234
197,1436548935912,45.2118,-11.4456,-18.9728
198,1436548935929,43.8095,-12.5,-16.9556
199,1436548935953,43.8095,-12.5,-16.9556
200,1436548935969,43.1091,-12.851,-18.2999
201,1436548935994,43.1091,-12.851,-16.6183
202,1436548936008,43.1091,-12.851,-16.6183
203,1436548936033,44.6854,-10.9177,-18.4692
204,1436548936048,42.9337,-13.3789,-17.1234
205,1436548936071,42.9337,-13.3789,-17.1234
206,1436548936087,43.2846,-10.9177,-17.7963
207,1436548936112,42.9337,-11.2686,-17.1234
208,1436548936125,42.9337,-11.2686,-17.1234
209,1436548936151,44.5099,-11.0931,-16.6183
210,1436548936166,44.8608,-9.33533,-17.2913
211,1436548936191,44.8608,-9.33533,-17.2913
212,1436548936206,42.5827,-10.2142,-16.1148
213,1436548936229,44.3359,-12.3245,-17.4591
214,1436548936245,44.3359,-12.3245,-17.4591
215,1436548936269,43.1091,-11.7966,-16.9556
216,1436548936285,44.1605,-12.5,-17.6285
217,1436548936309,44.1605,-12.5,-17.6285
218,1436548936324,41.8823,-12.6755,-18.4692
219,1436548936349,43.8095,-10.7422,-17.6285
220,1436548936367,43.8095,-10.7422,-17.6285
221,1436548936388,43.8095,-10.7422,-15.947
222,1436548936404,42.7582,-10.7422,-17.6285
223,1436548936428,42.7582,-10.7422,-17.6285
224,1436548936442,43.1091,-11.4456,-18.6371
225,1436548936466,42.9337,-11.6211,-16.4505
226,1436548936482,42.9337,-11.6211,-16.4505
227,1436548936507,42.2333,-9.5108,-16.4505
228,1436548936522,43.985,-11.6211,-18.4692
229,1436548936546,43.985,-11.6211,-18.4692
230,1436548936564,42.5827,-9.5108,-18.132
231,1436548936585,42.2333,-9.5108,-16.7877
232,1436548936601,42.2333,-9.5108,-16.7877
233,1436548936625,43.4586,-10.3897,-16.2827
234,1436548936641,42.9337,-10.5667,-16.4505
235,1436548936664,42.9337,-10.5667,-16.4505
236,1436548936680,43.1091,-12.5,-14.6011
237,1436548936704,42.2333,-10.9177,-14.0961
238,1436548936719,42.2333,-10.9177,-14.0961
239,1436548936744,44.1605,-12.1475,-14.2639
240,1436548936758,42.4088,-11.4456,-14.2639
241,1436548936784,42.4088,-11.4456,-14.2639
242,1436548936798,44.5099,-10.3897,-15.274
243,1436548936823,43.8095,-11.7966,-13.9282
244,1436548936838,43.8095,-11.7966,-13.9282
245,1436548936863,42.9337,-11.972,-14.4333
246,1436548936878,43.4586,-12.851,-12.9196
247,1436548936900,43.4586,-12.851,-12.9196
248,1436548936917,43.8095,-12.851,-14.9368
249,1436548936941,43.1091,-12.5,-13.5925
250,1436548936956,43.1091,-12.5,-13.5925
251,1436548936981,43.4586,-12.5,-12.5824
252,1436548936996,43.4586,-12.5,-12.9196
253,1436548937021,43.4586,-12.5,-12.9196
254,1436548937035,45.2118,-13.5544,-14.2639
255,1436548937060,43.4586,-12.5,-13.9282
256,1436548937074,43.4586,-12.5,-13.9282
257,1436548937098,43.634,-13.0264,-14.4333
258,1436548937115,43.2846,-14.4333,-14.4333
259,1436548937139,43.2846,-14.4333,-14.4333
260,1436548937154,43.2846,-14.0823,-14.4333
261,1436548937178,45.0363,-13.0264,-12.7518
262,1436548937196,45.0363,-13.0264,-12.7518
263,1436548937217,42.9337,-15.1367,-12.0789
264,1436548937234,42.2333,-15.1367,-12.7518
265,1436548937257,42.2333,-15.1367,-12.7518
266,1436548937273,43.4586,-16.7191,-12.9196
267,1436548937297,42.4088,-16.7191,-11.911
268,1436548937312,42.4088,-16.7191,-11.911
269,1436548937336,42.4088,-18.4769,-13.2553
270,1436548937351,43.634,-19.0033,-13.7604
271,1436548937376,43.634,-19.0033,-13.7604
272,1436548937394,44.1605,-17.421,-12.9196
273,1436548937415,42.5827,-17.2455,-14.0961
274,1436548937429,42.5827,-17.2455,-14.0961
275,1436548937455,43.2846,-12.6755,-15.1062
276,1436548937471,43.634,-13.0264,-16.1148
277,1436548937493,43.634,-13.0264,-16.1148
278,1436548937510,44.5099,-11.0931,-15.947
279,1436548937533,44.5099,-8.98438,-14.6011
280,1436548937549,44.5099,-8.98438,-14.6011
281,1436548937574,44.8608,-10.3897,-16.9556
282,1436548937592,43.4586,-8.6319,-19.31
283,1436548937613,43.4586,-8.6319,-19.31
284,1436548937628,43.8095,-6.52313,-20.6543
285,1436548937653,43.634,-5.29327,-20.8237
286,1436548937668,43.634,-5.29327,-20.8237
287,1436548937692,42.9337,-4.58984,-22.5052
288,1436548937708,42.0578,-1.24969,-24.3546
289,1436548937732,42.0578,-1.24969,-24.3546
290,1436548937745,41.7069,-2.30408,-25.3632
291,1436548937771,40.3061,-0.546265,-25.3632
292,1436548937788,40.3061,-0.546265,-25.3632
293,1436548937811,39.9551,0.508118,-27.0447
294,1436548937826,37.6785,-0.0198364,-27.2125
295,1436548937849,37.6785,-0.0198364,-27.2125
296,1436548937865,40.3061,1.21155,-26.3718
297,1436548937889,39.2548,0.157166,-25.0275
298,1436548937905,39.2548,0.157166,-25.0275
299,1436548937929,39.4302,1.38702,-25.531
300,1436548937944,38.3789,0.332642,-26.8768
301,1436548937968,38.3789,0.332642,-26.8768
302,1436548937983,37.6785,-0.370789,-26.2039
303,1436548938008,38.9038,0.157166,-27.0447
304,1436548938023,38.9038,0.157166,-27.0447
305,1436548938048,37.1521,0.157166,-27.0447
306,1436548938064,36.8011,-1.24969,-27.7176
307,1436548938087,36.8011,-1.24969,-27.7176
308,1436548938101,36.6272,-1.07422,-29.2313
309,1436548938125,35.9253,-0.721741,-28.5584
310,1436548938142,35.9253,-0.721741,-28.5584
311,1436548938165,36.2762,-1.42517,-31.2485
312,1436548938181,32.4219,-3.18298,-31.5857
313,1436548938205,32.4219,-3.18298,-31.5857
314,1436548938223,31.1951,-0.195312,-33.7723
315,1436548938245,30.3192,0.683594,-33.6029
316,1436548938260,30.3192,0.683594,-33.6029
317,1436548938284,29.2679,3.14484,-36.2946
318,1436548938300,29.6188,2.09045,-35.6216
319,1436548938323,29.6188,2.09045,-35.6216
320,1436548938339,27.3407,1.5625,-37.1353
321,1436548938364,26.6403,0.508118,-36.7981
322,1436548938378,26.6403,0.508118,-36.7981
323,1436548938403,27.3407,-0.546265,-38.4796
324,1436548938420,26.4648,-2.83203,-38.649
325,1436548938443,26.4648,-2.83203,-38.649
326,1436548938458,24.8886,-4.76532,-38.1439
327,1436548938482,25.589,-8.98438,-38.1439
328,1436548938497,25.589,-8.98438,-38.1439
329,1436548938520,26.2894,-13.2034,-36.7981
330,1436548938537,27.1667,-20.0577,-33.6029
331,1436548938561,27.1667,-20.0577,-33.6029
332,1436548938576,26.6403,-25.1556,-31.4178
333,1436548938601,28.5675,-27.0889,-27.8854
334,1436548938618,28.5675,-27.0889,-27.8854
335,1436548938640,28.9185,-29.9026,-24.5224
336,1436548938656,27.1667,-33.0658,-21.4951
337,1436548938680,27.1667,-33.0658,-21.4951
338,1436548938693,28.0426,-36.4059,-18.6371
339,1436548938718,25.589,-36.055,-16.6183
340,1436548938734,25.589,-36.055,-16.6183
341,1436548938759,24.1882,-38.5147,-16.6183
342,1436548938774,22.261,-40.4495,-16.7877
343,1436548938798,22.261,-40.4495,-16.7877
344,1436548938953,21.2097,-40.097,-17.4591
345,1436548938954,19.9829,-39.5706,-15.947
346,1436548938955,19.9829,-39.5706,-15.947
347,1436548938956,16.8289,-42.0303,-15.947
348,1436548938957,15.9531,-42.5583,-16.1148
349,1436548938958,15.9531,-42.5583,-16.1148
350,1436548938959,13.6765,-44.4916,-16.2827
351,1436548938960,12.8006,-44.6671,-16.1148
352,1436548938970,12.8006,-44.6671,-16.1148
353,1436548938996,11.5738,-43.7881,-16.9556
354,1436548939010,11.9247,-47.6562,-16.9556
355,1436548939035,11.9247,-47.6562,-16.9556
356,1436548939051,9.1217,-46.9528,-19.6457
357,1436548939077,8.59528,-45.3705,-19.4778
358,1436548939090,8.59528,-45.3705,-19.4778
359,1436548939114,8.59528,-43.9652,-20.8237
360,1436548939130,6.31714,-44.4916,-24.3546
361,1436548939152,6.31714,-44.4916,-24.3546
362,1436548939169,6.66809,-42.7338,-23.6816
363,1436548939193,6.66809,-40.2725,-25.7004
364,1436548939208,6.66809,-40.2725,-25.7004
365,1436548939233,7.8949,-40.097,-27.8854
366,1436548939251,9.64661,-39.7461,-28.5584
367,1436548939272,9.64661,-39.7461,-28.5584
368,1436548939288,9.64661,-38.3392,-30.9128
369,1436548939312,9.82208,-36.4059,-30.7449
370,1436548939327,9.82208,-36.4059,-30.7449
371,1436548939351,9.29565,-36.9339,-32.9315
372,1436548939366,7.8949,-38.6917,-33.6029
373,1436548939391,7.8949,-38.6917,-33.6029
374,1436548939405,8.24432,-37.6358,-32.9315
375,1436548939430,5.09186,-37.9883,-31.9214
376,1436548939448,5.09186,-37.9883,-31.9214
377,1436548939469,5.79224,-39.3936,-31.2485
378,1436548939485,0.186157,-39.7461,-30.2399
379,1436548939509,0.186157,-39.7461,-30.2399
380,1436548939525,-2.96783,-39.7461,-31.2485
381,1436548939549,-8.22296,-38.3392,-31.5857
382,1436548939564,-8.22296,-38.3392,-31.5857
383,1436548939587,-13.1287,-33.4183,-33.9401
384,1436548939604,-16.6321,-29.9026,-35.6216
385,1436548939628,-16.6321,-29.9026,-35.6216
386,1436548939644,-19.4366,-27.0889,-35.2844
387,1436548939667,-18.5593,-25.1556,-34.7809
388,1436548939681,-18.5593,-25.1556,-34.7809
389,1436548939707,-23.1155,-25.1556,-34.108
390,1436548939722,-22.9401,-25.6836,-34.9487
391,1436548939747,-22.9401,-25.6836,-34.9487
392,1436548939762,-25.0427,-24.9802,-33.6029
393,1436548939784,-25.7431,-26.0345,-31.2485
394,1436548939801,-25.7431,-26.0345,-31.2485
395,1436548939825,-27.4948,-24.2767,-30.2399
396,1436548939844,-28.7216,-25.5081,-29.7363
397,1436548939865,-28.7216,-25.5081,-29.7363
398,1436548939880,-29.422,-23.3978,-29.7363
399,1436548939904,-29.9469,-23.5733,-28.8956
400,1436548939920,-29.9469,-23.5733,-28.8956
401,1436548939944,-29.071,-21.9925,-30.072
402,1436548939960,-32.4005,-23.2224,-27.8854
403,1436548939984,-32.4005,-23.2224,-27.8854
404,1436548939997,-31.7001,-24.6292,-29.2313
405,1436548940023,-30.6488,-22.8714,-28.2227
406,1436548940037,-30.6488,-22.8714,-28.2227
407,1436548940063,-30.4733,-24.1013,-26.709
408,1436548940078,-30.6488,-24.6292,-27.5497
409,1436548940103,-30.6488,-24.6292,-27.5497
410,1436548940117,-29.9469,-25.6836,-27.2125
411,1436548940141,-30.9982,-26.738,-25.1953
412,1436548940156,-30.9982,-26.738,-25.1953
413,1436548940180,-31.3492,-28.4958,-24.8596
414,1436548940197,-32.0496,-29.1992,-23.5138
415,1436548940219,-32.0496,-29.1992,-23.5138
416,1436548940236,-30.4733,-29.7256,-23.6816
417,1436548940260,-30.8243,-30.0781,-21.3272
418,1436548940276,-30.8243,-30.0781,-21.3272
419,1436548940299,-32.576,-31.8359,-20.3186
420,1436548940314,-30.9982,-33.4183,-18.132
421,1436548940339,-30.9982,-33.4183,-18.132
422,1436548940353,-31.7001,-33.0658,-18.132
423,1436548940377,-31.1737,-34.6481,-15.947
424,1436548940394,-31.1737,-34.6481,-15.947
425,1436548940418,-31.3492,-34.4727,-16.1148
426,1436548940433,-30.4733,-39.2181,-11.911
427,1436548940456,-30.4733,-39.2181,-11.911
428,1436548940473,-30.1224,-40.2725,-10.228
429,1436548940497,-29.5975,-40.4495,-6.36139
430,1436548940512,-29.5975,-40.4495,-6.36139
431,1436548940536,-26.9699,-42.0303,-5.18341
432,1436548940551,-27.4948,-44.6671,-2.99835
433,1436548940575,-27.9205,-41.8732,-3.22266
434,1436548940591,-27.2202,-42.2256,-2.21252
435,1436548940615,-25.1175,-41.8732,-0.195312
436,1436548940629,-25.1175,-41.8732,-0.195312
437,1436548940655,-25.4684,-43.631,2.15912
438,1436548940672,-25.4684,-43.9835,1.82343
439,1436548940694,-25.4684,-43.9835,1.82343
440,1436548940710,-23.3658,-43.9835,4.51355
441,1436548940734,-22.8394,-43.1046,8.71735
442,1436548940749,-22.8394,-43.1046,8.71735
443,1436548940772,-23.8907,-43.808,10.0632
444,1436548940789,-23.3658,-43.631,7.54089
445,1436548940813,-23.3658,-43.631,7.54089
446,1436548940828,-22.139,-45.5658,13.4262
447,1436548940853,-20.7382,-41.6977,15.1077
448,1436548940870,-20.7382,-41.6977,15.1077
449,1436548940892,-23.1903,-43.808,15.4449
450,1436548940908,-23.3658,-41.1713,16.2857
451,1436548940934,-23.3658,-41.1713,16.2857
452,1436548940946,-20.9122,-42.9291,18.3029
453,1436548940971,-20.3873,-40.9943,18.4708
454,1436548940985,-20.3873,-40.9943,18.4708
455,1436548941011,-21.4386,-41.3467,18.4708
456,1436548941026,-19.6869,-42.0502,17.4622
457,1436548941050,-19.6869,-42.0502,17.4622
458,1436548941065,-20.7382,-42.4011,19.8166
459,1436548941088,-19.5114,-41.1713,20.993
460,1436548941105,-19.5114,-41.1713,20.993
