id,attr_time,attr_light
1,1436899622630,0.0
2,1436899622650,0.0
3,1436899622669,0.0
4,1436899622689,0.0
5,1436899622708,0.0
6,1436899622728,0.0
7,1436899622748,0.0
8,1436899622768,0.0
9,1436899622788,0.0
10,1436899622809,0.0
11,1436899622830,0.0
12,1436899622848,0.0
13,1436899622868,0.0
14,1436899622890,0.0
15,1436899622911,0.0
16,1436899622931,0.0
17,1436899622949,0.0
18,1436899622969,0.0
19,1436899623038,0.0
20,1436899623039,0.0
21,1436899623040,0.0
22,1436899623049,0.0
23,1436899623068,0.0
24,1436899623092,0.0
25,1436899623108,0.0
26,1436899623134,0.0
27,1436899623149,0.0
28,1436899623170,0.0
29,1436899623190,0.0
30,1436899623212,0.0
31,1436899623233,0.0
32,1436899623255,0.0
33,1436899623268,0.0
34,1436899623290,0.0
35,1436899623308,0.0
36,1436899623329,0.0
37,1436899623351,0.0
38,1436899623370,0.0
39,1436899623390,0.0
40,1436899623409,0.0
41,1436899623429,0.0
42,1436899623452,0.0
43,1436899623471,0.0
44,1436899623489,0.0
45,1436899623509,0.0
46,1436899623532,0.0
47,1436899623551,0.0
48,1436899623571,0.0
49,1436899623591,0.0
50,1436899623613,0.0
51,1436899623631,0.0
52,1436899623650,0.0
53,1436899623669,0.0
54,1436899623690,0.0
55,1436899623724,0.0
56,1436899623785,0.0
57,1436899623786,0.0
58,1436899623789,0.0
59,1436899623790,0.0
60,1436899623809,0.0
61,1436899623834,0.0
62,1436899623849,0.0
63,1436899623871,0.0
64,1436899623890,0.0
65,1436899623910,0.0
66,1436899623930,0.0
67,1436899623950,0.0
68,1436899623969,0.0
69,1436899623991,0.0
70,1436899624010,0.0
71,1436899624031,0.0
72,1436899624052,0.0
73,1436899624070,0.0
74,1436899624090,0.0
75,1436899624109,0.0
76,1436899624132,0.0
77,1436899624153,0.0
78,1436899624169,0.0
79,1436899624191,0.0
80,1436899624216,0.0
81,1436899624234,0.0
82,1436899624255,0.0
83,1436899624273,0.0
84,1436899624291,0.0
85,1436899624312,0.0
86,1436899624330,0.0
87,1436899624352,0.0
88,1436899624374,0.0
89,1436899624392,0.0
90,1436899624412,0.0
91,1436899624477,0.0
92,1436899624478,0.0
93,1436899624480,0.0
94,1436899624497,0.0
95,1436899624510,0.0
96,1436899624535,0.0
97,1436899624550,0.0
98,1436899624571,0.0
99,1436899624592,0.0
100,1436899624610,0.0
101,1436899624631,0.0
102,1436899624651,0.0
103,1436899624676,0.0
104,1436899624692,0.0
105,1436899624715,0.0
106,1436899624733,0.0
107,1436899624752,0.0
108,1436899624771,0.0
109,1436899624791,0.0
110,1436899624812,0.0
111,1436899624831,0.0
112,1436899624851,0.0
113,1436899624871,0.0
114,1436899624893,0.0
115,1436899624915,0.0
116,1436899624933,0.0
117,1436899624952,0.0
118,1436899624972,0.0
119,1436899624992,0.0
120,1436899625014,0.0
121,1436899625033,0.0
122,1436899625052,0.0
123,1436899625072,0.0
124,1436899625091,0.0
125,1436899625111,0.0
126,1436899625139,0.0
127,1436899625196,0.0
128,1436899625197,0.0
129,1436899625198,0.0
130,1436899625235,0.0
131,1436899625236,0.0
132,1436899625251,0.0
133,1436899625273,0.0
134,1436899625290,0.0
135,1436899625311,0.0
136,1436899625342,0.0
137,1436899625366,0.0
138,1436899625371,0.0
139,1436899625392,0.0
140,1436899625411,0.0
141,1436899625435,0.0
142,1436899625453,0.0
143,1436899625472,0.0
144,1436899625491,0.0
145,1436899625513,0.0
146,1436899625533,0.0
147,1436899625553,0.0
148,1436899625574,0.0
149,1436899625594,0.0
150,1436899625618,0.0
151,1436899625634,0.0
152,1436899625653,0.0
153,1436899625671,0.0
154,1436899625691,0.0
155,1436899625710,0.0
156,1436899625733,0.0
157,1436899625754,0.0
158,1436899625774,0.0
159,1436899625794,0.0
160,1436899625811,0.0
161,1436899625831,0.0
162,1436899625852,0.0
163,1436899625873,0.0
164,1436899625892,0.0
165,1436899625965,0.0
166,1436899625966,0.0
167,1436899625967,0.0
168,1436899625974,0.0
169,1436899625994,0.0
170,1436899626017,0.0
171,1436899626031,0.0
172,1436899626051,0.0
173,1436899626072,0.0
174,1436899626093,0.0
175,1436899626112,0.0
176,1436899626132,0.0
177,1436899626152,0.0
178,1436899626173,0.0
179,1436899626192,0.0
180,1436899626214,0.0
181,1436899626233,0.0
182,1436899626252,0.0
183,1436899626271,0.0
184,1436899626292,0.0
185,1436899626315,0.0
186,1436899626335,0.0
187,1436899626355,0.0
188,1436899626374,0.0
189,1436899626392,0.0
190,1436899626412,0.0
191,1436899626433,0.0
192,1436899626452,0.0
193,1436899626474,0.0
194,1436899626494,0.0
195,1436899626516,0.0
196,1436899626535,0.0
197,1436899626553,0.0
198,1436899626572,0.0
199,1436899626593,0.0
200,1436899626612,0.0
201,1436899626635,0.0
202,1436899626685,0.0
203,1436899626686,0.0
204,1436899626704,0.0
205,1436899626714,0.0
206,1436899626732,0.0
207,1436899626753,0.0
208,1436899626772,0.0
209,1436899626797,0.0
210,1436899626815,0.0
211,1436899626833,0.0
212,1436899626856,0.0
213,1436899626875,0.0
214,1436899626893,0.0
215,1436899626912,0.0
216,1436899626935,0.0
217,1436899626955,0.0
218,1436899626975,0.0
219,1436899626995,0.0
220,1436899627016,0.0
221,1436899627035,0.0
222,1436899627054,0.0
223,1436899627073,0.0
224,1436899627093,0.0
225,1436899627115,0.0
226,1436899627136,0.0
227,1436899627152,0.0
228,1436899627173,0.0
229,1436899627193,0.0
230,1436899627218,0.0
231,1436899627236,0.0
232,1436899627257,0.0
233,1436899627274,0.0
234,1436899627297,0.0
235,1436899627315,0.0
236,1436899627334,0.0
237,1436899627506,0.0
238,1436899627507,0.0
239,1436899627508,0.0
240,1436899627509,0.0
241,1436899627510,0.0
242,1436899627511,0.0
243,1436899627512,0.0
244,1436899627513,0.0
245,1436899627522,0.0
246,1436899627549,0.0
247,1436899627553,0.0
248,1436899627573,0.0
249,1436899627598,0.0
250,1436899627625,0.0
251,1436899627633,0.0
252,1436899627659,0.0
253,1436899627673,0.0
254,1436899627695,0.0
255,1436899627715,0.0
256,1436899627733,0.0
257,1436899627755,0.0
258,1436899627775,0.0
259,1436899627796,0.0
260,1436899627816,0.0
261,1436899627836,0.0
262,1436899627856,0.0
263,1436899627875,0.0
264,1436899627894,0.0
265,1436899627915,0.0
266,1436899627933,0.0
267,1436899627953,0.0
268,1436899627975,0.0
269,1436899628015,0.0
270,1436899628016,0.0
271,1436899628033,0.0
272,1436899628053,0.0
273,1436899628073,0.0
274,1436899628093,0.0
275,1436899628114,0.0
276,1436899628135,0.0
277,1436899628168,0.0
278,1436899628217,0.0
279,1436899628218,0.0
280,1436899628219,0.0
281,1436899628236,0.0
282,1436899628276,0.0
283,1436899628281,0.0
284,1436899628296,0.0
285,1436899628323,0.0
286,1436899628334,0.0
287,1436899628357,0.0
288,1436899628375,0.0
289,1436899628395,0.0
290,1436899628416,0.0
291,1436899628434,0.0
292,1436899628453,0.0
293,1436899628476,0.0
294,1436899628496,0.0
295,1436899628516,0.0
296,1436899628536,0.0
297,1436899628557,0.0
298,1436899628576,0.0
299,1436899628595,0.0
300,1436899628615,0.0
301,1436899628633,0.0
302,1436899628655,0.0
303,1436899628676,0.0
304,1436899628698,0.0
305,1436899628717,0.0
306,1436899628737,0.0
307,1436899628757,0.0
308,1436899628837,0.0
309,1436899628838,0.0
310,1436899628839,0.0
311,1436899628840,0.0
312,1436899628859,0.0
313,1436899628874,0.0
314,1436899628894,0.0
315,1436899628968,0.0
316,1436899628969,0.0
317,1436899628970,0.0
318,1436899629000,0.0
319,1436899629001,0.0
320,1436899629076,0.0
321,1436899629077,0.0
322,1436899629078,0.0
323,1436899629079,0.0
324,1436899629103,0.0
325,1436899629119,0.0
326,1436899629133,0.0
327,1436899629153,0.0
328,1436899629175,0.0
329,1436899629193,0.0
330,1436899629217,0.0
331,1436899629234,0.0
332,1436899629254,0.0
333,1436899629280,0.0
334,1436899629308,0.0
335,1436899629315,0.0
336,1436899629334,0.0
337,1436899629353,0.0
338,1436899629373,0.0
339,1436899629393,0.0
340,1436899629413,0.0
341,1436899629433,0.0
342,1436899629453,0.0
343,1436899629473,0.0
344,1436899629493,0.0
345,1436899629513,0.0
346,1436899629533,0.0
347,1436899629553,0.0
348,1436899629573,0.0
349,1436899629593,0.0
350,1436899629613,0.0
351,1436899629633,0.0
352,1436899629653,0.0
353,1436899629676,0.0
354,1436899629695,0.0
355,1436899629714,0.0
356,1436899629736,0.0
357,1436899629756,0.0
358,1436899629777,0.0
359,1436899629794,0.0
360,1436899629815,0.0
361,1436899629835,0.0
362,1436899629855,0.0
363,1436899629874,0.0
364,1436899629895,0.0
365,1436899629916,0.0
366,1436899629935,0.0
367,1436899629958,0.0
368,1436899629978,0.0
369,1436899629996,0.0
370,1436899630015,0.0
371,1436899630036,0.0
372,1436899630054,0.0
373,1436899630078,0.0
374,1436899630098,0.0
375,1436899630116,0.0
376,1436899630137,0.0
377,1436899630155,0.0
378,1436899630176,0.0
379,1436899630195,0.0
380,1436899630218,0.0
381,1436899630239,0.0
382,1436899630276,0.0
383,1436899630283,0.0
384,1436899630301,0.0
385,1436899630316,0.0
386,1436899630335,0.0
387,1436899630466,0.0
388,1436899630500,0.0
389,1436899630501,0.0
390,1436899630502,0.0
391,1436899630503,0.0
392,1436899630504,0.0
393,1436899630505,0.0
394,1436899630506,0.0
395,1436899630526,0.0
396,1436899630539,0.0
397,1436899630555,0.0
398,1436899630580,0.0
399,1436899630602,0.0
400,1436899630619,0.0
401,1436899630635,0.0
402,1436899630656,0.0
403,1436899630675,0.0
404,1436899630695,0.0
405,1436899630715,0.0
406,1436899630735,0.0
407,1436899630755,0.0
408,1436899630783,0.0
409,1436899630794,0.0
410,1436899630814,0.0
411,1436899630835,0.0
412,1436899630855,0.0
413,1436899630875,0.0
414,1436899630895,0.0
415,1436899630915,0.0
416,1436899630935,0.0
417,1436899630955,0.0
418,1436899630975,0.0
419,1436899630995,0.0
420,1436899631015,0.0
421,1436899631035,0.0
422,1436899631055,0.0
423,1436899631075,0.0
424,1436899631095,0.0
425,1436899631115,0.0
426,1436899631135,0.0
427,1436899631155,0.0
428,1436899631177,0.0
429,1436899631196,0.0
430,1436899631216,0.0
431,1436899631236,0.0
432,1436899631256,0.0
433,1436899631277,0.0
434,1436899631298,0.0
435,1436899631316,0.0
436,1436899631337,0.0
437,1436899631356,0.0
438,1436899631376,0.0
439,1436899631397,0.0
440,1436899631417,0.0
441,1436899631438,0.0
442,1436899631458,0.0
443,1436899631477,0.0
444,1436899631496,0.0
445,1436899631516,0.0
446,1436899631537,0.0
447,1436899631558,0.0
448,1436899631578,0.0
449,1436899631595,0.0
450,1436899631645,0.0
451,1436899631646,0.0
452,1436899631661,0.0
453,1436899631679,0.0
454,1436899631698,0.0
455,1436899631717,0.0
456,1436899631738,0.0
457,1436899631767,0.0
458,1436899631825,0.0
459,1436899631826,0.0
460,1436899631828,0.0
461,1436899631844,0.0
462,1436899631857,0.0
463,1436899631884,0.0
464,1436899631897,0.0
465,1436899631923,0.0
466,1436899631937,0.0
467,1436899631957,0.0
468,1436899631977,0.0
469,1436899631997,0.0
470,1436899632017,0.0
471,1436899632037,0.0
472,1436899632057,0.0
473,1436899632077,0.0
474,1436899632097,0.0
475,1436899632116,0.0
476,1436899632136,0.0
477,1436899632156,0.0
478,1436899632176,0.0
479,1436899632196,0.0
480,1436899632216,0.0
481,1436899632236,0.0
482,1436899632256,0.0
483,1436899632276,0.0
484,1436899632296,0.0
485,1436899632317,0.0
486,1436899632362,0.0
487,1436899632363,0.0
488,1436899632376,0.0
489,1436899632398,0.0
490,1436899632418,0.0
491,1436899632438,0.0
492,1436899632457,0.0
493,1436899632487,0.0
494,1436899632498,0.0
495,1436899632516,0.0
496,1436899632537,0.0
497,1436899632558,0.0
498,1436899632579,0.0
499,1436899632598,0.0
500,1436899632618,0.0
501,1436899632638,0.0
502,1436899632658,0.0
503,1436899632678,0.0
504,1436899632697,0.0
505,1436899632716,0.0
506,1436899632739,0.0
507,1436899632758,0.0
508,1436899632778,0.0
509,1436899632798,0.0
510,1436899632817,0.0
511,1436899632837,0.0
512,1436899632859,0.0
513,1436899632878,0.0
514,1436899632898,0.0
515,1436899632917,0.0
516,1436899632938,0.0
517,1436899632957,0.0
518,1436899632977,0.0
519,1436899632997,0.0
520,1436899633018,0.0
521,1436899633039,0.0
522,1436899633059,0.0
523,1436899633080,0.0
524,1436899633098,0.0
525,1436899633170,0.0
526,1436899633171,0.0
527,1436899633172,0.0
528,1436899633185,0.0
529,1436899633209,0.0
530,1436899633224,0.0
531,1436899633288,0.0
532,1436899633289,0.0
533,1436899633290,0.0
534,1436899633330,0.0
535,1436899633331,0.0
536,1436899633359,0.0
537,1436899633360,0.0
538,1436899633382,0.0
539,1436899633398,0.0
540,1436899633418,0.0
541,1436899633438,0.0
542,1436899633461,0.0
543,1436899633480,0.0
544,1436899633499,0.0
545,1436899633518,0.0
546,1436899633538,0.0
547,1436899633558,0.0
548,1436899633578,0.0
549,1436899633598,0.0
550,1436899633617,0.0
551,1436899633646,0.0
552,1436899633657,0.0
553,1436899633680,0.0
554,1436899633698,0.0
555,1436899633719,0.0
556,1436899633740,0.0
557,1436899633759,0.0
558,1436899633780,0.0
559,1436899633800,0.0
560,1436899633819,0.0
561,1436899633840,0.0
562,1436899633859,0.0
563,1436899633891,0.0
564,1436899633898,0.0
565,1436899633918,0.0
566,1436899633938,0.0
567,1436899633958,0.0
568,1436899633980,0.0
569,1436899633999,0.0
570,1436899634021,0.0
571,1436899634040,0.0
572,1436899634060,0.0
573,1436899634080,0.0
574,1436899634098,0.0
575,1436899634119,0.0
576,1436899634141,0.0
577,1436899634163,0.0
578,1436899634183,0.0
579,1436899634201,0.0
580,1436899634219,0.0
581,1436899634242,0.0
582,1436899634260,0.0
583,1436899634279,0.0
584,1436899634299,0.0
585,1436899634319,0.0
586,1436899634338,0.0
587,1436899634359,0.0
588,1436899634379,0.0
589,1436899634399,0.0
590,1436899634419,0.0
591,1436899634440,0.0
592,1436899634461,0.0
593,1436899634480,0.0
594,1436899634531,0.0
595,1436899634532,0.0
596,1436899634540,0.0
597,1436899634559,0.0
598,1436899634580,0.0
599,1436899634604,0.0
600,1436899634619,0.0
601,1436899634640,0.0
602,1436899634659,0.0
603,1436899634680,0.0
604,1436899634703,0.0
605,1436899634721,0.0
606,1436899634740,0.0
607,1436899634762,0.0
608,1436899634781,0.0
609,1436899634800,0.0
610,1436899634819,0.0
611,1436899634840,0.0
612,1436899634862,0.0
613,1436899634884,0.0
614,1436899634901,0.0
615,1436899634922,0.0
616,1436899634945,0.0
617,1436899634962,0.0
618,1436899634982,0.0
619,1436899635003,0.0
620,1436899635021,0.0
621,1436899635040,0.0
622,1436899635060,0.0
623,1436899635080,0.0
624,1436899635100,0.0
625,1436899635122,0.0
626,1436899635141,0.0
627,1436899635171,0.0
628,1436899635283,0.0
629,1436899635284,0.0
630,1436899635285,0.0
631,1436899635286,0.0
632,1436899635287,0.0
633,1436899635288,0.0
634,1436899635308,0.0
635,1436899635327,0.0
636,1436899635340,0.0
637,1436899635370,0.0
638,1436899635380,0.0
639,1436899635406,0.0
640,1436899635428,0.0
641,1436899635441,0.0
642,1436899635465,0.0
643,1436899635483,0.0
644,1436899635502,0.0
645,1436899635520,0.0
646,1436899635543,0.0
647,1436899635564,0.0
648,1436899635583,0.0
649,1436899635604,0.0
650,1436899635623,0.0
651,1436899635647,0.0
652,1436899635665,0.0
653,1436899635683,0.0
654,1436899635701,0.0
655,1436899635720,0.0
656,1436899635740,0.0
657,1436899635765,0.0
658,1436899635786,0.0
659,1436899635807,0.0
660,1436899635823,0.0
661,1436899635841,0.0
662,1436899635860,0.0
663,1436899635881,0.0
664,1436899635901,0.0
665,1436899635923,0.0
666,1436899635972,0.0
667,1436899635973,0.0
668,1436899635993,0.0
669,1436899636001,0.0
670,1436899636024,0.0
671,1436899636042,0.0
672,1436899636061,0.0
673,1436899636083,0.0
674,1436899636102,0.0
675,1436899636122,0.0
676,1436899636143,0.0
677,1436899636161,0.0
678,1436899636181,0.0
679,1436899636204,0.0
680,1436899636226,0.0
681,1436899636255,0.0
682,1436899636264,0.0
683,1436899636284,0.0
684,1436899636303,0.0
685,1436899636322,0.0
686,1436899636341,0.0
687,1436899636366,0.0
688,1436899636383,0.0
689,1436899636404,0.0
690,1436899636423,0.0
691,1436899636442,0.0
692,1436899636461,0.0
693,1436899636485,0.0
694,1436899636505,0.0
695,1436899636526,0.0
696,1436899636544,0.0
697,1436899636563,0.0
698,1436899636581,0.0
699,1436899636601,0.0
700,1436899636622,0.0
701,1436899636642,0.0
702,1436899636694,0.0
703,1436899636695,0.0
704,1436899636701,0.0
705,1436899636722,0.0
706,1436899636745,0.0
707,1436899636764,0.0
708,1436899636781,0.0
709,1436899636809,0.0
710,1436899636823,0.0
711,1436899636844,0.0
712,1436899636863,0.0
713,1436899636882,0.0
714,1436899636910,0.0
715,1436899636925,0.0
716,1436899636945,0.0
717,1436899636965,0.0
718,1436899636985,0.0
719,1436899637005,0.0
720,1436899637024,0.0
721,1436899637043,0.0
722,1436899637062,0.0
723,1436899637084,0.0
724,1436899637105,0.0
725,1436899637127,0.0
726,1436899637331,0.0
727,1436899637332,0.0
728,1436899637335,0.0
729,1436899637336,0.0
730,1436899637337,0.0
731,1436899637338,0.0
732,1436899637339,0.0
733,1436899637340,0.0
734,1436899637341,0.0
735,1436899637342,0.0
736,1436899637344,0.0
737,1436899637366,0.0
738,1436899637385,0.0
739,1436899637405,0.0
740,1436899637424,0.0
741,1436899637453,0.0
742,1436899637524,0.0
743,1436899637525,0.0
744,1436899637526,0.0
745,1436899637527,0.0
746,1436899637543,0.0
747,1436899637567,0.0
748,1436899637584,0.0
749,1436899637605,0.0
750,1436899637623,0.0
751,1436899637642,0.0
752,1436899637664,0.0
753,1436899637682,0.0
754,1436899637705,0.0
755,1436899637725,0.0
756,1436899637743,0.0
757,1436899637763,0.0
758,1436899637784,0.0
759,1436899637805,0.0
760,1436899637825,0.0
761,1436899637845,0.0
762,1436899637866,0.0
763,1436899637886,0.0
764,1436899637902,0.0
765,1436899637923,0.0
766,1436899637945,0.0
767,1436899637965,0.0
768,1436899637985,0.0
769,1436899638006,0.0
770,1436899638023,0.0
771,1436899638043,0.0
772,1436899638064,0.0
773,1436899638084,0.0
774,1436899638104,0.0
775,1436899638126,0.0
776,1436899638144,0.0
777,1436899638174,0.0
778,1436899638275,0.0
779,1436899638276,0.0
780,1436899638277,0.0
781,1436899638278,0.0
782,1436899638279,0.0
783,1436899638305,0.0
784,1436899638306,0.0
785,1436899638333,0.0
786,1436899638344,0.0
787,1436899638375,0.0
788,1436899638383,0.0
789,1436899638403,0.0
790,1436899638430,0.0
791,1436899638449,0.0
792,1436899638466,0.0
793,1436899638486,0.0
794,1436899638505,0.0
795,1436899638523,0.0
796,1436899638545,0.0
797,1436899638566,0.0
798,1436899638593,0.0
799,1436899638604,0.0
800,1436899638623,0.0
801,1436899638644,0.0
802,1436899638664,0.0
803,1436899638683,0.0
804,1436899638703,0.0
805,1436899638726,0.0
806,1436899638745,0.0
807,1436899638765,0.0
808,1436899638784,0.0
809,1436899638803,0.0
810,1436899638826,0.0
811,1436899638846,0.0
812,1436899638865,0.0
813,1436899638884,0.0
814,1436899638984,0.0
815,1436899638985,0.0
816,1436899638986,0.0
817,1436899638987,0.0
818,1436899638988,0.0
819,1436899639005,0.0
820,1436899639027,0.0
821,1436899639044,0.0
822,1436899639067,0.0
823,1436899639086,0.0
824,1436899639104,0.0
825,1436899639124,0.0
826,1436899639144,0.0
827,1436899639166,0.0
828,1436899639187,0.0
829,1436899639212,0.0
830,1436899639225,0.0
831,1436899639244,0.0
832,1436899639268,0.0
833,1436899639284,0.0
834,1436899639306,0.0
835,1436899639325,0.0
836,1436899639345,0.0
837,1436899639366,0.0
838,1436899639384,0.0
839,1436899639404,0.0
840,1436899639426,0.0
841,1436899639448,0.0
842,1436899639468,0.0
843,1436899639488,0.0
844,1436899639508,0.0
845,1436899639525,0.0
846,1436899639545,0.0
847,1436899639566,0.0
848,1436899639589,0.0
849,1436899639609,0.0
850,1436899639627,0.0
851,1436899639653,0.0
852,1436899639720,0.0
853,1436899639721,0.0
854,1436899639724,0.0
855,1436899639725,0.0
856,1436899639748,0.0
857,1436899639765,0.0
858,1436899639786,0.0
859,1436899639807,0.0
860,1436899639826,0.0
861,1436899639845,0.0
862,1436899639865,0.0
863,1436899639886,0.0
864,1436899639906,0.0
865,1436899639926,0.0
866,1436899639948,0.0
867,1436899639967,0.0
868,1436899639988,0.0
869,1436899640009,0.0
870,1436899640028,0.0
871,1436899640048,0.0
872,1436899640066,0.0
873,1436899640086,0.0
874,1436899640106,0.0
875,1436899640125,0.0
876,1436899640146,0.0
877,1436899640166,0.0
878,1436899640188,0.0
879,1436899640214,0.0
880,1436899640226,0.0
881,1436899640248,0.0
882,1436899640274,0.0
883,1436899640289,0.0
884,1436899640308,0.0
885,1436899640327,0.0
886,1436899640347,0.0
887,1436899640372,0.0
888,1436899640431,0.0
889,1436899640432,0.0
890,1436899640433,0.0
891,1436899640456,0.0
892,1436899640465,0.0
893,1436899640485,0.0
894,1436899640506,0.0
895,1436899640525,0.0
896,1436899640545,0.0
897,1436899640565,0.0
898,1436899640588,0.0
899,1436899640609,0.0
900,1436899640626,0.0
901,1436899640646,0.0
902,1436899640668,0.0
903,1436899640687,0.0
904,1436899640706,0.0
905,1436899640725,0.0
906,1436899640746,0.0
907,1436899640766,0.0
908,1436899640787,0.0
909,1436899640808,0.0
910,1436899640828,0.0
911,1436899640846,0.0
912,1436899640868,0.0
