id,attr_time,attr_light
1,1436899622619,0.0
2,1436899622640,0.0
3,1436899622660,0.0
4,1436899622679,0.0
5,1436899622700,0.0
6,1436899622719,0.0
7,1436899622742,0.0
8,1436899622763,0.0
9,1436899622784,0.0
10,1436899622797,0.0
11,1436899622825,0.0
12,1436899622838,0.0
13,1436899622859,0.0
14,1436899622878,0.0
15,1436899622959,0.0
16,1436899622960,0.0
17,1436899622961,0.0
18,1436899622962,0.0
19,1436899622979,0.0
20,1436899622998,0.0
21,1436899623021,0.0
22,1436899623039,0.0
23,1436899623058,0.0
24,1436899623084,0.0
25,1436899623100,0.0
26,1436899623119,0.0
27,1436899623139,0.0
28,1436899623158,0.0
29,1436899623181,0.0
30,1436899623201,0.0
31,1436899623221,0.0
32,1436899623241,0.0
33,1436899623261,0.0
34,1436899623281,0.0
35,1436899623301,0.0
36,1436899623318,0.0
37,1436899623346,0.0
38,1436899623362,0.0
39,1436899623378,0.0
40,1436899623401,0.0
41,1436899623419,0.0
42,1436899623438,0.0
43,1436899623458,0.0
44,1436899623481,0.0
45,1436899623503,0.0
46,1436899623519,0.0
47,1436899623538,0.0
48,1436899623558,0.0
49,1436899623578,0.0
50,1436899623598,0.0
51,1436899623626,0.0
52,1436899623638,0.0
53,1436899623680,0.0
54,1436899623681,0.0
55,1436899623698,0.0
56,1436899623719,0.0
57,1436899623741,0.0
58,1436899623761,0.0
59,1436899623779,0.0
60,1436899623799,0.0
61,1436899623820,0.0
62,1436899623840,0.0
63,1436899623858,0.0
64,1436899623881,0.0
65,1436899623898,0.0
66,1436899623923,0.0
67,1436899623939,0.0
68,1436899623962,0.0
69,1436899623982,0.0
70,1436899624002,0.0
71,1436899624022,0.0
72,1436899624041,0.0
73,1436899624062,0.0
74,1436899624082,0.0
75,1436899624102,0.0
76,1436899624121,0.0
77,1436899624140,0.0
78,1436899624162,0.0
79,1436899624178,0.0
80,1436899624198,0.0
81,1436899624218,0.0
82,1436899624243,0.0
83,1436899624264,0.0
84,1436899624284,0.0
85,1436899624302,0.0
86,1436899624318,0.0
87,1436899624338,0.0
88,1436899624358,0.0
89,1436899624380,0.0
90,1436899624399,0.0
91,1436899624473,0.0
92,1436899624474,0.0
93,1436899624475,0.0
94,1436899624482,0.0
95,1436899624500,0.0
96,1436899624520,0.0
97,1436899624539,0.0
98,1436899624564,0.0
99,1436899624579,0.0
100,1436899624603,0.0
101,1436899624624,0.0
102,1436899624642,0.0
103,1436899624662,0.0
104,1436899624682,0.0
105,1436899624702,0.0
106,1436899624722,0.0
107,1436899624739,0.0
108,1436899624762,0.0
109,1436899624780,0.0
110,1436899624802,0.0
111,1436899624820,0.0
112,1436899624844,0.0
113,1436899624859,0.0
114,1436899624882,0.0
115,1436899624902,0.0
116,1436899624922,0.0
117,1436899624943,0.0
118,1436899624962,0.0
119,1436899624982,0.0
120,1436899625003,0.0
121,1436899625022,0.0
122,1436899625043,0.0
123,1436899625062,0.0
124,1436899625081,0.0
125,1436899625099,0.0
126,1436899625123,0.0
127,1436899625176,0.0
128,1436899625189,0.0
129,1436899625190,0.0
130,1436899625201,0.0
131,1436899625220,0.0
132,1436899625240,0.0
133,1436899625259,0.0
134,1436899625284,0.0
135,1436899625301,0.0
136,1436899625320,0.0
137,1436899625340,0.0
138,1436899625361,0.0
139,1436899625382,0.0
140,1436899625403,0.0
141,1436899625423,0.0
142,1436899625443,0.0
143,1436899625463,0.0
144,1436899625483,0.0
145,1436899625503,0.0
146,1436899625523,0.0
147,1436899625543,0.0
148,1436899625563,0.0
149,1436899625580,0.0
150,1436899625603,0.0
151,1436899625625,0.0
152,1436899625645,0.0
153,1436899625665,0.0
154,1436899625682,0.0
155,1436899625700,0.0
156,1436899625720,0.0
157,1436899625743,0.0
158,1436899625762,0.0
159,1436899625780,0.0
160,1436899625812,0.0
161,1436899625820,0.0
162,1436899625849,0.0
163,1436899625914,0.0
164,1436899625915,0.0
165,1436899625916,0.0
166,1436899625924,0.0
167,1436899625941,0.0
168,1436899625960,0.0
169,1436899625980,0.0
170,1436899626000,0.0
171,1436899626021,0.0
172,1436899626041,0.0
173,1436899626061,0.0
174,1436899626083,0.0
175,1436899626103,0.0
176,1436899626121,0.0
177,1436899626143,0.0
178,1436899626163,0.0
179,1436899626185,0.0
180,1436899626203,0.0
181,1436899626224,0.0
182,1436899626244,0.0
183,1436899626263,0.0
184,1436899626283,0.0
185,1436899626300,0.0
186,1436899626321,0.0
187,1436899626343,0.0
188,1436899626361,0.0
189,1436899626382,0.0
190,1436899626402,0.0
191,1436899626425,0.0
192,1436899626445,0.0
193,1436899626465,0.0
194,1436899626483,0.0
195,1436899626502,0.0
196,1436899626521,0.0
197,1436899626540,0.0
198,1436899626563,0.0
199,1436899626585,0.0
200,1436899626635,0.0
201,1436899626636,0.0
202,1436899626643,0.0
203,1436899626661,0.0
204,1436899626681,0.0
205,1436899626702,0.0
206,1436899626721,0.0
207,1436899626753,0.0
208,1436899626763,0.0
209,1436899626781,0.0
210,1436899626804,0.0
211,1436899626821,0.0
212,1436899626842,0.0
213,1436899626863,0.0
214,1436899626883,0.0
215,1436899626905,0.0
216,1436899626923,0.0
217,1436899626942,0.0
218,1436899626963,0.0
219,1436899626983,0.0
220,1436899627006,0.0
221,1436899627023,0.0
222,1436899627044,0.0
223,1436899627062,0.0
224,1436899627083,0.0
225,1436899627104,0.0
226,1436899627123,0.0
227,1436899627144,0.0
228,1436899627163,0.0
229,1436899627182,0.0
230,1436899627202,0.0
231,1436899627222,0.0
232,1436899627243,0.0
233,1436899627264,0.0
234,1436899627283,0.0
235,1436899627303,0.0
236,1436899627327,0.0
237,1436899627396,0.0
238,1436899627397,0.0
239,1436899627398,0.0
240,1436899627404,0.0
241,1436899627422,0.0
242,1436899627442,0.0
243,1436899627462,0.0
244,1436899627491,0.0
245,1436899627502,0.0
246,1436899627596,0.0
247,1436899627597,0.0
248,1436899627601,0.0
249,1436899627602,0.0
250,1436899627603,0.0
251,1436899627660,0.0
252,1436899627662,0.0
253,1436899627663,0.0
254,1436899627699,0.0
255,1436899627702,0.0
256,1436899627722,0.0
257,1436899627742,0.0
258,1436899627762,0.0
259,1436899627785,0.0
260,1436899627803,0.0
261,1436899627824,0.0
262,1436899627842,0.0
263,1436899627865,0.0
264,1436899627889,0.0
265,1436899627908,0.0
266,1436899627927,0.0
267,1436899627946,0.0
268,1436899627964,0.0
269,1436899627981,0.0
270,1436899628001,0.0
271,1436899628022,0.0
272,1436899628041,0.0
273,1436899628061,0.0
274,1436899628082,0.0
275,1436899628102,0.0
276,1436899628121,0.0
277,1436899628141,0.0
278,1436899628161,0.0
279,1436899628181,0.0
280,1436899628201,0.0
281,1436899628221,0.0
282,1436899628241,0.0
283,1436899628261,0.0
284,1436899628281,0.0
285,1436899628301,0.0
286,1436899628325,0.0
287,1436899628343,0.0
288,1436899628363,0.0
289,1436899628383,0.0
290,1436899628402,0.0
291,1436899628422,0.0
292,1436899628442,0.0
293,1436899628462,0.0
294,1436899628483,0.0
295,1436899628503,0.0
296,1436899628523,0.0
297,1436899628544,0.0
298,1436899628565,0.0
299,1436899628583,0.0
300,1436899628606,0.0
301,1436899628623,0.0
302,1436899628642,0.0
303,1436899628691,0.0
304,1436899628692,0.0
305,1436899628711,0.0
306,1436899628722,0.0
307,1436899628742,0.0
308,1436899628762,0.0
309,1436899628784,0.0
310,1436899628803,0.0
311,1436899628823,0.0
312,1436899628842,0.0
313,1436899628862,0.0
314,1436899628882,0.0
315,1436899628904,0.0
316,1436899628925,0.0
317,1436899628946,0.0
318,1436899628963,0.0
319,1436899628983,0.0
320,1436899629004,0.0
321,1436899629025,0.0
322,1436899629044,0.0
323,1436899629064,0.0
324,1436899629085,0.0
325,1436899629105,0.0
326,1436899629123,0.0
327,1436899629145,0.0
328,1436899629164,0.0
329,1436899629183,0.0
330,1436899629204,0.0
331,1436899629226,0.0
332,1436899629244,0.0
333,1436899629264,0.0
334,1436899629285,0.0
335,1436899629307,0.0
336,1436899629372,0.0
337,1436899629373,0.0
338,1436899629374,0.0
339,1436899629392,0.0
340,1436899629404,0.0
341,1436899629426,0.0
342,1436899629443,0.0
343,1436899629463,0.0
344,1436899629485,0.0
345,1436899629505,0.0
346,1436899629524,0.0
347,1436899629545,0.0
348,1436899629565,0.0
349,1436899629586,0.0
350,1436899629605,0.0
351,1436899629626,0.0
352,1436899629646,0.0
353,1436899629663,0.0
354,1436899629686,0.0
355,1436899629706,0.0
356,1436899629725,0.0
357,1436899629747,0.0
358,1436899629768,0.0
359,1436899629786,0.0
360,1436899629804,0.0
361,1436899629824,0.0
362,1436899629844,0.0
363,1436899629864,0.0
364,1436899629888,0.0
365,1436899629909,0.0
366,1436899629929,0.0
367,1436899629949,0.0
368,1436899629964,0.0
369,1436899629984,0.0
370,1436899630004,0.0
371,1436899630027,0.0
372,1436899630046,0.0
373,1436899630125,0.0
374,1436899630126,0.0
375,1436899630127,0.0
376,1436899630136,0.0
377,1436899630198,0.0
378,1436899630199,0.0
379,1436899630200,0.0
380,1436899630236,0.0
381,1436899630237,0.0
382,1436899630281,0.0
383,1436899630282,0.0
384,1436899630286,0.0
385,1436899630305,0.0
386,1436899630326,0.0
387,1436899630345,0.0
388,1436899630366,0.0
389,1436899630388,0.0
390,1436899630407,0.0
391,1436899630427,0.0
392,1436899630447,0.0
393,1436899630466,0.0
394,1436899630488,0.0
395,1436899630506,0.0
396,1436899630528,0.0
397,1436899630549,0.0
398,1436899630566,0.0
399,1436899630586,0.0
400,1436899630607,0.0
401,1436899630628,0.0
402,1436899630648,0.0
403,1436899630665,0.0
404,1436899630688,0.0
405,1436899630707,0.0
406,1436899630728,0.0
407,1436899630748,0.0
408,1436899630765,0.0
409,1436899630796,0.0
410,1436899630813,1.0
411,1436899630826,1.0
412,1436899630851,1.0
413,1436899630909,1.0
414,1436899630910,1.0
415,1436899630911,1.0
416,1436899630925,1.0
417,1436899630946,1.0
418,1436899630968,1.0
419,1436899630987,1.0
420,1436899631005,1.0
421,1436899631026,0.0
422,1436899631045,0.0
423,1436899631067,0.0
424,1436899631086,0.0
425,1436899631106,0.0
426,1436899631127,0.0
427,1436899631148,0.0
428,1436899631167,0.0
429,1436899631187,0.0
430,1436899631209,0.0
431,1436899631227,0.0
432,1436899631248,0.0
433,1436899631267,0.0
434,1436899631288,0.0
435,1436899631310,0.0
436,1436899631326,0.0
437,1436899631348,0.0
438,1436899631367,0.0
439,1436899631388,0.0
440,1436899631408,0.0
441,1436899631427,0.0
442,1436899631446,0.0
443,1436899631467,0.0
444,1436899631488,0.0
445,1436899631509,0.0
446,1436899631528,0.0
447,1436899631546,0.0
448,1436899631576,0.0
449,1436899631587,0.0
450,1436899631634,0.0
451,1436899631635,0.0
452,1436899631645,0.0
453,1436899631665,0.0
454,1436899631686,0.0
455,1436899631707,0.0
456,1436899631725,0.0
457,1436899631746,0.0
458,1436899631776,0.0
459,1436899631789,0.0
460,1436899631812,0.0
461,1436899631826,0.0
462,1436899631850,0.0
463,1436899631881,0.0
464,1436899631886,0.0
465,1436899631906,0.0
466,1436899631926,0.0
467,1436899631946,0.0
468,1436899631965,0.0
469,1436899631986,0.0
470,1436899632006,0.0
471,1436899632026,0.0
472,1436899632046,0.0
473,1436899632066,0.0
474,1436899632086,0.0
475,1436899632106,0.0
476,1436899632168,0.0
477,1436899632169,0.0
478,1436899632170,0.0
479,1436899632186,0.0
480,1436899632208,0.0
481,1436899632226,0.0
482,1436899632246,0.0
483,1436899632268,0.0
484,1436899632295,0.0
485,1436899632353,0.0
486,1436899632354,0.0
487,1436899632355,0.0
488,1436899632366,0.0
489,1436899632386,0.0
490,1436899632412,0.0
491,1436899632428,0.0
492,1436899632446,0.0
493,1436899632465,0.0
494,1436899632487,0.0
495,1436899632508,0.0
496,1436899632526,0.0
497,1436899632547,0.0
498,1436899632565,0.0
499,1436899632590,0.0
500,1436899632610,0.0
501,1436899632630,0.0
502,1436899632649,0.0
503,1436899632670,0.0
504,1436899632690,0.0
505,1436899632710,0.0
506,1436899632730,0.0
507,1436899632747,0.0
508,1436899632769,0.0
509,1436899632789,0.0
510,1436899632807,0.0
511,1436899632829,0.0
512,1436899632849,0.0
513,1436899632869,0.0
514,1436899632890,0.0
515,1436899632910,0.0
516,1436899632931,0.0
517,1436899632950,0.0
518,1436899632967,0.0
519,1436899632987,0.0
520,1436899633016,0.0
521,1436899633027,0.0
522,1436899633108,0.0
523,1436899633109,0.0
524,1436899633119,0.0
525,1436899633120,0.0
526,1436899633131,0.0
527,1436899633147,0.0
528,1436899633168,0.0
529,1436899633187,0.0
530,1436899633213,0.0
531,1436899633229,0.0
532,1436899633249,0.0
533,1436899633270,0.0
534,1436899633289,0.0
535,1436899633311,0.0
536,1436899633328,0.0
537,1436899633350,0.0
538,1436899633369,0.0
539,1436899633390,0.0
540,1436899633410,0.0
541,1436899633430,0.0
542,1436899633450,0.0
543,1436899633469,0.0
544,1436899633490,0.0
545,1436899633509,0.0
546,1436899633530,0.0
547,1436899633550,0.0
548,1436899633568,0.0
549,1436899633589,0.0
550,1436899633610,0.0
551,1436899633630,0.0
552,1436899633650,0.0
553,1436899633672,0.0
554,1436899633691,0.0
555,1436899633711,0.0
556,1436899633729,0.0
557,1436899633753,0.0
558,1436899633875,0.0
559,1436899633876,0.0
560,1436899633877,0.0
561,1436899633878,0.0
562,1436899633879,0.0
563,1436899633880,0.0
564,1436899633899,0.0
565,1436899633908,0.0
566,1436899633929,0.0
567,1436899633948,0.0
568,1436899633969,0.0
569,1436899633988,0.0
570,1436899634008,0.0
571,1436899634028,0.0
572,1436899634049,0.0
573,1436899634068,0.0
574,1436899634091,0.0
575,1436899634111,0.0
576,1436899634134,0.0
577,1436899634151,0.0
578,1436899634171,0.0
579,1436899634191,0.0
580,1436899634210,0.0
581,1436899634231,0.0
582,1436899634251,0.0
583,1436899634271,0.0
584,1436899634291,0.0
585,1436899634310,0.0
586,1436899634329,0.0
587,1436899634360,0.0
588,1436899634368,0.0
589,1436899634389,0.0
590,1436899634409,0.0
591,1436899634428,0.0
592,1436899634448,0.0
593,1436899634470,0.0
594,1436899634490,0.0
595,1436899634510,0.0
596,1436899634531,0.0
597,1436899634550,0.0
598,1436899634621,0.0
599,1436899634622,0.0
600,1436899634623,0.0
601,1436899634630,0.0
602,1436899634649,0.0
603,1436899634671,0.0
604,1436899634688,0.0
605,1436899634714,0.0
606,1436899634730,0.0
607,1436899634754,0.0
608,1436899634779,0.0
609,1436899634788,0.0
610,1436899634810,0.0
611,1436899634829,0.0
612,1436899634849,0.0
613,1436899634872,0.0
614,1436899634892,0.0
615,1436899634912,0.0
616,1436899634932,0.0
617,1436899634952,0.0
618,1436899634973,0.0
619,1436899634993,0.0
620,1436899635009,0.0
621,1436899635031,0.0
622,1436899635052,0.0
623,1436899635072,0.0
624,1436899635092,0.0
625,1436899635109,0.0
626,1436899635129,0.0
627,1436899635149,0.0
628,1436899635171,0.0
629,1436899635193,0.0
630,1436899635211,0.0
631,1436899635231,0.0
632,1436899635249,0.0
633,1436899635272,0.0
634,1436899635341,0.0
635,1436899635342,0.0
636,1436899635343,0.0
637,1436899635349,0.0
638,1436899635379,0.0
639,1436899635391,0.0
640,1436899635412,0.0
641,1436899635431,0.0
642,1436899635450,0.0
643,1436899635472,0.0
644,1436899635491,0.0
645,1436899635510,0.0
646,1436899635530,0.0
647,1436899635553,0.0
648,1436899635572,0.0
649,1436899635592,0.0
650,1436899635612,0.0
651,1436899635632,0.0
652,1436899635653,0.0
653,1436899635672,0.0
654,1436899635692,0.0
655,1436899635713,0.0
656,1436899635730,0.0
657,1436899635756,0.0
658,1436899635772,0.0
659,1436899635789,0.0
660,1436899635817,0.0
661,1436899635834,0.0
662,1436899635856,0.0
663,1436899635874,0.0
664,1436899635893,0.0
665,1436899635910,0.0
666,1436899635930,0.0
667,1436899635951,0.0
668,1436899635971,0.0
669,1436899635993,0.0
670,1436899636061,0.0
671,1436899636062,0.0
672,1436899636063,0.0
673,1436899636073,0.0
674,1436899636090,0.0
675,1436899636110,0.0
676,1436899636130,0.0
677,1436899636150,0.0
678,1436899636173,0.0
679,1436899636191,0.0
680,1436899636212,0.0
681,1436899636231,0.0
682,1436899636251,0.0
683,1436899636273,0.0
684,1436899636293,0.0
685,1436899636313,0.0
686,1436899636331,0.0
687,1436899636353,0.0
688,1436899636372,0.0
689,1436899636393,0.0
690,1436899636413,0.0
691,1436899636433,0.0
692,1436899636458,0.0
693,1436899636473,0.0
694,1436899636493,0.0
695,1436899636513,0.0
696,1436899636533,0.0
697,1436899636553,0.0
698,1436899636572,0.0
699,1436899636593,0.0
700,1436899636613,0.0
701,1436899636633,0.0
702,1436899636652,0.0
703,1436899636670,0.0
704,1436899636691,0.0
705,1436899636711,0.0
706,1436899636819,0.0
707,1436899636820,0.0
708,1436899636821,0.0
709,1436899636822,0.0
710,1436899636823,0.0
711,1436899636842,0.0
712,1436899636850,0.0
713,1436899636871,0.0
714,1436899636890,0.0
715,1436899636910,0.0
716,1436899636936,0.0
717,1436899636952,0.0
718,1436899636971,0.0
719,1436899636993,0.0
720,1436899637014,0.0
721,1436899637034,0.0
722,1436899637054,0.0
723,1436899637073,0.0
724,1436899637093,0.0
725,1436899637114,0.0
726,1436899637134,0.0
727,1436899637154,0.0
728,1436899637173,0.0
729,1436899637193,0.0
730,1436899637212,0.0
731,1436899637233,0.0
732,1436899637254,0.0
733,1436899637274,0.0
734,1436899637293,0.0
735,1436899637314,0.0
736,1436899637331,0.0
737,1436899637353,0.0
738,1436899637372,0.0
739,1436899637392,0.0
740,1436899637413,0.0
741,1436899637433,0.0
742,1436899637452,0.0
743,1436899637478,0.0
744,1436899637549,0.0
745,1436899637550,0.0
746,1436899637552,0.0
747,1436899637553,0.0
748,1436899637571,0.0
749,1436899637592,0.0
750,1436899637611,0.0
751,1436899637631,0.0
752,1436899637653,0.0
753,1436899637673,0.0
754,1436899637693,0.0
755,1436899637712,0.0
756,1436899637733,0.0
757,1436899637756,0.0
758,1436899637771,0.0
759,1436899637793,0.0
760,1436899637818,0.0
761,1436899637833,0.0
762,1436899637851,0.0
763,1436899637872,0.0
764,1436899637894,0.0
765,1436899637912,0.0
766,1436899637934,0.0
767,1436899637955,0.0
768,1436899637973,0.0
769,1436899637992,0.0
770,1436899638012,0.0
771,1436899638033,0.0
772,1436899638053,0.0
773,1436899638074,0.0
774,1436899638093,0.0
775,1436899638114,0.0
776,1436899638133,0.0
777,1436899638153,0.0
778,1436899638173,0.0
779,1436899638208,0.0
780,1436899638262,0.0
781,1436899638265,0.0
782,1436899638266,0.0
783,1436899638281,0.0
784,1436899638292,0.0
785,1436899638319,0.0
786,1436899638332,0.0
787,1436899638352,0.0
788,1436899638374,0.0
789,1436899638393,0.0
790,1436899638414,0.0
791,1436899638432,0.0
792,1436899638453,0.0
793,1436899638474,0.0
794,1436899638495,0.0
795,1436899638515,0.0
796,1436899638535,0.0
797,1436899638553,0.0
798,1436899638574,0.0
799,1436899638595,0.0
800,1436899638615,0.0
801,1436899638635,0.0
802,1436899638654,0.0
803,1436899638673,0.0
804,1436899638695,0.0
805,1436899638712,0.0
806,1436899638732,0.0
807,1436899638756,0.0
808,1436899638773,0.0
809,1436899638802,0.0
810,1436899638812,0.0
811,1436899638833,0.0
812,1436899638852,0.0
813,1436899638876,0.0
814,1436899638893,0.0
815,1436899638915,0.0
816,1436899638933,0.0
817,1436899639012,0.0
818,1436899639013,0.0
819,1436899639014,0.0
820,1436899639015,0.0
821,1436899639034,0.0
822,1436899639056,0.0
823,1436899639072,0.0
824,1436899639092,0.0
825,1436899639117,0.0
826,1436899639134,0.0
827,1436899639154,0.0
828,1436899639175,0.0
829,1436899639196,0.0
830,1436899639216,0.0
831,1436899639236,0.0
832,1436899639256,0.0
833,1436899639273,0.0
834,1436899639296,0.0
835,1436899639316,0.0
836,1436899639333,0.0
837,1436899639354,0.0
838,1436899639374,0.0
839,1436899639394,0.0
840,1436899639416,0.0
841,1436899639436,0.0
842,1436899639456,0.0
843,1436899639474,0.0
844,1436899639496,0.0
845,1436899639514,0.0
846,1436899639534,0.0
847,1436899639555,0.0
848,1436899639575,0.0
849,1436899639593,0.0
850,1436899639613,0.0
851,1436899639633,0.0
852,1436899639653,0.0
853,1436899639673,0.0
854,1436899639694,0.0
855,1436899639718,0.0
856,1436899639733,0.0
857,1436899639754,0.0
858,1436899639773,0.0
859,1436899639802,0.0
860,1436899639818,0.0
861,1436899639833,0.0
862,1436899639853,0.0
863,1436899639873,0.0
864,1436899639893,0.0
865,1436899639914,0.0
866,1436899639935,0.0
867,1436899639955,0.0
868,1436899639976,0.0
869,1436899640000,0.0
870,1436899640014,0.0
871,1436899640035,0.0
872,1436899640058,0.0
873,1436899640073,0.0
874,1436899640094,0.0
875,1436899640114,0.0
876,1436899640135,0.0
877,1436899640182,0.0
878,1436899640183,0.0
879,1436899640193,0.0
880,1436899640213,0.0
881,1436899640233,0.0
882,1436899640255,0.0
883,1436899640274,0.0
884,1436899640293,0.0
885,1436899640313,0.0
886,1436899640333,0.0
887,1436899640355,0.0
888,1436899640375,0.0
889,1436899640394,0.0
890,1436899640415,0.0
891,1436899640439,0.0
892,1436899640469,0.0
893,1436899640474,0.0
894,1436899640495,0.0
895,1436899640517,0.0
896,1436899640533,0.0
897,1436899640553,0.0
898,1436899640575,0.0
899,1436899640596,0.0
900,1436899640614,0.0
901,1436899640637,0.0
902,1436899640658,0.0
903,1436899640674,0.0
904,1436899640697,0.0
905,1436899640716,0.0
906,1436899640736,0.0
907,1436899640759,0.0
908,1436899640778,0.0
909,1436899640796,0.0
910,1436899640818,0.0
911,1436899640836,0.0
912,1436899640858,0.0
