id,attr_time,attr_x,attr_y,attr_z
1,1437139316410,23.959,13.056,54.38
2,1437139316430,23.959,13.056,54.38
3,1437139316450,23.959,13.056,54.38
4,1437139316470,23.959,13.056,54.38
5,1437139316490,23.959,13.056,54.38
6,1437139316510,24.275,13.056,54.38
7,1437139316530,24.275,13.056,54.38
8,1437139316550,24.275,13.056,54.38
9,1437139316572,24.275,13.056,54.693
10,1437139316592,24.275,13.056,54.693
11,1437139316611,24.275,13.056,54.693
12,1437139316633,24.627,13.056,54.693
13,1437139316652,24.627,13.056,54.693
14,1437139316672,24.627,12.734,54.693
15,1437139316693,24.627,12.734,54.693
16,1437139316713,24.627,12.734,54.693
17,1437139316732,24.627,12.734,54.693
18,1437139316753,24.929,12.734,54.693
19,1437139316772,24.929,12.734,54.693
20,1437139316793,24.929,12.734,54.693
21,1437139316815,24.929,12.734,54.693
22,1437139316835,24.929,12.734,54.693
23,1437139316853,24.929,12.734,54.693
24,1437139316875,24.929,12.734,54.693
25,1437139316894,24.929,12.734,54.693
26,1437139316914,24.929,12.734,54.693
27,1437139316934,24.929,12.734,54.693
28,1437139316953,24.929,12.734,54.693
29,1437139316975,24.929,12.734,54.693
30,1437139316992,24.929,12.734,54.693
31,1437139317013,24.929,12.734,54.693
32,1437139317035,24.929,12.734,54.693
33,1437139317069,24.929,12.734,54.693
34,1437139317074,24.929,12.734,54.693
35,1437139317092,24.929,12.734,54.693
36,1437139317112,24.929,12.734,54.693
37,1437139317132,24.929,12.734,54.693
38,1437139317151,24.929,12.734,54.693
39,1437139317172,24.929,12.734,54.693
40,1437139317193,24.929,12.734,54.693
41,1437139317212,24.929,12.734,54.693
42,1437139317236,24.929,12.734,54.693
43,1437139317253,24.929,12.734,54.693
44,1437139317273,24.929,12.734,54.693
45,1437139317295,24.929,12.734,54.693
46,1437139317315,24.929,12.734,54.693
47,1437139317335,24.604,12.734,54.693
48,1437139317352,24.604,12.734,54.693
49,1437139317373,24.604,12.734,54.693
50,1437139317395,24.604,13.058,54.693
51,1437139317415,24.604,13.058,54.693
52,1437139317434,24.604,13.058,54.693
53,1437139317453,24.604,13.058,54.693
54,1437139317472,24.604,13.058,54.693
55,1437139317493,24.604,13.058,54.693
56,1437139317512,24.604,13.058,54.693
57,1437139317532,24.604,13.058,54.388
58,1437139317555,24.604,13.058,54.388
59,1437139317575,24.604,13.058,54.388
60,1437139317595,24.604,13.058,54.388
61,1437139317615,24.604,13.058,54.388
62,1437139317633,24.604,13.058,54.388
63,1437139317657,24.604,13.058,54.388
64,1437139317675,24.604,13.058,54.388
65,1437139317698,24.604,13.058,54.388
66,1437139317748,24.604,13.058,54.388
67,1437139317755,24.604,13.058,54.388
68,1437139317756,24.604,13.058,54.388
69,1437139317773,24.604,13.058,54.388
70,1437139317792,24.604,13.058,54.388
71,1437139317813,24.604,13.058,54.388
72,1437139317833,24.604,12.725,54.388
73,1437139317885,24.908,12.725,54.388
74,1437139317886,24.908,12.725,54.388
75,1437139317903,24.908,12.725,54.388
76,1437139317913,24.908,12.725,54.388
77,1437139317933,24.908,12.725,54.388
78,1437139317955,24.908,12.725,54.388
79,1437139317973,24.908,12.725,54.388
80,1437139317994,24.908,12.725,54.388
81,1437139318016,24.908,12.725,54.388
82,1437139318033,24.908,12.725,54.388
83,1437139318054,24.583,12.725,54.388
84,1437139318073,24.583,12.725,54.388
85,1437139318094,24.583,12.725,54.388
86,1437139318116,24.583,12.725,54.388
87,1437139318136,24.583,13.04,54.388
88,1437139318155,24.583,13.04,54.388
89,1437139318174,24.583,13.04,54.388
90,1437139318193,24.583,13.04,54.388
91,1437139318216,24.583,13.04,54.388
92,1437139318239,24.583,13.04,54.388
93,1437139318254,24.583,13.04,54.388
94,1437139318277,24.583,13.04,54.388
95,1437139318295,24.583,13.04,54.388
96,1437139318316,24.583,13.04,54.388
97,1437139318336,24.583,13.04,54.388
98,1437139318355,24.583,13.04,54.388
99,1437139318376,24.583,13.04,54.388
100,1437139318396,24.583,13.04,54.388
101,1437139318415,24.583,13.04,54.388
102,1437139318480,24.583,13.04,54.388
103,1437139318481,24.583,13.04,54.388
104,1437139318482,24.583,13.04,54.388
105,1437139318500,24.9,13.04,54.388
106,1437139318514,24.9,13.04,54.388
107,1437139318534,24.9,13.04,54.388
108,1437139318553,24.9,13.04,54.388
109,1437139318578,24.9,12.712,54.388
110,1437139318606,24.9,12.712,54.388
111,1437139318617,24.9,12.712,54.388
112,1437139318634,24.9,12.712,54.388
113,1437139318656,24.9,12.712,54.388
114,1437139318676,24.9,12.712,54.388
115,1437139318695,24.9,12.712,54.388
116,1437139318716,24.9,12.712,54.388
117,1437139318737,24.9,12.712,54.388
118,1437139318753,24.591,12.712,54.388
119,1437139318776,24.591,13.021,54.388
120,1437139318794,24.591,13.021,54.388
121,1437139318816,24.591,13.021,54.388
122,1437139318837,24.591,13.021,54.388
123,1437139318855,24.591,13.021,54.388
124,1437139318877,24.591,13.021,54.388
125,1437139318894,24.591,13.021,54.388
126,1437139318917,24.591,13.021,54.689
127,1437139318937,24.591,13.021,54.689
128,1437139318956,24.591,13.021,54.689
129,1437139318976,24.591,13.021,54.689
130,1437139318994,24.591,13.021,54.689
131,1437139319018,24.591,13.021,54.689
132,1437139319039,24.591,13.021,54.689
133,1437139319058,24.591,13.021,54.689
134,1437139319077,24.591,13.021,54.689
135,1437139319093,24.591,13.021,54.689
136,1437139319115,24.591,13.021,54.689
137,1437139319135,24.591,13.021,54.689
138,1437139319156,24.591,13.021,54.689
139,1437139319245,24.591,13.021,54.689
140,1437139319246,24.591,13.021,54.689
141,1437139319247,24.591,13.021,54.689
142,1437139319248,24.591,13.021,54.689
143,1437139319256,24.591,13.021,54.689
144,1437139319274,24.591,13.021,54.689
145,1437139319294,24.591,13.021,54.689
146,1437139319314,24.591,13.021,54.689
147,1437139319334,24.591,13.021,54.689
148,1437139319354,24.914,13.021,54.689
149,1437139319375,24.914,13.021,54.689
150,1437139319397,24.914,13.021,54.689
151,1437139319415,24.914,13.021,54.689
152,1437139319434,24.914,13.021,54.689
153,1437139319458,24.914,13.021,54.689
154,1437139319476,24.914,13.021,54.689
155,1437139319496,24.914,13.021,54.689
156,1437139319516,24.914,13.021,54.689
157,1437139319537,24.914,13.021,54.689
158,1437139319558,24.914,13.021,54.689
159,1437139319577,24.914,13.021,54.689
160,1437139319598,24.914,13.021,54.689
161,1437139319616,24.914,13.021,54.689
162,1437139319642,24.914,13.021,54.689
163,1437139319663,24.914,13.021,54.689
164,1437139319675,24.914,13.021,54.689
165,1437139319697,24.914,13.021,54.689
166,1437139319739,24.914,13.339,54.689
167,1437139319740,24.914,13.339,54.689
168,1437139320120,24.914,13.339,54.689
169,1437139320121,24.914,13.339,54.689
170,1437139320122,24.914,13.339,54.689
171,1437139320123,24.914,13.339,54.689
172,1437139320124,24.914,13.339,54.689
173,1437139320125,24.914,13.339,54.689
174,1437139320126,24.914,13.339,54.689
175,1437139320156,24.914,13.339,54.689
176,1437139320157,24.914,13.339,54.689
177,1437139320158,24.914,13.339,54.689
178,1437139320159,24.914,13.339,54.689
179,1437139320160,24.914,13.339,54.689
180,1437139320161,24.914,13.339,54.689
181,1437139320162,24.914,13.339,54.689
182,1437139320163,24.914,13.339,54.689
183,1437139320164,24.914,13.339,54.689
184,1437139320165,24.914,13.339,54.689
185,1437139320166,24.914,13.339,54.689
186,1437139320167,24.914,13.339,54.689
187,1437139320168,24.61,13.339,54.689
188,1437139320169,24.61,13.339,54.689
189,1437139320186,24.61,13.703,54.689
190,1437139320218,24.61,13.703,54.689
191,1437139320219,24.61,13.703,54.689
192,1437139320235,24.61,13.703,54.689
193,1437139320254,24.61,13.703,54.689
194,1437139320279,24.61,13.703,54.689
195,1437139320299,24.61,13.703,54.689
196,1437139320319,24.302,13.703,54.689
197,1437139320339,24.302,13.703,54.689
198,1437139320359,24.302,13.703,54.689
199,1437139320379,24.302,13.703,54.689
200,1437139320395,24.302,13.703,54.689
201,1437139320419,24.302,13.703,54.689
202,1437139320439,24.302,13.703,54.689
203,1437139320457,24.302,13.703,54.689
204,1437139320476,24.302,13.703,54.689
205,1437139320497,24.302,13.703,54.689
206,1437139320518,24.302,13.703,54.689
207,1437139320539,24.613,13.703,54.689
208,1437139320558,24.613,13.703,54.689
209,1437139320579,24.613,13.386,54.689
210,1437139320596,24.613,13.386,54.689
211,1437139320615,24.613,13.386,54.689
212,1437139320636,24.613,13.386,54.689
213,1437139320659,24.613,13.386,54.689
214,1437139320675,24.613,13.386,54.689
215,1437139320694,24.613,13.386,54.689
216,1437139320719,24.613,13.386,54.689
217,1437139320734,24.613,13.386,54.689
218,1437139320755,24.613,13.386,54.689
219,1437139320779,24.613,13.386,54.689
220,1437139320798,24.613,13.386,54.689
221,1437139320815,24.613,13.386,54.689
222,1437139320836,24.613,13.386,54.689
223,1437139320859,24.613,13.386,54.689
224,1437139320879,24.613,13.386,54.689
225,1437139320902,24.613,13.386,54.689
226,1437139320918,24.613,13.386,54.689
227,1437139320939,24.613,13.386,54.689
228,1437139320958,24.613,13.386,54.689
229,1437139320979,24.613,13.386,54.689
230,1437139320999,24.613,13.386,54.689
231,1437139321019,24.613,13.386,54.689
232,1437139321040,24.613,13.386,54.689
233,1437139321060,24.613,13.386,54.689
234,1437139321077,24.613,13.386,54.689
235,1437139321099,24.613,13.386,54.689
236,1437139321119,24.613,13.386,54.689
237,1437139321139,24.613,13.386,54.689
238,1437139321158,24.613,13.386,54.689
239,1437139321179,24.613,13.386,54.689
240,1437139321199,24.613,13.386,54.689
241,1437139321219,24.613,13.386,54.689
242,1437139321244,24.613,13.386,54.689
243,1437139321259,24.613,13.386,54.689
244,1437139321280,24.613,13.386,54.689
245,1437139321298,24.613,13.386,54.689
246,1437139321320,24.613,13.386,54.689
247,1437139321336,24.613,13.386,54.689
248,1437139321392,24.613,13.386,54.689
249,1437139321397,24.613,13.386,54.689
250,1437139321409,24.613,13.386,54.689
251,1437139321418,24.613,13.386,54.689
252,1437139321438,24.613,13.386,54.689
253,1437139321461,24.613,13.386,54.689
254,1437139321476,24.613,13.386,54.689
255,1437139321502,24.613,13.697,54.689
256,1437139321518,24.287,13.697,54.689
257,1437139321537,24.287,13.697,54.689
258,1437139321562,24.287,13.697,54.689
259,1437139321577,24.287,13.697,54.689
260,1437139321601,24.287,13.697,54.689
261,1437139321618,24.287,13.697,54.689
262,1437139321639,24.287,13.697,54.689
263,1437139321659,24.287,13.697,54.689
264,1437139321678,24.287,13.697,54.689
265,1437139321699,24.287,13.697,54.689
266,1437139321720,24.287,13.697,54.689
267,1437139321740,24.287,13.697,54.689
268,1437139321756,23.957,13.697,54.689
269,1437139321780,23.957,13.697,54.689
270,1437139321798,23.957,13.697,54.689
271,1437139321820,23.957,13.697,54.689
272,1437139321840,23.957,13.697,54.689
273,1437139321860,23.957,13.697,54.689
274,1437139321879,23.957,13.697,54.689
275,1437139321900,23.957,13.697,54.689
276,1437139321920,23.957,13.343,54.689
277,1437139321940,23.957,13.343,54.689
278,1437139321961,24.293,13.343,54.689
279,1437139321980,24.293,13.343,54.689
280,1437139322000,24.293,13.343,54.689
281,1437139322021,24.293,13.343,54.689
282,1437139322040,24.293,12.957,54.689
283,1437139322063,24.293,12.957,54.689
284,1437139322137,24.293,12.957,54.689
285,1437139322138,24.293,12.651,54.689
286,1437139322139,24.293,12.651,54.689
287,1437139322140,24.293,12.651,54.689
288,1437139322160,24.293,12.651,54.689
289,1437139322185,24.293,12.219,54.689
290,1437139322198,24.293,12.219,54.689
291,1437139322218,24.293,12.219,54.689
292,1437139322240,24.293,11.878,54.689
293,1437139322257,24.293,11.878,54.689
294,1437139322279,24.293,11.878,54.689
295,1437139322297,24.293,11.878,54.689
296,1437139322322,24.293,11.878,54.689
297,1437139322338,24.293,11.878,54.689
298,1437139322360,24.293,11.878,54.689
299,1437139322380,24.293,11.532,54.689
300,1437139322400,24.293,11.532,54.689
301,1437139322420,24.293,11.532,54.689
302,1437139322440,24.293,11.532,54.689
303,1437139322460,24.293,11.532,54.689
304,1437139322480,24.293,11.532,54.689
305,1437139322500,24.293,11.532,54.689
306,1437139322521,24.293,11.532,55.003
307,1437139322537,24.293,11.532,55.003
308,1437139322560,24.293,11.532,55.003
309,1437139322579,23.918,11.532,55.003
310,1437139322600,23.918,11.532,55.003
311,1437139322620,23.918,11.532,55.003
312,1437139322641,23.567,11.532,55.364
313,1437139322661,23.567,11.532,55.364
314,1437139322678,23.567,11.532,55.364
315,1437139322699,22.924,11.207,55.364
316,1437139322721,22.924,11.207,55.364
317,1437139322742,22.583,11.207,55.364
318,1437139322760,22.583,11.207,55.364
319,1437139322778,22.583,10.853,55.364
320,1437139322799,22.583,10.853,55.364
321,1437139322852,22.583,10.537,55.364
322,1437139322853,22.198,10.537,55.364
323,1437139322869,22.198,10.537,55.364
324,1437139322879,21.887,10.096,55.364
325,1437139322904,21.887,10.096,55.364
326,1437139322921,21.887,9.567,55.364
327,1437139322938,21.453,9.025,55.364
328,1437139322958,21.453,9.025,55.364
329,1437139322978,21.453,8.395,55.364
330,1437139323000,21.09,8.395,55.364
331,1437139323025,21.09,7.785,55.364
332,1437139323039,21.09,7.429,55.364
333,1437139323061,21.09,6.41,55.364
334,1437139323082,20.727,5.85,55.364
335,1437139323099,20.727,5.85,55.364
336,1437139323121,20.727,5.041,55.364
337,1437139323141,20.727,4.595,55.364
338,1437139323161,20.387,4.595,55.364
339,1437139323181,20.387,3.84,55.364
340,1437139323201,20.387,3.451,55.364
341,1437139323221,19.937,3.067,55.364
342,1437139323241,19.937,3.067,55.364
343,1437139323258,19.937,3.067,55.364
344,1437139323281,19.514,2.549,55.364
345,1437139323303,19.514,2.549,55.364
346,1437139323324,19.514,2.549,55.364
347,1437139323343,19.181,2.549,55.364
348,1437139323362,19.181,2.549,55.056
349,1437139323378,19.181,2.549,55.056
350,1437139323399,19.181,2.549,55.056
351,1437139323418,19.181,2.549,55.056
352,1437139323444,19.181,2.549,55.056
353,1437139323475,18.853,2.549,55.056
354,1437139323478,18.853,2.549,55.056
355,1437139323498,18.853,2.156,55.056
356,1437139323518,18.853,2.156,54.714
357,1437139323544,18.853,2.156,54.714
358,1437139323571,18.853,2.156,54.714
359,1437139323579,18.853,2.156,54.714
360,1437139323598,18.853,2.156,54.714
361,1437139323618,18.853,2.156,54.714
362,1437139323638,18.853,2.156,54.714
363,1437139323659,18.853,2.156,54.714
364,1437139323678,18.853,2.516,54.714
365,1437139323698,18.853,2.516,54.714
366,1437139323719,19.192,2.516,54.714
367,1437139323739,19.192,2.967,54.714
368,1437139323788,19.192,3.585,54.714
369,1437139323789,19.192,4.689,54.714
370,1437139323800,19.558,5.422,54.714
371,1437139323822,19.558,5.923,54.714
372,1437139323842,19.558,5.923,54.714
373,1437139323862,19.558,6.533,54.714
374,1437139323882,19.892,6.533,54.714
375,1437139323902,19.892,6.533,54.714
376,1437139323922,19.892,6.999,54.714
377,1437139323943,19.892,6.999,54.714
378,1437139323960,20.204,6.999,54.714
379,1437139323984,20.204,6.999,55.062
380,1437139323999,20.204,6.999,55.062
381,1437139324022,20.524,6.999,55.062
382,1437139324039,20.524,6.999,55.062
383,1437139324059,20.524,6.999,55.062
384,1437139324079,20.858,6.999,55.062
385,1437139324105,20.858,7.356,55.062
386,1437139324124,20.858,7.356,55.062
387,1437139324145,21.171,7.656,55.062
388,1437139324162,21.171,7.656,55.062
389,1437139324179,21.171,7.656,55.062
390,1437139324203,21.171,7.656,55.062
391,1437139324219,21.501,7.656,55.062
392,1437139324240,21.501,7.656,55.062
393,1437139324265,21.501,7.656,54.713
394,1437139324327,21.501,7.656,54.713
395,1437139324328,21.804,7.656,54.713
396,1437139324329,21.804,7.333,54.713
397,1437139324340,21.804,7.333,54.4
398,1437139324362,21.804,7.333,54.4
399,1437139324381,21.804,7.023,54.4
400,1437139324399,21.804,7.023,54.4
401,1437139324420,21.804,7.023,54.4
402,1437139324439,21.804,6.576,54.058
403,1437139324459,21.804,6.576,54.058
404,1437139324479,21.804,6.24,54.058
405,1437139324500,21.466,6.24,54.058
406,1437139324519,21.466,5.889,54.058
407,1437139324542,21.466,5.889,54.058
408,1437139324562,21.15,5.889,54.058
409,1437139324582,21.15,5.513,54.058
410,1437139324602,21.15,5.513,54.058
411,1437139324619,21.15,5.513,54.058
412,1437139324640,21.15,5.513,54.058
413,1437139324663,20.822,5.513,54.058
414,1437139324683,20.822,5.513,54.058
415,1437139324702,20.822,5.513,54.058
416,1437139324720,20.822,5.513,54.426
417,1437139324741,20.822,5.513,54.426
418,1437139324760,20.822,5.513,54.426
419,1437139324781,20.822,5.513,54.426
420,1437139324803,20.822,5.513,54.426
421,1437139324822,20.822,6.101,54.426
422,1437139324843,20.822,6.729,54.788
423,1437139324862,20.822,7.368,54.788
424,1437139324883,20.822,7.998,54.788
425,1437139324903,20.822,8.657,54.788
426,1437139324924,20.822,9.303,54.788
427,1437139324942,20.822,9.303,54.788
428,1437139324961,21.2,9.976,55.114
429,1437139325003,21.2,10.626,55.114
430,1437139325004,21.2,10.626,55.114
431,1437139325106,21.525,11.349,55.114
432,1437139325107,21.525,11.73,55.114
433,1437139325108,21.525,12.171,55.114
434,1437139325109,21.865,12.171,55.114
435,1437139325110,21.865,12.812,55.438
436,1437139325131,22.174,13.174,55.438
437,1437139325140,22.174,13.174,55.438
438,1437139325166,22.541,13.174,55.438
439,1437139325181,22.541,13.754,55.438
440,1437139325201,23.289,13.754,55.438
441,1437139325222,23.289,13.754,55.438
442,1437139325241,23.738,13.754,55.438
443,1437139325266,23.738,14.089,55.438
444,1437139325284,24.377,14.089,55.065
445,1437139325301,24.377,14.089,55.065
446,1437139325320,24.377,14.089,55.065
447,1437139325342,24.377,14.675,55.065
448,1437139325363,24.377,14.675,54.685
449,1437139325383,24.69,14.675,54.685
450,1437139325403,24.69,14.675,54.685
451,1437139325423,25.009,14.675,54.336
452,1437139325441,25.009,15.165,54.336
453,1437139325463,25.009,15.165,54.336
454,1437139325483,25.402,15.563,53.97
455,1437139325503,25.402,15.563,53.97
456,1437139325521,25.402,15.563,53.97
457,1437139325541,25.402,15.966,53.97
458,1437139325563,25.755,15.966,53.97
459,1437139325582,25.755,15.966,53.97
460,1437139325603,25.755,16.369,53.97
461,1437139325623,25.755,16.369,53.97
462,1437139325649,25.755,16.369,53.97
463,1437139325663,25.755,16.81,53.97
464,1437139325683,25.755,16.81,53.97
465,1437139325704,25.755,17.153,53.97
466,1437139325723,25.755,17.153,53.97
467,1437139325745,25.755,17.503,53.97
468,1437139325762,25.755,17.503,53.97
469,1437139325786,25.755,17.881,53.97
470,1437139325856,26.077,18.281,53.97
471,1437139325857,26.077,18.818,53.97
472,1437139325861,26.077,19.323,53.97
473,1437139325862,26.077,19.81,53.97
474,1437139325881,26.077,20.324,53.97
475,1437139325904,26.077,20.324,53.97
476,1437139325920,26.077,20.869,53.97
477,1437139325940,26.432,21.243,53.97
478,1437139325962,26.432,21.82,53.665
479,1437139325982,26.432,21.82,53.665
480,1437139326003,26.812,22.488,53.665
481,1437139326022,26.812,22.488,53.16
482,1437139326041,26.812,23.33,53.16
483,1437139326063,27.146,23.33,52.743
484,1437139326083,27.146,23.33,52.743
485,1437139326104,27.146,23.33,52.249
486,1437139326124,27.476,23.33,52.249
487,1437139326144,27.476,23.33,51.853
488,1437139326161,27.476,23.33,51.853
489,1437139326183,27.853,23.744,51.454
490,1437139326204,27.853,23.744,51.454
491,1437139326224,27.853,23.744,51.454
492,1437139326243,28.256,23.744,51.126
493,1437139326261,28.256,23.744,51.126
494,1437139326283,28.256,23.744,50.74
495,1437139326302,28.613,24.096,50.74
496,1437139326322,28.613,24.096,50.395
497,1437139326341,28.613,24.096,50.395
498,1437139326364,28.613,24.096,50.395
499,1437139326385,28.613,24.096,50.047
500,1437139326406,28.613,24.096,50.047
501,1437139326424,28.613,24.096,50.047
502,1437139326442,28.959,24.096,50.047
503,1437139326462,28.959,24.096,50.047
504,1437139326482,28.959,24.096,50.047
505,1437139326503,28.959,23.725,50.047
506,1437139326524,28.959,23.725,50.047
507,1437139326570,28.959,23.725,50.047
508,1437139326571,28.959,23.725,50.047
509,1437139326585,28.959,23.725,50.047
510,1437139326601,28.959,23.725,50.047
511,1437139326621,28.959,23.725,50.047
512,1437139326641,28.562,23.725,50.047
513,1437139326661,28.211,23.725,50.047
514,1437139326681,27.612,23.725,50.44
515,1437139326703,27.27,23.725,50.44
516,1437139326722,27.732,23.725,50.44
517,1437139326743,27.732,23.725,50.744
518,1437139326766,27.732,23.725,50.744
519,1437139326782,27.732,23.725,50.744
520,1437139326802,27.732,23.725,51.123
521,1437139326822,27.732,23.725,51.123
