id,attr_time,attr_x,attr_y,attr_z
1,1437139316404,6.434,-40.193,15.301
2,1437139316425,6.434,-40.193,15.301
3,1437139316443,6.434,-40.193,15.301
4,1437139316479,6.434,-40.193,15.301
5,1437139316491,6.434,-40.193,15.301
6,1437139316502,6.434,-40.193,15.301
7,1437139316523,6.434,-40.193,15.301
8,1437139316542,6.434,-40.193,15.301
9,1437139316562,6.434,-40.193,15.301
10,1437139316588,6.434,-40.193,15.301
11,1437139316606,6.434,-40.193,15.608
12,1437139316623,6.434,-40.193,15.608
13,1437139316644,6.434,-40.193,15.608
14,1437139316666,6.434,-40.193,15.608
15,1437139316690,6.434,-40.193,15.608
16,1437139316710,6.434,-40.193,15.608
17,1437139316723,6.434,-40.193,15.608
18,1437139316743,6.434,-40.193,15.608
19,1437139316763,6.434,-40.193,15.608
20,1437139316783,6.434,-40.193,15.608
21,1437139316805,6.434,-40.193,15.608
22,1437139316825,6.111,-40.193,15.608
23,1437139316845,6.111,-40.193,15.608
24,1437139316866,6.111,-40.193,15.608
25,1437139316886,6.111,-40.193,15.608
26,1437139316904,6.111,-40.193,15.608
27,1437139316926,6.111,-40.193,15.608
28,1437139316946,6.111,-40.193,15.608
29,1437139316964,6.111,-40.193,15.608
30,1437139316983,6.111,-40.193,15.608
31,1437139317003,6.111,-40.193,15.608
32,1437139317024,6.111,-40.193,15.608
33,1437139317045,6.111,-40.193,15.608
34,1437139317065,6.111,-40.193,15.608
35,1437139317086,6.111,-40.193,15.608
36,1437139317103,6.428,-40.193,15.608
37,1437139317123,6.428,-40.193,15.608
38,1437139317143,6.428,-40.193,15.608
39,1437139317166,6.428,-40.193,15.608
40,1437139317188,6.428,-40.193,15.608
41,1437139317209,6.428,-40.193,15.264
42,1437139317225,6.428,-40.193,15.264
43,1437139317244,6.428,-40.193,15.264
44,1437139317263,6.428,-40.193,15.264
45,1437139317283,6.428,-40.193,15.264
46,1437139317307,6.428,-40.193,15.264
47,1437139317325,6.428,-40.193,15.264
48,1437139317378,6.428,-40.193,15.264
49,1437139317391,6.428,-40.193,15.264
50,1437139317392,6.428,-40.193,15.264
51,1437139317403,6.428,-40.193,15.264
52,1437139317428,6.428,-40.193,15.264
53,1437139317445,6.428,-40.193,15.264
54,1437139317464,6.428,-40.193,15.264
55,1437139317487,6.428,-40.193,15.264
56,1437139317505,6.428,-40.193,15.264
57,1437139317525,6.428,-40.193,15.264
58,1437139317545,6.428,-40.193,15.264
59,1437139317567,6.428,-40.193,15.264
60,1437139317584,6.115,-40.193,15.264
61,1437139317607,6.115,-40.193,15.264
62,1437139317628,6.115,-40.193,15.264
63,1437139317646,6.115,-40.193,15.264
64,1437139317674,6.115,-40.193,15.264
65,1437139317686,6.115,-40.193,15.264
66,1437139317708,6.115,-40.193,15.264
67,1437139317728,6.115,-40.193,15.264
68,1437139317749,6.115,-40.193,15.264
69,1437139317767,6.115,-40.193,15.264
70,1437139317788,6.115,-40.193,15.264
71,1437139317806,6.115,-40.193,15.264
72,1437139317827,6.115,-40.193,15.264
73,1437139317846,6.115,-40.193,15.264
74,1437139317866,6.115,-40.193,15.264
75,1437139317887,6.115,-40.193,15.264
76,1437139317906,6.115,-40.193,15.264
77,1437139317927,6.115,-40.193,15.264
78,1437139317945,6.43,-40.193,15.264
79,1437139317967,6.43,-40.193,15.264
80,1437139317986,6.43,-40.193,15.264
81,1437139318006,6.43,-40.193,15.264
82,1437139318025,6.43,-40.193,15.264
83,1437139318086,6.43,-40.193,15.264
84,1437139318087,6.43,-40.193,15.264
85,1437139318088,6.43,-40.193,15.264
86,1437139318106,6.43,-40.193,15.264
87,1437139318124,6.43,-40.193,15.264
88,1437139318145,6.43,-40.193,15.264
89,1437139318164,6.43,-40.193,15.264
90,1437139318190,6.43,-40.193,15.264
91,1437139318205,6.112,-40.193,15.597
92,1437139318226,6.112,-40.193,15.597
93,1437139318251,6.112,-40.193,15.597
94,1437139318265,6.112,-40.193,15.597
95,1437139318291,6.112,-40.193,15.597
96,1437139318307,6.112,-40.193,15.597
97,1437139318328,6.112,-40.193,15.597
98,1437139318345,6.112,-40.193,15.597
99,1437139318368,6.112,-40.193,15.597
100,1437139318388,6.112,-40.193,15.597
101,1437139318408,6.112,-40.193,15.597
102,1437139318428,6.112,-40.193,15.597
103,1437139318447,6.112,-40.193,15.597
104,1437139318469,6.112,-40.193,15.597
105,1437139318485,6.112,-40.193,15.597
106,1437139318509,6.112,-40.193,15.597
107,1437139318528,6.112,-40.193,15.597
108,1437139318546,6.112,-40.193,15.597
109,1437139318568,6.112,-40.193,15.597
110,1437139318588,6.112,-40.193,15.597
111,1437139318605,6.112,-40.193,15.597
112,1437139318628,6.112,-40.193,15.597
113,1437139318645,6.112,-40.193,15.597
114,1437139318671,6.112,-40.193,15.597
115,1437139318690,6.112,-40.193,15.597
116,1437139318709,6.112,-40.193,15.597
117,1437139318726,6.112,-40.193,15.597
118,1437139318797,6.112,-40.193,15.597
119,1437139318798,6.112,-40.193,15.597
120,1437139318800,6.112,-40.193,15.597
121,1437139318816,6.112,-40.193,15.597
122,1437139318825,6.112,-40.193,15.597
123,1437139318851,6.112,-40.193,15.597
124,1437139318869,6.112,-40.193,15.597
125,1437139318885,6.112,-40.193,15.597
126,1437139318908,6.112,-40.193,15.597
127,1437139318925,6.112,-40.193,15.597
128,1437139318947,6.112,-40.193,15.597
129,1437139318965,6.112,-40.193,15.597
130,1437139318991,6.112,-40.193,15.597
131,1437139319006,6.112,-40.193,15.597
132,1437139319028,6.112,-40.193,15.597
133,1437139319047,6.112,-40.193,15.597
134,1437139319068,6.112,-40.193,15.597
135,1437139319088,6.112,-40.193,15.597
136,1437139319108,6.112,-40.193,15.597
137,1437139319128,6.112,-40.193,15.597
138,1437139319147,6.112,-40.193,15.597
139,1437139319168,6.112,-40.193,15.597
140,1437139319191,6.112,-40.193,15.597
141,1437139319207,6.112,-40.193,15.597
142,1437139319228,6.112,-40.193,15.597
143,1437139319249,6.112,-40.193,15.597
144,1437139319269,6.112,-40.193,15.597
145,1437139319289,6.112,-40.193,15.597
146,1437139319308,6.112,-40.193,15.597
147,1437139319329,6.112,-40.193,15.597
148,1437139319346,6.112,-40.193,15.597
149,1437139319368,6.112,-40.193,15.597
150,1437139319390,6.416,-40.193,15.597
151,1437139319410,6.416,-40.193,15.597
152,1437139319436,6.416,-40.193,15.597
153,1437139319449,6.416,-40.193,15.597
154,1437139319469,6.416,-40.193,15.597
155,1437139319535,6.416,-40.193,15.597
156,1437139319536,6.416,-40.193,15.597
157,1437139319537,6.416,-40.193,15.597
158,1437139319545,6.416,-40.193,15.597
159,1437139319572,6.416,-40.193,15.597
160,1437139319591,6.416,-40.193,15.597
161,1437139319605,6.416,-40.193,15.597
162,1437139319628,6.416,-40.193,15.597
163,1437139319653,6.416,-40.193,15.597
164,1437139319666,6.416,-40.193,15.597
165,1437139319686,6.416,-40.193,15.597
166,1437139319714,6.416,-40.193,15.597
167,1437139319726,6.416,-40.193,15.597
168,1437139319749,6.416,-40.193,15.597
169,1437139319769,6.416,-40.193,15.597
170,1437139319789,6.416,-40.193,15.597
171,1437139319809,6.416,-40.193,15.597
172,1437139319830,6.416,-40.193,15.597
173,1437139319849,6.416,-40.193,15.597
174,1437139319869,6.416,-40.193,15.597
175,1437139319889,6.416,-40.193,15.597
176,1437139319909,6.416,-40.193,15.597
177,1437139319931,6.416,-40.193,15.597
178,1437139319946,6.416,-40.193,15.597
179,1437139319969,6.416,-40.193,15.597
180,1437139319989,6.416,-40.193,15.597
181,1437139320007,6.416,-40.193,15.597
182,1437139320029,6.416,-40.193,15.597
183,1437139320049,6.416,-40.193,15.597
184,1437139320069,6.416,-40.193,15.597
185,1437139320089,6.416,-40.193,15.597
186,1437139320109,6.416,-40.193,15.597
187,1437139320130,6.416,-40.193,15.597
188,1437139320150,6.416,-40.193,15.597
189,1437139320170,6.416,-40.193,15.597
190,1437139320190,6.416,-40.193,15.597
191,1437139320208,6.416,-40.193,15.597
192,1437139320278,6.416,-40.193,15.597
193,1437139320279,6.416,-40.193,15.597
194,1437139320280,6.416,-40.193,15.597
195,1437139320288,6.416,-40.193,15.597
196,1437139320314,6.416,-40.193,15.597
197,1437139320329,6.416,-40.193,15.597
198,1437139320346,6.416,-40.193,15.597
199,1437139320369,6.416,-40.193,15.597
200,1437139320389,6.416,-40.193,15.597
201,1437139320408,6.416,-40.193,15.597
202,1437139320428,6.416,-40.193,15.597
203,1437139320449,6.416,-40.193,15.597
204,1437139320466,6.416,-40.193,15.597
205,1437139320490,6.416,-40.193,15.293
206,1437139320510,6.416,-40.193,15.293
207,1437139320530,6.416,-40.193,15.293
208,1437139320549,6.416,-40.193,15.293
209,1437139320570,6.416,-40.193,15.293
210,1437139320590,6.416,-40.193,15.293
211,1437139320610,6.416,-40.193,15.293
212,1437139320628,6.416,-40.193,15.293
213,1437139320647,6.416,-40.193,15.293
214,1437139320774,6.416,-40.193,15.293
215,1437139320775,6.416,-40.193,15.293
216,1437139320776,6.416,-40.193,15.293
217,1437139320777,6.416,-40.193,15.293
218,1437139320778,6.416,-40.193,15.293
219,1437139320779,6.416,-40.193,15.293
220,1437139320790,6.416,-40.193,15.293
221,1437139320813,6.416,-40.193,15.293
222,1437139320833,6.416,-40.193,15.293
223,1437139320850,6.416,-40.193,15.293
224,1437139320868,6.727,-40.193,15.293
225,1437139320888,6.727,-40.193,15.293
226,1437139320908,6.727,-40.193,15.293
227,1437139320930,6.727,-40.193,15.293
228,1437139320951,6.727,-40.193,15.293
229,1437139321021,6.727,-40.193,15.293
230,1437139321022,6.727,-40.193,15.293
231,1437139321023,6.727,-40.193,15.293
232,1437139321032,6.727,-40.193,15.293
233,1437139321049,6.727,-40.193,15.293
234,1437139321069,6.727,-40.193,15.293
235,1437139321087,6.727,-40.193,15.293
236,1437139321110,6.727,-40.193,15.293
237,1437139321137,6.727,-40.193,15.293
238,1437139321148,6.727,-40.193,15.293
239,1437139321167,6.727,-40.193,15.293
240,1437139321188,6.727,-40.193,15.293
241,1437139321209,6.727,-40.193,15.293
242,1437139321229,6.727,-40.193,15.293
243,1437139321251,6.727,-40.193,15.293
244,1437139321270,6.727,-40.193,15.293
245,1437139321290,6.727,-40.193,15.293
246,1437139321311,6.727,-40.193,15.293
247,1437139321330,6.727,-40.193,15.293
248,1437139321350,6.727,-40.193,15.293
249,1437139321371,6.727,-40.193,15.293
250,1437139321390,6.727,-40.193,15.293
251,1437139321410,6.727,-40.193,15.293
252,1437139321431,6.727,-40.193,15.293
253,1437139321451,6.727,-40.193,15.293
254,1437139321471,6.727,-40.193,15.293
255,1437139321491,6.727,-40.193,15.293
256,1437139321511,6.727,-40.193,15.293
257,1437139321531,6.727,-40.193,15.293
258,1437139321551,6.727,-40.193,15.293
259,1437139321571,6.727,-40.193,15.293
260,1437139321591,6.727,-40.193,15.293
261,1437139321611,6.727,-40.193,15.293
262,1437139321629,6.727,-40.193,15.293
263,1437139321650,6.727,-40.193,15.293
264,1437139321754,6.727,-40.193,15.293
265,1437139321755,6.727,-40.193,15.293
266,1437139321756,6.727,-40.193,15.293
267,1437139321757,6.727,-40.193,15.293
268,1437139321758,6.727,-40.193,15.293
269,1437139321774,6.727,-40.193,15.605
270,1437139321788,6.727,-40.193,15.605
271,1437139321810,6.401,-40.193,15.605
272,1437139321830,6.401,-40.193,15.605
273,1437139321850,6.401,-40.193,15.605
274,1437139321870,6.401,-40.193,15.605
275,1437139321888,6.401,-40.193,15.605
276,1437139321909,6.401,-40.193,15.605
277,1437139321931,6.401,-40.193,15.605
278,1437139321950,6.401,-40.193,15.605
279,1437139321971,6.401,-40.193,15.605
280,1437139322001,6.08,-40.193,15.907
281,1437139322008,6.08,-40.193,15.907
282,1437139322030,6.08,-40.193,15.907
283,1437139322048,6.08,-40.193,15.907
284,1437139322068,6.08,-40.193,15.907
285,1437139322089,6.08,-40.193,15.907
286,1437139322108,6.08,-40.193,15.907
287,1437139322132,6.08,-40.193,16.215
288,1437139322148,6.08,-40.193,16.215
289,1437139322167,5.778,-40.193,16.215
290,1437139322187,5.778,-40.193,16.215
291,1437139322207,5.778,-40.193,16.215
292,1437139322228,5.778,-40.193,16.215
293,1437139322247,5.778,-40.193,16.522
294,1437139322267,5.778,-40.193,16.522
295,1437139322287,5.45,-39.883,16.522
296,1437139322308,5.45,-39.883,16.522
297,1437139322329,5.45,-39.883,16.522
298,1437139322347,5.45,-39.883,16.522
299,1437139322367,5.45,-39.883,16.522
300,1437139322387,5.45,-39.883,16.522
301,1437139322408,5.122,-39.883,16.522
302,1437139322427,5.122,-39.883,16.854
303,1437139322447,5.122,-39.883,16.854
304,1437139322467,5.122,-39.883,16.854
305,1437139322487,5.122,-39.883,16.854
306,1437139322507,5.122,-39.546,16.854
307,1437139322527,4.774,-39.546,16.854
308,1437139322547,4.774,-39.546,16.854
309,1437139322567,4.774,-39.546,16.854
310,1437139322587,4.774,-39.546,16.854
311,1437139322607,4.446,-39.546,16.854
312,1437139322627,4.446,-39.546,16.854
313,1437139322648,4.446,-39.546,16.854
314,1437139322667,4.045,-39.546,16.854
315,1437139322690,4.045,-39.546,17.196
316,1437139322708,3.329,-39.546,17.196
317,1437139322728,2.77,-39.546,17.196
318,1437139322751,2.288,-39.546,17.196
319,1437139322769,1.922,-39.546,17.196
320,1437139322791,1.53,-39.546,17.196
321,1437139322811,1.53,-39.546,17.196
322,1437139322831,1.103,-39.546,17.196
323,1437139322851,0.802,-39.546,17.196
324,1437139322871,0.326,-39.546,17.517
325,1437139322891,0.326,-39.546,17.517
326,1437139322911,-0.703,-39.546,17.517
327,1437139322931,-1.022,-39.546,17.517
328,1437139322949,-1.022,-39.546,17.835
329,1437139322970,-1.551,-39.546,17.835
330,1437139322992,-2.014,-39.546,17.835
331,1437139323008,-2.377,-39.546,17.835
332,1437139323029,-2.377,-39.546,17.835
333,1437139323050,-3.039,-39.546,17.835
334,1437139323070,-3.039,-39.546,17.835
335,1437139323090,-3.758,-39.546,17.835
336,1437139323109,-4.824,-39.546,17.835
337,1437139323131,-5.184,-39.546,17.835
338,1437139323152,-5.184,-39.546,17.835
339,1437139323171,-5.184,-39.546,17.835
340,1437139323192,-5.184,-39.546,17.835
341,1437139323212,-5.184,-39.546,17.835
342,1437139323232,-5.561,-39.546,17.835
343,1437139323253,-6.094,-39.546,17.835
344,1437139323272,-6.469,-39.546,17.835
345,1437139323292,-6.846,-39.546,17.835
346,1437139323313,-6.846,-39.546,17.835
347,1437139323329,-6.846,-39.236,17.835
348,1437139323351,-6.846,-39.236,17.835
349,1437139323372,-6.846,-39.236,17.526
350,1437139323392,-6.846,-39.236,17.526
351,1437139323412,-7.257,-39.236,17.526
352,1437139323431,-7.257,-39.236,17.526
353,1437139323453,-7.257,-39.236,17.526
354,1437139323473,-7.257,-39.236,17.526
355,1437139323492,-7.571,-39.236,17.526
356,1437139323513,-7.571,-38.916,17.526
357,1437139323530,-7.873,-38.916,17.526
358,1437139323552,-7.873,-38.916,17.526
359,1437139323571,-8.201,-38.916,17.526
360,1437139323590,-8.201,-38.916,17.526
361,1437139323682,-8.201,-38.916,17.526
362,1437139323683,-8.645,-38.615,17.526
363,1437139323684,-8.645,-38.615,17.843
364,1437139323685,-8.645,-38.615,17.843
365,1437139323694,-8.645,-38.615,17.843
366,1437139323710,-8.645,-38.615,17.843
367,1437139323730,-8.645,-38.615,17.843
368,1437139323750,-8.645,-38.615,18.147
369,1437139323770,-8.645,-38.615,18.147
370,1437139323790,-8.645,-38.615,18.147
371,1437139323810,-8.192,-38.615,18.147
372,1437139323832,-6.672,-38.615,18.147
373,1437139323852,-5.618,-38.615,18.147
374,1437139323872,-4.548,-38.615,18.147
375,1437139323892,-3.689,-38.615,18.147
376,1437139323912,-3.009,-38.615,18.147
377,1437139323933,-2.563,-38.615,18.147
378,1437139323953,-2.563,-38.615,18.147
379,1437139323972,-2.563,-38.615,18.147
380,1437139323992,-2.563,-38.615,18.147
381,1437139324013,-3.424,-38.615,18.147
382,1437139324032,-3.424,-38.919,17.77
383,1437139324052,-3.424,-38.919,17.77
384,1437139324070,-3.424,-38.919,17.77
385,1437139324092,-3.424,-38.919,17.77
386,1437139324112,-3.424,-39.25,17.411
387,1437139324132,-3.784,-39.25,17.411
388,1437139324152,-3.784,-39.25,17.411
389,1437139324173,-3.3,-39.25,17.066
390,1437139324192,-3.3,-39.25,17.066
391,1437139324212,-3.3,-39.587,17.066
392,1437139324234,-3.3,-39.587,16.676
393,1437139324253,-3.8,-39.587,16.676
394,1437139324273,-4.347,-39.587,16.676
395,1437139324291,-4.666,-39.587,16.676
396,1437139324312,-5.021,-39.587,16.351
397,1437139324332,-5.021,-39.587,16.351
398,1437139324411,-5.021,-39.587,16.351
399,1437139324412,-5.673,-39.587,16.351
400,1437139324413,-5.673,-39.587,16.351
401,1437139324414,-5.673,-39.587,16.351
402,1437139324431,-5.673,-39.587,16.351
403,1437139324451,-5.673,-39.587,16.351
404,1437139324470,-5.673,-39.587,16.351
405,1437139324490,-6.03,-39.587,16.04
406,1437139324513,-6.03,-39.587,16.04
407,1437139324532,-6.484,-39.224,16.04
408,1437139324552,-6.484,-39.224,16.04
409,1437139324571,-6.954,-39.224,16.04
410,1437139324593,-6.954,-39.224,16.04
411,1437139324612,-7.376,-38.919,16.04
412,1437139324630,-7.376,-38.919,16.04
413,1437139324652,-7.676,-38.919,16.04
414,1437139324673,-7.676,-38.919,16.04
415,1437139324692,-7.994,-38.919,16.04
416,1437139324711,-7.994,-38.566,16.36
417,1437139324733,-7.994,-38.566,16.36
418,1437139324752,-8.37,-38.566,16.36
419,1437139324773,-8.37,-38.566,16.36
420,1437139324794,-8.37,-38.566,16.36
421,1437139324812,-8.37,-38.566,16.674
422,1437139324833,-8.37,-38.566,16.674
423,1437139324853,-8.37,-38.566,16.674
424,1437139324873,-8.694,-38.566,16.674
425,1437139324891,-8.694,-38.566,16.674
426,1437139324915,-8.694,-38.566,16.674
427,1437139324935,-8.694,-38.566,17.051
428,1437139324956,-8.306,-38.566,17.051
429,1437139324973,-7.24,-38.566,17.051
430,1437139324993,-6.146,-38.566,17.051
431,1437139325013,-5.11,-38.566,17.051
432,1437139325033,-4.2,-38.566,17.051
433,1437139325052,-3.469,-38.566,17.051
434,1437139325131,-2.816,-38.566,17.051
435,1437139325132,-2.816,-38.566,17.051
436,1437139325133,-2.273,-38.566,17.051
437,1437139325134,-2.273,-38.566,17.051
438,1437139325152,-2.273,-38.874,17.051
439,1437139325172,-1.722,-38.874,17.051
440,1437139325191,-1.722,-38.874,17.051
441,1437139325237,-1.722,-38.874,17.051
442,1437139325238,-1.722,-38.874,17.051
443,1437139325251,-1.722,-39.195,17.051
444,1437139325276,-1.722,-39.195,17.051
445,1437139325295,-1.722,-39.195,16.68
446,1437139325312,-1.722,-39.195,16.68
447,1437139325334,-1.722,-39.195,16.68
448,1437139325354,-1.722,-39.533,16.258
449,1437139325375,-1.722,-39.533,16.258
450,1437139325394,-1.722,-39.533,16.258
451,1437139325414,-1.722,-39.533,15.852
452,1437139325432,-1.38,-39.533,15.852
453,1437139325453,-1.38,-39.533,15.852
454,1437139325473,-1.38,-39.533,15.512
455,1437139325493,-1.38,-39.86,15.512
456,1437139325515,-1.38,-39.86,15.512
457,1437139325533,-1.38,-39.86,15.512
458,1437139325553,-1.38,-39.86,15.116
459,1437139325572,-1.38,-39.86,15.116
460,1437139325592,-1.38,-39.86,15.116
461,1437139325612,-1.38,-39.86,15.116
462,1437139325638,-1.38,-39.86,15.116
463,1437139325653,-1.38,-39.86,15.116
464,1437139325674,-1.38,-39.86,15.116
465,1437139325693,-1.733,-39.86,15.116
466,1437139325713,-1.733,-39.86,15.116
467,1437139325732,-1.733,-39.86,15.116
468,1437139325752,-1.733,-39.86,15.116
469,1437139325772,-1.733,-39.86,15.116
470,1437139325926,-1.733,-39.86,15.426
471,1437139325927,-1.733,-39.86,15.426
472,1437139325928,-1.733,-39.86,15.426
473,1437139325929,-1.733,-39.86,15.426
474,1437139325930,-1.733,-39.86,15.736
475,1437139325939,-1.733,-39.86,15.736
476,1437139325940,-0.881,-39.86,15.736
477,1437139325941,-0.381,-39.86,15.736
478,1437139325964,0.624,-39.86,15.736
479,1437139325973,1.618,-39.86,16.084
480,1437139325994,2.687,-39.86,16.084
481,1437139326012,3.732,-39.86,16.084
482,1437139326032,4.672,-39.86,16.084
483,1437139326061,5.555,-39.86,16.084
484,1437139326072,6.527,-39.86,16.084
485,1437139326092,7.194,-39.86,15.773
486,1437139326118,7.769,-39.86,15.773
487,1437139326132,8.332,-39.86,15.116
488,1437139326152,8.332,-39.86,14.572
489,1437139326171,8.638,-39.86,14.248
490,1437139326207,8.638,-39.86,13.734
491,1437139326211,8.638,-39.86,13.264
492,1437139326231,8.183,-39.86,12.899
493,1437139326253,8.183,-39.86,12.899
494,1437139326275,8.79,-39.86,12.06
495,1437139326295,8.79,-39.86,12.06
496,1437139326315,8.79,-39.86,11.26
497,1437139326333,8.79,-39.86,10.867
498,1437139326355,9.136,-40.162,11.167
499,1437139326375,9.136,-40.162,10.824
500,1437139326395,8.76,-40.162,10.824
501,1437139326413,8.76,-40.162,10.824
502,1437139326433,8.76,-40.162,10.824
503,1437139326453,9.06,-40.162,10.824
504,1437139326473,9.06,-40.48,10.824
505,1437139326495,9.06,-40.48,10.824
506,1437139326516,9.06,-40.48,10.824
507,1437139326535,9.06,-40.48,10.824
508,1437139326556,8.75,-40.48,10.824
509,1437139326572,8.75,-40.806,10.824
510,1437139326601,7.873,-40.806,10.824
511,1437139326620,7.873,-40.806,10.824
512,1437139326633,7.873,-40.806,10.824
513,1437139326652,7.516,-40.806,10.824
514,1437139326674,7.089,-40.806,10.824
