id,attr_time,attr_light
1,1435991672026,5.0
2,1435991672051,5.0
3,1435991672068,5.0
4,1435991672086,5.0
5,1435991672109,5.0
6,1435991672129,5.0
7,1435991672151,5.0
8,1435991672174,5.0
9,1435991672189,5.0
10,1435991672210,5.0
11,1435991672238,5.0
12,1435991672254,5.0
13,1435991672270,5.0
14,1435991672289,5.0
15,1435991672306,5.0
16,1435991672329,5.0
17,1435991672352,5.0
18,1435991672370,5.0
19,1435991672390,5.0
20,1435991672412,5.0
21,1435991672430,5.0
22,1435991672450,5.0
23,1435991672471,5.0
24,1435991672489,5.0
25,1435991672509,5.0
26,1435991672533,5.0
27,1435991672548,5.0
28,1435991672569,5.0
29,1435991672600,5.0
30,1435991672648,5.0
31,1435991672649,5.0
32,1435991672650,5.0
33,1435991672667,5.0
34,1435991672686,5.0
35,1435991672709,5.0
36,1435991672726,5.0
37,1435991672747,5.0
38,1435991672769,5.0
39,1435991672787,5.0
40,1435991672807,5.0
41,1435991672832,5.0
42,1435991672850,5.0
43,1435991672871,5.0
44,1435991672894,5.0
45,1435991672909,5.0
46,1435991672931,5.0
47,1435991672954,5.0
48,1435991672968,5.0
49,1435991672991,5.0
50,1435991673010,5.0
51,1435991673029,5.0
52,1435991673050,5.0
53,1435991673076,5.0
54,1435991673089,5.0
55,1435991673111,5.0
56,1435991673134,5.0
57,1435991673149,5.0
58,1435991673170,5.0
59,1435991673190,5.0
60,1435991673288,5.0
61,1435991673289,5.0
62,1435991673290,5.0
63,1435991673291,5.0
64,1435991673292,5.0
65,1435991673309,5.0
66,1435991673327,5.0
67,1435991673347,5.0
68,1435991673374,5.0
69,1435991673409,5.0
70,1435991673410,5.0
71,1435991673434,5.0
72,1435991673451,5.0
73,1435991673469,5.0
74,1435991673493,5.0
75,1435991673509,5.0
76,1435991673529,5.0
77,1435991673555,5.0
78,1435991673571,5.0
79,1435991673591,5.0
80,1435991673613,5.0
81,1435991673631,5.0
82,1435991673649,5.0
83,1435991673674,5.0
84,1435991673692,5.0
85,1435991673718,5.0
86,1435991673734,5.0
87,1435991673749,5.0
88,1435991673769,5.0
89,1435991673792,5.0
90,1435991673809,5.0
91,1435991673839,5.0
92,1435991673924,5.0
93,1435991673925,5.0
94,1435991673926,5.0
95,1435991673927,5.0
96,1435991673937,5.0
97,1435991673948,5.0
98,1435991673970,5.0
99,1435991673989,5.0
100,1435991674010,5.0
101,1435991674030,5.0
102,1435991674047,5.0
103,1435991674067,5.0
104,1435991674090,5.0
105,1435991674107,5.0
106,1435991674127,5.0
107,1435991674150,5.0
108,1435991674168,5.0
109,1435991674188,5.0
110,1435991674214,5.0
111,1435991674228,5.0
112,1435991674248,5.0
113,1435991674270,5.0
114,1435991674288,5.0
115,1435991674308,5.0
116,1435991674332,5.0
117,1435991674351,5.0
118,1435991674372,5.0
119,1435991674395,5.0
120,1435991674412,5.0
121,1435991674430,5.0
122,1435991674454,5.0
123,1435991674469,5.0
124,1435991674498,5.0
125,1435991674544,5.0
126,1435991674545,5.0
127,1435991674555,5.0
128,1435991674575,5.0
129,1435991674588,5.0
130,1435991674611,5.0
131,1435991674633,5.0
132,1435991674651,5.0
133,1435991674670,5.0
134,1435991674695,5.0
135,1435991674711,5.0
136,1435991674730,5.0
137,1435991674752,5.0
138,1435991674770,5.0
139,1435991674790,5.0
140,1435991674812,5.0
141,1435991674831,5.0
142,1435991674853,5.0
143,1435991674875,5.0
144,1435991674892,5.0
145,1435991674912,5.0
146,1435991674935,5.0
147,1435991674950,5.0
148,1435991674971,5.0
149,1435991674993,5.0
150,1435991675015,5.0
151,1435991675036,5.0
152,1435991675057,5.0
153,1435991675073,5.0
154,1435991675091,5.0
155,1435991675115,5.0
156,1435991675130,5.0
157,1435991675152,5.0
158,1435991675173,5.0
159,1435991675226,5.0
160,1435991675227,5.0
161,1435991675239,5.0
162,1435991675251,5.0
163,1435991675269,5.0
164,1435991675291,5.0
165,1435991675309,5.0
166,1435991675332,5.0
167,1435991675355,5.0
168,1435991675375,5.0
169,1435991675393,5.0
170,1435991675415,5.0
171,1435991675431,5.0
172,1435991675453,5.0
173,1435991675475,5.0
174,1435991675493,5.0
175,1435991675514,5.0
176,1435991675535,5.0
177,1435991675551,5.0
178,1435991675573,5.0
179,1435991675594,5.0
180,1435991675611,5.0
181,1435991675630,5.0
182,1435991675658,5.0
183,1435991675677,5.0
184,1435991675691,5.0
185,1435991675712,5.0
186,1435991675729,5.0
187,1435991675749,5.0
188,1435991675772,5.0
189,1435991675790,5.0
190,1435991675838,5.0
191,1435991675839,5.0
192,1435991675852,5.0
193,1435991675879,5.0
194,1435991675894,5.0
195,1435991675914,5.0
196,1435991675931,5.0
197,1435991675955,5.0
198,1435991675971,5.0
199,1435991675995,5.0
200,1435991676018,5.0
201,1435991676036,5.0
202,1435991676051,5.0
203,1435991676076,5.0
204,1435991676095,5.0
205,1435991676114,5.0
206,1435991676136,5.0
207,1435991676154,5.0
208,1435991676172,5.0
209,1435991676195,5.0
210,1435991676215,5.0
211,1435991676242,5.0
212,1435991676257,5.0
213,1435991676270,5.0
214,1435991676290,5.0
215,1435991676313,5.0
216,1435991676330,5.0
217,1435991676357,5.0
218,1435991676377,5.0
219,1435991676391,5.0
220,1435991676411,5.0
221,1435991676436,5.0
222,1435991676462,5.0
223,1435991676472,5.0
224,1435991676518,5.0
225,1435991676519,5.0
226,1435991676530,5.0
227,1435991676552,5.0
228,1435991676571,5.0
229,1435991676590,5.0
230,1435991676614,5.0
231,1435991676631,5.0
232,1435991676652,5.0
233,1435991676677,5.0
234,1435991676695,5.0
235,1435991676716,5.0
236,1435991676738,5.0
237,1435991676752,5.0
238,1435991676771,5.0
239,1435991676794,5.0
240,1435991676827,5.0
241,1435991676833,5.0
242,1435991676856,5.0
243,1435991676870,5.0
244,1435991676890,5.0
245,1435991676912,5.0
246,1435991676932,5.0
247,1435991676954,5.0
248,1435991676979,5.0
249,1435991676995,5.0
250,1435991677015,5.0
251,1435991677037,5.0
252,1435991677054,5.0
253,1435991677075,5.0
254,1435991677094,5.0
255,1435991677114,5.0
256,1435991677135,5.0
257,1435991677181,5.0
258,1435991677182,5.0
259,1435991677191,5.0
260,1435991677213,5.0
261,1435991677232,5.0
262,1435991677251,5.0
263,1435991677274,5.0
264,1435991677291,5.0
265,1435991677311,5.0
266,1435991677336,5.0
267,1435991677355,5.0
268,1435991677375,5.0
269,1435991677396,5.0
270,1435991677415,5.0
271,1435991677435,5.0
272,1435991677455,5.0
273,1435991677478,5.0
274,1435991677525,5.0
275,1435991677526,5.0
276,1435991677531,5.0
277,1435991677555,5.0
278,1435991677575,5.0
279,1435991677593,5.0
280,1435991677615,5.0
281,1435991677637,5.0
282,1435991677655,5.0
283,1435991677675,5.0
284,1435991677695,5.0
285,1435991677722,5.0
286,1435991677738,5.0
287,1435991677755,5.0
288,1435991677795,5.0
289,1435991677796,5.0
290,1435991677815,5.0
291,1435991677832,5.0
292,1435991677855,5.0
293,1435991677875,5.0
294,1435991677897,5.0
295,1435991677914,5.0
296,1435991677957,5.0
297,1435991677958,5.0
298,1435991677975,5.0
299,1435991677998,5.0
300,1435991678016,5.0
301,1435991678035,5.0
302,1435991678058,5.0
303,1435991678076,5.0
304,1435991678096,5.0
305,1435991678118,5.0
306,1435991678134,5.0
307,1435991678156,5.0
308,1435991678178,5.0
309,1435991678198,5.0
310,1435991678227,5.0
311,1435991678240,5.0
312,1435991678259,5.0
313,1435991678274,5.0
314,1435991678295,5.0
315,1435991678312,5.0
316,1435991678337,5.0
317,1435991678357,5.0
318,1435991678376,5.0
319,1435991678402,5.0
320,1435991678463,5.0
321,1435991678464,5.0
322,1435991678465,5.0
323,1435991678478,5.0
324,1435991678492,5.0
325,1435991678512,5.0
326,1435991678535,5.0
327,1435991678554,5.0
328,1435991678574,5.0
329,1435991678598,5.0
330,1435991678616,5.0
331,1435991678636,5.0
332,1435991678659,5.0
333,1435991678676,5.0
334,1435991678696,5.0
335,1435991678720,5.0
336,1435991678734,5.0
337,1435991678754,5.0
338,1435991678776,5.0
339,1435991678794,5.0
340,1435991678815,5.0
341,1435991678838,5.0
342,1435991678854,5.0
343,1435991678875,5.0
344,1435991678904,5.0
345,1435991678918,5.0
346,1435991678939,5.0
347,1435991678959,5.0
348,1435991678975,5.0
349,1435991678994,5.0
350,1435991679019,5.0
351,1435991679043,5.0
352,1435991679094,5.0
353,1435991679095,5.0
354,1435991679096,5.0
355,1435991679116,5.0
356,1435991679135,5.0
357,1435991679153,5.0
358,1435991679176,5.0
359,1435991679198,5.0
360,1435991679217,5.0
361,1435991679234,5.0
362,1435991679256,5.0
363,1435991679273,5.0
364,1435991679294,5.0
365,1435991679316,5.0
366,1435991679337,5.0
367,1435991679357,5.0
368,1435991679379,5.0
369,1435991679397,5.0
370,1435991679417,5.0
371,1435991679440,5.0
372,1435991679455,5.0
373,1435991679477,5.0
374,1435991679497,5.0
375,1435991679517,5.0
376,1435991679536,5.0
377,1435991679564,5.0
378,1435991679577,5.0
379,1435991679597,5.0
380,1435991679619,5.0
381,1435991679637,5.0
382,1435991679657,5.0
383,1435991679677,5.0
384,1435991679697,5.0
385,1435991679772,5.0
386,1435991679773,5.0
387,1435991679774,5.0
388,1435991679778,5.0
389,1435991679797,5.0
390,1435991679814,5.0
391,1435991679833,5.0
392,1435991679856,5.0
393,1435991679874,5.0
394,1435991679894,5.0
395,1435991679919,5.0
396,1435991679937,5.0
397,1435991679957,5.0
398,1435991679979,5.0
399,1435991679998,5.0
400,1435991680017,5.0
401,1435991680039,5.0
402,1435991680058,5.0
403,1435991680078,5.0
404,1435991680098,5.0
405,1435991680132,5.0
406,1435991680136,5.0
407,1435991680158,5.0
408,1435991680177,5.0
409,1435991680202,5.0
410,1435991680218,5.0
411,1435991680241,5.0
412,1435991680254,5.0
413,1435991680278,5.0
414,1435991680297,5.0
415,1435991680314,5.0
416,1435991680340,5.0
417,1435991680360,5.0
418,1435991680381,5.0
419,1435991680425,5.0
420,1435991680426,5.0
421,1435991680441,5.0
422,1435991680460,5.0
423,1435991680475,5.0
424,1435991680495,5.0
425,1435991680517,5.0
426,1435991680536,5.0
427,1435991680555,5.0
428,1435991680581,5.0
429,1435991680598,5.0
430,1435991680619,5.0
431,1435991680639,5.0
432,1435991680658,5.0
433,1435991680678,5.0
434,1435991680700,5.0
435,1435991680718,5.0
436,1435991680745,5.0
437,1435991680761,5.0
438,1435991680778,5.0
439,1435991680795,5.0
440,1435991680832,5.0
441,1435991680835,5.0
442,1435991680855,5.0
443,1435991680877,5.0
444,1435991680905,5.0
445,1435991680915,5.0
446,1435991680938,5.0
447,1435991680958,5.0
448,1435991680981,5.0
449,1435991681002,5.0
450,1435991681017,5.0
451,1435991681039,5.0
452,1435991681075,5.0
453,1435991681076,5.0
454,1435991681099,5.0
455,1435991681119,5.0
456,1435991681135,5.0
457,1435991681157,5.0
458,1435991681179,5.0
459,1435991681198,5.0
460,1435991681217,5.0
461,1435991681250,5.0
462,1435991681266,5.0
463,1435991681275,5.0
464,1435991681297,5.0
465,1435991681315,5.0
466,1435991681335,5.0
467,1435991681358,5.0
468,1435991681380,5.0
469,1435991681400,5.0
470,1435991681421,5.0
471,1435991681440,5.0
472,1435991681456,5.0
473,1435991681481,5.0
474,1435991681498,5.0
475,1435991681519,5.0
476,1435991681539,5.0
477,1435991681559,5.0
478,1435991681578,5.0
479,1435991681599,5.0
480,1435991681619,5.0
481,1435991681639,5.0
482,1435991681659,4.0
483,1435991681680,4.0
484,1435991681698,4.0
485,1435991681724,4.0
486,1435991681788,4.0
487,1435991681789,4.0
488,1435991681790,4.0
489,1435991681800,4.0
490,1435991681815,4.0
491,1435991681838,4.0
492,1435991681855,4.0
493,1435991681876,3.0
494,1435991681900,3.0
495,1435991681920,2.0
496,1435991681939,2.0
497,1435991681960,2.0
498,1435991681979,2.0
499,1435991681999,2.0
500,1435991682020,2.0
501,1435991682040,2.0
502,1435991682060,2.0
503,1435991682079,2.0
504,1435991682098,2.0
505,1435991682119,2.0
506,1435991682138,1.0
507,1435991682157,1.0
508,1435991682177,1.0
509,1435991682207,1.0
510,1435991682218,1.0
511,1435991682243,1.0
512,1435991682265,1.0
513,1435991682306,1.0
514,1435991682307,1.0
515,1435991682321,2.0
516,1435991682335,2.0
517,1435991682360,2.0
518,1435991682378,2.0
519,1435991682396,2.0
520,1435991682418,3.0
521,1435991682443,3.0
522,1435991682457,4.0
523,1435991682478,4.0
524,1435991682500,5.0
525,1435991682518,5.0
526,1435991682539,7.0
527,1435991682560,7.0
528,1435991682579,7.0
529,1435991682600,7.0
530,1435991682621,6.0
531,1435991682639,5.0
532,1435991682660,5.0
533,1435991682681,6.0
534,1435991682700,6.0
535,1435991682718,7.0
536,1435991682741,7.0
537,1435991682760,9.0
538,1435991682780,9.0
539,1435991682804,11.0
540,1435991682818,11.0
541,1435991682837,14.0
542,1435991682860,17.0
543,1435991682877,17.0
544,1435991682900,19.0
545,1435991682922,19.0
546,1435991682940,21.0
547,1435991682959,21.0
548,1435991682984,23.0
549,1435991683040,23.0
550,1435991683041,24.0
551,1435991683042,24.0
552,1435991683059,24.0
553,1435991683078,25.0
554,1435991683103,25.0
555,1435991683118,25.0
556,1435991683139,25.0
557,1435991683160,25.0
558,1435991683180,25.0
559,1435991683200,25.0
560,1435991683226,25.0
561,1435991683240,25.0
562,1435991683258,25.0
563,1435991683285,25.0
564,1435991683306,25.0
565,1435991683318,25.0
566,1435991683340,25.0
567,1435991683358,25.0
568,1435991683379,25.0
569,1435991683401,25.0
570,1435991683419,25.0
571,1435991683439,25.0
572,1435991683466,26.0
573,1435991683479,26.0
574,1435991683499,26.0
575,1435991683521,26.0
576,1435991683539,26.0
577,1435991683561,26.0
578,1435991683586,26.0
579,1435991683599,26.0
580,1435991683619,26.0
581,1435991683644,25.0
582,1435991683711,25.0
583,1435991683712,24.0
584,1435991683713,24.0
585,1435991683720,24.0
586,1435991683741,24.0
587,1435991683759,24.0
588,1435991683792,24.0
589,1435991683801,24.0
590,1435991683820,25.0
591,1435991683837,25.0
592,1435991683857,26.0
593,1435991683880,26.0
594,1435991683897,26.0
595,1435991683918,26.0
596,1435991683941,26.0
597,1435991683961,26.0
598,1435991683981,26.0
599,1435991684004,26.0
600,1435991684020,26.0
601,1435991684041,26.0
602,1435991684065,26.0
603,1435991684081,26.0
604,1435991684100,26.0
605,1435991684123,25.0
606,1435991684140,25.0
607,1435991684160,25.0
608,1435991684183,25.0
609,1435991684203,25.0
610,1435991684226,25.0
611,1435991684247,25.0
612,1435991684264,24.0
613,1435991684280,24.0
614,1435991684305,24.0
615,1435991684325,24.0
616,1435991684343,22.0
617,1435991684375,22.0
618,1435991684385,20.0
619,1435991684401,20.0
620,1435991684421,19.0
621,1435991684438,17.0
622,1435991684464,17.0
623,1435991684481,15.0
624,1435991684501,15.0
625,1435991684520,12.0
626,1435991684544,12.0
627,1435991684560,9.0
628,1435991684580,9.0
629,1435991684604,6.0
630,1435991684620,6.0
631,1435991684642,4.0
632,1435991684663,3.0
633,1435991684681,3.0
634,1435991684702,2.0
635,1435991684728,2.0
636,1435991684741,2.0
637,1435991684762,2.0
638,1435991684785,3.0
639,1435991684802,3.0
640,1435991684820,6.0
641,1435991684842,6.0
642,1435991684860,12.0
643,1435991684881,21.0
644,1435991684902,21.0
645,1435991684920,28.0
646,1435991684942,28.0
647,1435991684965,33.0
648,1435991684989,33.0
649,1435991685043,37.0
650,1435991685044,37.0
651,1435991685045,38.0
652,1435991685065,38.0
653,1435991685081,40.0
654,1435991685098,41.0
655,1435991685119,41.0
656,1435991685145,42.0
657,1435991685160,42.0
658,1435991685181,42.0
659,1435991685208,42.0
660,1435991685222,43.0
661,1435991685242,43.0
662,1435991685265,43.0
663,1435991685282,43.0
664,1435991685305,44.0
665,1435991685322,44.0
666,1435991685340,44.0
667,1435991685360,44.0
668,1435991685381,44.0
669,1435991685400,44.0
670,1435991685421,44.0
671,1435991685444,44.0
672,1435991685465,44.0
673,1435991685485,44.0
674,1435991685504,44.0
675,1435991685524,44.0
676,1435991685544,44.0
677,1435991685565,44.0
678,1435991685581,44.0
679,1435991685602,44.0
680,1435991685625,44.0
681,1435991685650,44.0
682,1435991685716,44.0
683,1435991685717,44.0
684,1435991685718,44.0
685,1435991685720,44.0
686,1435991685741,44.0
687,1435991685759,44.0
688,1435991685780,44.0
689,1435991685803,44.0
690,1435991685820,44.0
691,1435991685840,44.0
692,1435991685862,44.0
693,1435991685880,44.0
694,1435991685900,44.0
695,1435991685994,44.0
696,1435991685995,44.0
697,1435991685996,44.0
698,1435991685997,44.0
699,1435991686001,44.0
700,1435991686023,44.0
701,1435991686043,44.0
702,1435991686059,44.0
703,1435991686079,44.0
704,1435991686105,44.0
705,1435991686124,44.0
706,1435991686142,44.0
707,1435991686163,44.0
708,1435991686180,44.0
709,1435991686202,44.0
710,1435991686225,44.0
711,1435991686242,44.0
712,1435991686265,44.0
713,1435991686286,44.0
714,1435991686351,44.0
715,1435991686352,44.0
716,1435991686353,44.0
717,1435991686366,44.0
718,1435991686381,44.0
719,1435991686402,44.0
720,1435991686429,44.0
721,1435991686439,44.0
722,1435991686462,44.0
723,1435991686480,44.0
724,1435991686500,44.0
725,1435991686522,44.0
726,1435991686540,44.0
727,1435991686560,44.0
728,1435991686582,44.0
729,1435991686600,44.0
730,1435991686620,44.0
731,1435991686643,44.0
732,1435991686660,44.0
733,1435991686680,44.0
734,1435991686703,44.0
735,1435991686721,43.0
736,1435991686740,43.0
737,1435991686768,43.0
738,1435991686784,43.0
739,1435991686802,42.0
740,1435991686825,42.0
741,1435991686842,42.0
742,1435991686867,42.0
743,1435991686887,42.0
744,1435991686910,42.0
745,1435991686924,42.0
746,1435991686990,42.0
747,1435991686991,42.0
748,1435991686992,42.0
749,1435991687002,42.0
750,1435991687020,42.0
751,1435991687040,42.0
752,1435991687061,43.0
753,1435991687080,43.0
754,1435991687101,43.0
755,1435991687122,44.0
756,1435991687144,44.0
757,1435991687164,43.0
758,1435991687184,43.0
759,1435991687202,43.0
760,1435991687224,43.0
761,1435991687245,43.0
762,1435991687265,43.0
763,1435991687286,43.0
764,1435991687307,43.0
765,1435991687324,43.0
766,1435991687343,43.0
767,1435991687366,43.0
768,1435991687384,43.0
769,1435991687407,43.0
770,1435991687428,43.0
771,1435991687447,43.0
772,1435991687465,43.0
773,1435991687487,43.0
774,1435991687502,44.0
775,1435991687530,44.0
776,1435991687555,44.0
777,1435991687585,44.0
778,1435991687586,44.0
779,1435991687604,43.0
780,1435991687621,43.0
781,1435991687645,43.0
782,1435991687665,43.0
783,1435991687686,43.0
784,1435991687703,43.0
785,1435991687725,43.0
786,1435991687745,43.0
787,1435991687763,43.0
788,1435991687788,43.0
789,1435991687805,43.0
790,1435991687825,44.0
791,1435991687848,44.0
792,1435991687865,44.0
793,1435991687885,44.0
794,1435991687908,44.0
795,1435991687924,44.0
796,1435991687975,44.0
797,1435991687976,44.0
798,1435991687984,44.0
799,1435991688005,43.0
800,1435991688028,43.0
801,1435991688045,44.0
802,1435991688066,44.0
803,1435991688086,44.0
804,1435991688102,44.0
805,1435991688122,44.0
806,1435991688145,44.0
807,1435991688165,44.0
808,1435991688181,44.0
809,1435991688205,44.0
810,1435991688221,44.0
811,1435991688241,44.0
812,1435991688265,44.0
813,1435991688281,44.0
814,1435991688301,44.0
815,1435991688323,44.0
816,1435991688346,44.0
817,1435991688364,44.0
818,1435991688385,44.0
819,1435991688406,44.0
820,1435991688423,44.0
821,1435991688448,44.0
822,1435991688466,44.0
823,1435991688486,44.0
824,1435991688507,44.0
825,1435991688537,44.0
826,1435991688544,44.0
827,1435991688569,44.0
828,1435991688583,44.0
829,1435991688603,44.0
830,1435991688625,44.0
831,1435991688645,44.0
832,1435991688663,44.0
833,1435991688688,44.0
834,1435991688709,44.0
835,1435991688729,44.0
836,1435991688750,44.0
837,1435991688764,44.0
838,1435991688791,44.0
839,1435991688854,44.0
840,1435991688855,44.0
841,1435991688856,44.0
842,1435991688869,44.0
843,1435991688885,44.0
844,1435991688904,44.0
845,1435991688928,44.0
846,1435991688947,44.0
847,1435991688964,44.0
848,1435991688985,44.0
849,1435991689002,44.0
850,1435991689022,44.0
851,1435991689045,44.0
852,1435991689062,44.0
853,1435991689082,44.0
854,1435991689104,44.0
855,1435991689122,44.0
856,1435991689142,44.0
857,1435991689164,44.0
858,1435991689182,44.0
859,1435991689202,44.0
860,1435991689227,44.0
861,1435991689242,44.0
862,1435991689262,44.0
863,1435991689289,44.0
864,1435991689303,44.0
865,1435991689323,44.0
866,1435991689346,44.0
867,1435991689364,44.0
868,1435991689383,44.0
869,1435991689406,44.0
870,1435991689424,44.0
871,1435991689444,44.0
872,1435991689521,44.0
873,1435991689522,44.0
874,1435991689523,44.0
875,1435991689545,44.0
876,1435991689546,44.0
877,1435991689562,44.0
878,1435991689585,44.0
879,1435991689603,44.0
880,1435991689623,44.0
881,1435991689649,44.0
882,1435991689667,44.0
883,1435991689687,44.0
884,1435991689709,44.0
885,1435991689728,44.0
886,1435991689747,44.0
887,1435991689769,44.0
888,1435991689787,44.0
889,1435991689807,44.0
890,1435991689830,44.0
891,1435991689846,44.0
892,1435991689867,44.0
893,1435991689890,44.0
894,1435991689909,44.0
895,1435991689930,44.0
896,1435991689949,44.0
897,1435991689965,44.0
