id,attr_time,attr_db
1,1436893598415,44.5541374108146
2,1436893599164,46.1729128516636
3,1436893599884,53.9416398932369
4,1436893600626,59.6671538605107
5,1436893601424,50.3766417510024
6,1436893602156,58.5247716203597
7,1436893602898,64.0135575754588
8,1436893603693,45.4495883744874
9,1436893604404,57.8840350290873
10,1436893605153,59.3211568808712
11,1436893605861,43.794413807204
12,1436893606549,42.3922853208305
13,1436893607304,54.1210508973118
14,1436893608037,68.1845813886018
15,1436893608762,65.3213651365668
16,1436893609429,67.7146532636755
17,1436893610187,60.671046554008
18,1436893610908,66.7410560793185
19,1436893611650,64.4867410521556
20,1436893612409,66.7323638267677
21,1436893613114,68.3484665899981
22,1436893613846,63.5449421500539
23,1436893614590,60.6911554692509
24,1436893615387,58.7971556727664
25,1436893616118,60.9099005605889
26,1436893616802,59.2655289200645
27,1436893617445,67.4761941579603
28,1436893618187,68.0055885259574
29,1436893618915,67.5533564940823
30,1436893619636,62.2262238260268
31,1436893620451,63.6998541652414
32,1436893621134,62.4892291489768
33,1436893621870,66.2746578078868
34,1436893622589,52.4675604799901
35,1436893623353,61.4553265825207
36,1436893624104,58.9844674176959
37,1436893624875,61.9416874454204
38,1436893625564,68.7626392159935
39,1436893626316,67.1487878350699
40,1436893627057,61.8026596013389
41,1436893627795,64.6383082536002
42,1436893628522,67.3395664032637
43,1436893629258,66.4298954394232
44,1436893629963,58.1651480544474
45,1436893630624,61.8594894626988
46,1436893631349,69.5545499139451
47,1436893632075,65.5916374397782
48,1436893632784,67.7981060421674
49,1436893633409,68.2557106434234
50,1436893634103,59.7160999376644
51,1436893634847,54.7670631197446
52,1436893635654,60.2565015479975
53,1436893636415,69.4942962714221
54,1436893637111,68.5357757908528
55,1436893637729,61.3198484205159
56,1436893638398,68.1165230036116
57,1436893639104,59.8339298930262
58,1436893639839,61.7860715341538
59,1436893640700,60.0517928875332
60,1436893641426,67.6615932521216
61,1436893642179,62.7057810981729
62,1436893642938,65.6783374644292
63,1436893643691,61.9408399532849
64,1436893644396,66.1775502551924
65,1436893645137,63.9500558750753
66,1436893645877,64.5108037743819
67,1436893646612,65.2283143214661
68,1436893647335,61.7106260302057
69,1436893648026,58.7549853362756
70,1436893648681,68.722898602827
71,1436893649385,68.2493418003353
72,1436893650165,61.6093225835025
73,1436893650920,63.9011206836969
74,1436893651687,67.428098151109
75,1436893652438,68.7701291274263
76,1436893653187,67.646352134459
77,1436893653854,58.9333183679117
78,1436893654577,65.7587215157255
79,1436893655310,68.3512771148818
80,1436893656046,64.6608260218319
81,1436893656772,69.4160868413055
82,1436893657470,64.5796516190466
83,1436893658089,65.404879854726
84,1436893658790,60.1497258950541
85,1436893659545,71.044215734724
86,1436893660270,68.4671315021384
87,1436893661033,64.3775813378277
88,1436893661776,64.2545903172423
89,1436893662507,64.6817445948123
90,1436893663217,66.8892455771311
91,1436893663939,59.5099892592927
92,1436893664677,60.4344331565158
93,1436893665462,61.1482029744642
94,1436893666196,60.3063789150171
95,1436893666917,68.250083948775
96,1436893667677,67.2125564870088
97,1436893668324,64.5117059947159
98,1436893669058,65.2131098001007
99,1436893669807,65.4131023273741
100,1436893670547,59.1774520728188
101,1436893671280,60.9022613813905
102,1436893672011,62.3488614187094
103,1436893672793,67.7108939224386
104,1436893673470,68.7225768216286
105,1436893674168,66.6787906582831
106,1436893674905,62.4029593589544
107,1436893675648,65.2131384580063
108,1436893676387,67.6999570029876
109,1436893677128,63.3174306651343
110,1436893677858,61.5708740407474
111,1436893678565,64.4805479465679
112,1436893679253,71.6727879056876
113,1436893679972,66.6542223725587
114,1436893680727,66.8306316126943
115,1436893681488,62.5346671626638
116,1436893682158,68.0607152936033
117,1436893682791,58.9175749605623
118,1436893683522,68.4289395222761
119,1436893684258,65.8249879646743
120,1436893684991,69.1823635075496
121,1436893685755,66.0641147802803
122,1436893686470,63.9774976193471
123,1436893687192,63.8760816743886
124,1436893687973,66.4742050890603
125,1436893688737,66.8896045812571
126,1436893689431,68.189155094907
127,1436893690129,58.3747973727485
128,1436893690894,59.8167872751633
129,1436893691530,66.2319363279594
130,1436893692263,66.7495330103072
131,1436893693013,65.783668390082
132,1436893693786,66.4118096233852
133,1436893694435,65.5638889931891
134,1436893695152,61.3324684323834
135,1436893695970,61.759477795362
136,1436893696656,60.0869151434635
137,1436893697387,65.4024652673506
138,1436893698126,68.0729937362081
139,1436893698854,67.0530354285934
140,1436893699615,66.6804337476738
141,1436893700442,60.6442697488839
142,1436893701153,62.801401659194
143,1436893701786,69.3340275594633
144,1436893702497,61.3655828723026
145,1436893703259,59.957947263956
146,1436893703941,62.4640637173708
147,1436893704596,67.1663844804327
148,1436893705322,62.2966734526452
149,1436893705940,68.5980141498763
150,1436893706622,59.2405414700721
151,1436893707381,58.8798946385976
152,1436893708111,59.3010642711982
153,1436893708820,69.2288282501532
154,1436893709540,69.6539076365678
155,1436893710268,66.7487065534623
156,1436893711086,62.1734433729633
157,1436893711834,62.0725949118601
158,1436893712444,60.8503504080717
159,1436893713093,69.1263567460987
160,1436893713740,62.0644461782555
161,1436893714370,63.7218368325544
162,1436893715075,64.4653275027892
163,1436893715861,66.4984837621745
164,1436893716533,59.454738191262
165,1436893717264,67.512503208812
166,1436893718000,67.7675687474985
167,1436893718752,67.9187394931834
168,1436893719504,65.110745217814
169,1436893720239,65.1837761122372
170,1436893721028,66.2036738555581
171,1436893721759,60.6863824001787
172,1436893722526,53.7376885773932
173,1436893723260,61.5990879717745
174,1436893724024,64.6528082934414
175,1436893724782,67.5368968643582
176,1436893725541,69.6538580309609
177,1436893726277,62.1258665750428
178,1436893727015,59.9822385379134
179,1436893727771,60.7128289695574
180,1436893728531,65.6650094081363
181,1436893729207,59.6934072716751
182,1436893729927,61.1280849136268
183,1436893730670,56.9191520059467
184,1436893731418,67.8761208249951
185,1436893732158,68.7717885024291
186,1436893732869,70.4577616697549
187,1436893733576,62.5806191724601
188,1436893734313,62.4682582873209
189,1436893735017,62.9813853337249
190,1436893735762,60.6907708333142
191,1436893736496,59.1952163259562
192,1436893737248,56.9448917102306
193,1436893737969,68.0732472382517
194,1436893738746,64.8665966414244
195,1436893739476,60.1948524948337
196,1436893740199,58.0605238936651
197,1436893740935,60.6644854563495
198,1436893741677,63.620108286399
199,1436893742406,62.3556812408765
200,1436893743133,61.8615707673699
201,1436893743857,58.72435655573
202,1436893744513,69.2012022245396
203,1436893745228,68.1811683840704
204,1436893745987,63.6899114673676
205,1436893746737,63.8717701177219
206,1436893747459,66.8732739343647
207,1436893748174,53.9981581141593
208,1436893748898,58.3413999287237
209,1436893749646,67.2210381165307
210,1436893750434,63.7870772943221
211,1436893751175,70.1606423219917
212,1436893751899,64.7865258126887
213,1436893752635,61.2524338007672
214,1436893753357,62.503750041277
215,1436893754092,64.4780207223472
216,1436893754778,47.013541062974
217,1436893755446,65.6102507215008
218,1436893756212,67.6688135190742
219,1436893756958,68.6888061840542
220,1436893758855,56.7909292627516
221,1436893759624,66.4220768249744
222,1436893760392,65.4810371454537
223,1436893761115,61.9339809969184
224,1436893761848,63.5578116380384
225,1436893762586,62.2588665110341
226,1436893763314,63.1880121267156
227,1436893764050,62.9932522755719
228,1436893764810,54.2754657679221
229,1436893765542,59.8821019844873
230,1436893766308,59.308014448355
231,1436893767055,64.791457500271
232,1436893769017,65.1579677951086
233,1436893769637,57.4958633517005
234,1436893770338,64.3397689861477
235,1436893771067,69.4001206683992
236,1436893771802,64.6509597978776
237,1436893772530,59.8897942931811
238,1436893773208,64.0076891561665
239,1436893773865,58.3683943027105
240,1436893774551,64.4754313297829
241,1436893775136,69.1905161196417
242,1436893775869,66.2571084397082
243,1436893776613,61.3539361878648
244,1436893777350,62.1562606419705
245,1436893778073,63.4087902754886
246,1436893778810,66.6396188850931
247,1436893779553,61.7028436769222
248,1436893780317,60.4624839113374
249,1436893781006,65.1304719414489
250,1436893781694,67.0848363651546
251,1436893782362,64.4607644433998
252,1436893783869,63.1080966965408
253,1436893784636,64.9563777655662
254,1436893785428,61.7216446352485
255,1436893786144,60.1664116135338
256,1436893786900,52.7832086105934
257,1436893787623,57.8221117755976
258,1436893788360,65.9255310438334
259,1436893789095,67.7659697725211
260,1436893789759,60.5584824201738
261,1436893790557,66.9976114883798
262,1436893791269,60.2074329466362
263,1436893793155,68.6746177768084
264,1436893793938,65.2827793254517
265,1436893794695,68.0144614738386
266,1436893795361,62.3998410794907
267,1436893796056,62.6774455364761
268,1436893796765,64.8542003839426
269,1436893797510,57.5692141776915
270,1436893798243,60.2695178776636
271,1436893798984,56.505623189028
272,1436893799693,62.7701853367936
273,1436893800464,67.6846359489933
274,1436893801183,64.4374627974734
275,1436893801881,60.7186543209372
276,1436893802623,66.0142054278576
277,1436893803349,61.8678569294133
278,1436893804069,49.4823342932969
279,1436893804817,58.5876798666486
280,1436893805677,59.7248406279148
281,1436893806383,58.8715415045667
282,1436893807059,69.151191784892
283,1436893807780,64.2932765809266
284,1436893808509,61.4158025292514
285,1436893809252,64.6627988262235
286,1436893810047,67.0635615572087
287,1436893810838,69.524548736205
288,1436893811539,49.8997656094024
289,1436893812277,58.6320830057057
290,1436893813014,58.9438647098544
291,1436893813738,67.1012109727615
292,1436893814457,61.4018028284119
293,1436893815181,65.253059279905
294,1436893815762,66.6715444341495
295,1436893816426,60.4812457032039
296,1436893817152,64.7052701336749
297,1436893817894,66.5410872937476
298,1436893818642,69.7126919767712
299,1436893819384,67.9034596642163
300,1436893820096,65.7532044566732
301,1436893820810,60.2549973681182
302,1436893821538,62.9625840952065
303,1436893822278,67.7537385663041
304,1436893823007,66.5294688214964
305,1436893823732,57.7096345842519
306,1436893824468,57.7772560285214
307,1436893825280,60.8385770972103
308,1436893826022,56.5819302724649
309,1436893826733,66.5464301926265
310,1436893827400,65.0188512248099
311,1436893828142,66.3659655806385
312,1436893828878,51.7769244566192
313,1436893829640,60.8000288011537
314,1436893830383,60.5896254924499
315,1436893831015,57.6198502732648
316,1436893831708,57.7637602202664
317,1436893832440,67.6677060691021
318,1436893832994,59.3990799398263
319,1436893833571,60.4578755975352
320,1436893834263,64.1223250162167
321,1436893834989,62.55080409002
322,1436893835758,60.8726892318885
323,1436893836480,66.5821334470721
324,1436893837223,66.2430335223743
325,1436893837924,68.8834270666911
326,1436893838517,57.6326137648095
327,1436893839197,63.7247684226374
328,1436893839989,64.5362994959883
329,1436893840806,60.6168734405601
330,1436893841525,65.6254776427452
331,1436893842189,59.6354745544925
332,1436893842946,56.8786534042295
333,1436893843681,65.4654038381194
334,1436893844409,71.6586503392357
335,1436893845156,67.0935028519735
336,1436893845945,58.9413849259562
337,1436893846678,58.6829786682132
338,1436893847405,63.8623074447522
339,1436893848066,65.7966973625979
340,1436893848688,60.0269373103012
341,1436893849391,67.4510979687492
342,1436893850169,68.4669242205732
343,1436893850882,65.2308603521103
344,1436893851625,63.7933293702886
345,1436893852357,61.5729002549541
346,1436893853096,61.744768301182
347,1436893853818,61.5332467017553
348,1436893854548,62.8423225894198
349,1436893855278,55.5406938001062
350,1436893855921,56.4957788495484
351,1436893856619,68.6280220095199
352,1436893857349,65.764996186593
353,1436893858073,65.9132135460711
354,1436893858794,63.1967294995927
355,1436893859511,61.0490847643468
356,1436893860238,61.0839299662246
357,1436893860894,59.8689657684686
358,1436893861665,61.1062021098888
359,1436893862365,58.6049097130167
360,1436893863111,56.3013557202445
361,1436893863847,66.8411712904807
362,1436893864573,64.0443681064386
363,1436893865252,65.8644355512854
364,1436893866015,67.9415708738466
365,1436893866737,58.2637185585167
366,1436893867436,61.3107003000635
367,1436893868134,67.7904153653968
368,1436893868869,62.3929026979662
369,1436893869592,59.4220595020725
370,1436893870313,61.8154480579948
371,1436893871211,63.7029474612523
372,1436893871894,64.2123798961657
373,1436893872597,66.9534750754286
374,1436893873332,64.4561759040022
375,1436893874065,67.3733661353034
376,1436893874791,65.1586357890719
377,1436893875587,58.5465637852365
378,1436893876333,64.2800007385614
379,1436893877072,58.1138028025142
380,1436893877800,62.6728481493357
381,1436893878489,65.3860579683558
382,1436893879193,58.9578478803057
383,1436893879850,59.2487542745622
384,1436893880653,64.8411261309745
385,1436893881459,59.035957277186
386,1436893882182,64.6140775139782
387,1436893882825,65.4535684988007
388,1436893883538,64.2207695341666
389,1436893884275,59.7641559457224
390,1436893885019,64.7676785192557
391,1436893885766,61.2358621352072
392,1436893886511,64.4040871425807
393,1436893887237,62.8738217253507
394,1436893887987,64.1348535479463
395,1436893888815,62.9590854603937
396,1436893889540,52.5440630334416
397,1436893890263,62.4648905745105
398,1436893890997,60.5484696007687
399,1436893891739,67.6100764877879
400,1436893892458,67.1809975181723
401,1436893893195,68.7456581382673
402,1436893893904,65.6541303455674
403,1436893894554,65.931247631408
404,1436893895280,67.538102205901
405,1436893896034,66.3240840622641
406,1436893896771,64.347656956245
407,1436893897516,56.8582503511337
408,1436893898235,55.6996342783189
409,1436893898963,62.183929617196
410,1436893899873,54.6833978045371
411,1436893900504,61.8432322051279
412,1436893901158,68.7090246945266
413,1436893901888,67.4047466454246
414,1436893902630,57.5529318615276
415,1436893903365,60.3376854037645
416,1436893904083,63.2286599824775
417,1436893904825,64.2548846804063
418,1436893905485,67.5276117204301
419,1436893906119,61.6496034812555
420,1436893906827,64.0388323691633
421,1436893907573,65.9017569309458
422,1436893908291,67.3947832844608
423,1436893909046,67.0769433293973
424,1436893909743,62.8193682896848
425,1436893910480,62.3739861281817
426,1436893911136,68.9890918973179
427,1436893911860,68.5701809065452
428,1436893912580,62.9510952141655
429,1436893913316,59.6780775786319
430,1436893914052,65.6444874580628
431,1436893914865,64.2055028515202
432,1436893915591,65.4017177243375
433,1436893916323,70.3575438445813
434,1436893917050,67.824655606865
435,1436893917694,60.0842203787887
436,1436893918279,59.1327495701095
437,1436893918987,59.0480690014873
438,1436893919720,59.6691117627129
439,1436893920493,58.7720505978621
440,1436893921209,63.2746817952155
441,1436893921876,69.8228433341688
442,1436893922594,64.2462008108082
443,1436893923286,60.5223392488762
444,1436893923941,68.3579416140802
445,1436893924669,65.667833174024
446,1436893925447,62.1192705336649
447,1436893926165,59.7088149401137
448,1436893926915,56.8412659845531
449,1436893927648,56.1054362320574
450,1436893928370,61.3547239707516
451,1436893929073,69.2254504897807
452,1436893929810,65.0152937208556
453,1436893930687,67.9945443214008
454,1436893931408,63.7564820290449
455,1436893932134,60.1756234157341
456,1436893932860,60.855515608523
457,1436893933638,63.4108393896666
458,1436893934367,63.3455278027871
459,1436893935092,59.723067432478
460,1436893935798,52.7364302821792
461,1436893936538,60.7585688376136
462,1436893937276,58.3856485252402
463,1436893937985,58.1991587255837
464,1436893938551,65.1339104807027
465,1436893939242,63.8051132310542
466,1436893940080,60.473260190286
467,1436893940817,62.9540582369662
468,1436893941549,65.3635348850748
469,1436893942279,66.81872469208
470,1436893943026,51.5646860303594
471,1436893943789,64.2549570045284
472,1436893944456,52.9886291498619
473,1436893945190,59.8914579653281
474,1436893945910,60.0617065659138
475,1436893946643,66.9407620662263
476,1436893947382,67.9750370610118
477,1436893948123,67.2105562512794
478,1436893948813,56.8153331484491
479,1436893949526,61.7641948574395
480,1436893950191,64.1617989902886
481,1436893950938,52.0247868887603
482,1436893951688,59.0728374826398
483,1436893952407,66.2070744374012
484,1436893953142,60.3778146158584
485,1436893953812,63.8190988321253
486,1436893954525,65.5356487049114
487,1436893955190,64.2134418737363
488,1436893955921,64.7512425840767
489,1436893956655,63.6304410991161
490,1436893957371,63.2365543931714
491,1436893958115,55.2397124079641
492,1436893958847,59.2681577830845
493,1436893959505,61.8125390809378
494,1436893960261,68.9174567288074
495,1436893961023,70.0087321302267
496,1436893961767,67.7790127508557
497,1436893963006,64.5516561395265
498,1436893963671,63.2293011802877
499,1436893964382,64.4077694202233
500,1436893965169,68.4870082396433
501,1436893965908,68.5339890373401
502,1436893966631,64.3603588314726
503,1436893967359,62.4066581323444
504,1436893968054,63.9950008969451
505,1436893968736,62.767098628627
506,1436893969461,58.9577161564432
507,1436893970245,59.7318982153071
508,1436893970954,58.4700704535745
509,1436893971703,62.3657740656574
510,1436893972440,67.5627773489243
511,1436893973209,63.8798974230857
512,1436893973937,70.744405745395
513,1436893974683,65.5133268240304
514,1436893975490,64.508458178474
515,1436893977030,64.3634580202286
516,1436893977709,64.9361962466139
517,1436893978462,62.9735523576168
518,1436893979117,62.6319471045093
519,1436893979823,57.0034366540753
520,1436893980596,52.3992128146292
521,1436893981344,53.3519788800882
522,1436893981986,67.0432387276109
523,1436893983242,61.6492416479387
524,1436893983835,59.5792165427115
525,1436893984521,68.151113649498
526,1436893985278,64.6029566014829
527,1436893986019,64.6571867510227
528,1436893986758,68.1580204602879
529,1436893987489,64.4689055716655
530,1436893988236,66.5372112632173
531,1436893988947,57.2684878722779
532,1436893989676,64.7547949581985
533,1436893990414,61.3474654411187
534,1436893991085,63.8796646669496
535,1436893991771,59.3463282598466
536,1436893992499,61.3531225692524
537,1436893993187,59.975486422577
538,1436893993846,65.4837276983223
539,1436893994562,54.2821487122501
540,1436893995323,62.2544593441088
541,1436893996061,66.4206769652232
542,1436893996840,60.4988165979628
543,1436893997547,61.4527160774441
544,1436893998314,54.120318973282
545,1436894000099,60.2271320735724
546,1436894000850,66.4997072865797
547,1436894001576,64.6911300736825
548,1436894002300,62.8377479496837
549,1436894003044,48.3993557918752
550,1436894003723,59.1096471378088
551,1436894004371,67.735635089195
552,1436894005093,68.3205384874493
553,1436894005876,67.4719005729054
554,1436894006623,69.5622088346716
555,1436894007339,62.938357275242
556,1436894008068,61.462192182323
557,1436894008813,56.2454836486382
558,1436894009565,60.1647939206464
559,1436894010290,63.1429650758468
560,1436894011090,63.6092430578572
561,1436894011781,66.3113713089347
562,1436894013381,65.3736333007296
563,1436894014080,57.4713972328882
564,1436894014800,53.3475680488681
565,1436894015523,56.0867101077584
566,1436894016257,61.9163602916641
567,1436894016983,67.0695168046989
568,1436894017738,64.172239193544
569,1436894018420,66.2651624139113
570,1436894019027,62.215340642091
571,1436894019715,65.133725241711
572,1436894020510,63.6594348862288
573,1436894021224,61.9637210841775
574,1436894021964,53.2393948214844
575,1436894022696,59.2487534253225
