id,attr_time,attr_db
1,1436893598761,45.1751736261592
2,1436893599481,14.3879282461628
3,1436893600182,20.0935208383198
4,1436893600833,58.3792528672953
5,1436893601556,33.9648738335083
6,1436893602297,55.3950223367289
7,1436893603028,33.8057287240105
8,1436893603774,70.1929609918031
9,1436893604478,32.6476225832499
10,1436893606350,41.0637566798464
11,1436893607089,58.0468558303735
12,1436893607774,60.4204577292264
13,1436893608444,42.0630788134948
14,1436893609148,42.77048072486
15,1436893609892,60.136682161653
16,1436893610613,60.3514269161088
17,1436893611315,47.0802518005153
18,1436893612047,50.3739941879902
19,1436893612832,43.9722871345211
20,1436893613572,42.435064274995
21,1436893614316,48.0237653601827
22,1436893615008,57.7424637644025
23,1436893616410,53.5766476183478
24,1436893617131,47.0861354888299
25,1436893617899,44.6873238329952
26,1436893618610,49.4374377768978
27,1436893619344,66.9652858492209
28,1436893620058,60.4667258238896
29,1436893620734,39.2406925372132
30,1436893621454,46.1625925605214
31,1436893622170,50.7238522810844
32,1436893622982,51.410872548205
33,1436893623722,45.5943858928654
34,1436893624459,54.7953073561605
35,1436893625175,48.0708951202997
36,1436893625877,59.9160517017473
37,1436893626599,56.8392150358811
38,1436893627330,40.0926177663383
39,1436893628035,55.7858105428373
40,1436893628756,60.4653935737148
41,1436893629463,48.556864626934
42,1436893631502,57.8096609062171
43,1436893632225,37.4842482449254
44,1436893632974,57.8810744619999
45,1436893633745,57.5511472612895
46,1436893634467,58.4051672982555
47,1436893635189,52.5641233449483
48,1436893635918,46.4411461327144
49,1436893636516,60.7113065933336
50,1436893637195,39.6442353841881
51,1436893637955,49.3860577223003
52,1436893638667,60.1079979574777
53,1436893639897,61.556027747268
54,1436893640718,62.5399445893953
55,1436893641384,49.9739235932138
56,1436893642121,37.2270505720702
57,1436893642791,62.2990231973818
58,1436893643511,50.2585526848487
59,1436893644297,53.0485926127567
60,1436893645028,48.1517059748963
61,1436893645759,48.4712583173745
62,1436893646461,66.9709234229179
63,1436893647120,43.1449498408064
64,1436893647830,52.9520934734124
65,1436893648551,56.987134449134
66,1436893649282,53.7764045707091
67,1436893650002,53.8457044986867
68,1436893650722,55.6713034473432
69,1436893651456,62.3532839730523
70,1436893652145,55.0026190713823
71,1436893652822,46.8025677768359
72,1436893653512,62.8705768698159
73,1436893654242,45.8737122920135
74,1436893654972,48.0006329490481
75,1436893655684,47.7921738023118
76,1436893656418,65.7732940060623
77,1436893657159,67.8594930013882
78,1436893657810,42.2831265153467
79,1436893658566,55.25420686838
80,1436893659312,45.1700044369152
81,1436893660018,41.2171236867297
82,1436893660743,46.4701967300937
83,1436893661446,55.5981788844344
84,1436893662152,51.2712160823132
85,1436893662936,54.2386158984781
86,1436893663663,38.5275018816533
87,1436893664385,56.5171640489655
88,1436893665100,62.4321864745808
89,1436893665767,48.5961245810656
90,1436893666485,54.6543278078332
91,1436893667144,64.817857026069
92,1436893667795,38.7281797048575
93,1436893668508,59.7935840209668
94,1436893669246,62.2952752799162
95,1436893670013,45.6226232723517
96,1436893670743,55.4764244869927
97,1436893671460,52.325273696796
98,1436893672135,64.9862060677715
99,1436893672784,42.4368063714958
100,1436893673547,42.3793019858025
101,1436893674287,56.2803718010256
102,1436893675016,55.9519042493555
103,1436893675714,59.1944082587791
104,1436893676435,45.6306659950859
105,1436893677124,54.2639109491209
106,1436893677845,59.5823577376396
107,1436893678637,53.0089746817008
108,1436893679362,44.4257891461885
109,1436893680098,45.007801783973
110,1436893680805,62.7236562404896
111,1436893681531,58.0262220441135
112,1436893682256,53.1146385959112
113,1436893682990,48.5630656446034
114,1436893683701,53.8864795868334
115,1436893684396,59.3686202955019
116,1436893685073,40.7978821960724
117,1436893685786,42.1388075294509
118,1436893686429,52.6730651370415
119,1436893687138,52.0756360208622
120,1436893687854,44.9157345022996
121,1436893688574,49.8476623025651
122,1436893689381,43.2581490502009
123,1436893690113,61.3595173325988
124,1436893690782,40.5271645054095
125,1436893691444,57.6723240538888
126,1436893692164,55.0280075999925
127,1436893692878,51.46623566404
128,1436893693624,54.0435829502449
129,1436893694426,45.9278386237455
130,1436893695124,49.271552766662
131,1436893695849,60.0323175868166
132,1436893696564,50.2915316543493
133,1436893697285,36.5634063788514
134,1436893698018,56.2409016189177
135,1436893698713,57.6367088954723
136,1436893699390,51.5209008582556
137,1436893700128,57.4180075415736
138,1436893700890,57.4760439643165
139,1436893701636,60.9671623491609
140,1436893702339,41.0425315768982
141,1436893703055,42.3966815573473
142,1436893703791,55.1816567142963
143,1436893704524,61.1311068840237
144,1436893705186,54.2833454644011
145,1436893705873,48.3340748178596
146,1436893706597,66.4139367810954
147,1436893707350,50.5076398838539
148,1436893708026,45.484879030946
149,1436893708754,59.2447654049476
150,1436893709476,62.6433450292068
151,1436893710204,63.2933832625264
152,1436893710934,56.6112421778073
153,1436893711642,61.2282195411528
154,1436893712353,56.4034826655232
155,1436893713086,42.7051783052615
156,1436893713805,44.809485745431
157,1436893714507,56.77286053557
158,1436893715186,57.022768664731
159,1436893715910,43.1865074813731
160,1436893716633,52.5184653673951
161,1436893717365,57.2561491404399
162,1436893718110,40.8611936638523
163,1436893718850,36.2957771826193
164,1436893719599,58.0982948462072
165,1436893720306,56.2089670740005
166,1436893720980,51.1665609954976
167,1436893721680,51.3796846798809
168,1436893722409,40.4226037011209
169,1436893723118,35.8280943854724
170,1436893723862,43.2877498671922
171,1436893724595,56.54635816529
172,1436893725317,54.0606324567591
173,1436893726034,57.2910646234704
174,1436893726733,54.8165041160328
175,1436893727435,59.8267437031833
176,1436893728155,51.1694684111861
177,1436893728871,39.3616207101193
178,1436893729562,57.7750588040744
179,1436893730297,46.2071689599387
180,1436893730981,52.0072129868014
181,1436893731628,51.3980198599221
182,1436893732371,59.4854522067838
183,1436893733160,52.300979522822
184,1436893733868,50.7072349726159
185,1436893734549,50.2934532277241
186,1436893735273,57.0713746975098
187,1436893736025,59.8699934510532
188,1436893736708,49.151300705413
189,1436893737388,56.2626991331459
190,1436893738112,59.1418451069996
191,1436893738884,42.2062484858667
192,1436893739605,33.0083582633996
193,1436893740321,49.7246934146091
194,1436893741029,57.9319898800305
195,1436893741616,54.7128768839449
196,1436893742283,65.3196025560215
197,1436893743013,40.9249927113963
198,1436893743771,37.5734922836548
199,1436893744500,41.7049238476772
200,1436893745262,54.6627329036887
201,1436893745991,54.238824581846
202,1436893746687,57.3368195162181
203,1436893747408,57.1275245444317
204,1436893748128,57.7691106531714
205,1436893748987,60.8811021997637
206,1436893749695,47.3269193893742
207,1436893750424,37.980639257583
208,1436893751135,46.0620744021107
209,1436893751872,49.5104909079442
210,1436893752593,49.2354566977419
211,1436893753335,51.7226253811906
212,1436893754046,52.7189601041039
213,1436893754721,56.8411698511877
214,1436893755442,43.3755913701163
215,1436893756163,37.2222748295971
216,1436893756907,55.5787692744725
217,1436893757604,54.3563189023405
218,1436893758270,51.7245657815079
219,1436893759070,44.0028943597438
220,1436893759784,50.7068963411395
221,1436893760510,36.757037219083
222,1436893761246,38.5161816814414
223,1436893761943,32.5301796210111
224,1436893762664,43.7680638492016
225,1436893763419,48.0624906668779
226,1436893764123,51.4506950061573
227,1436893764780,52.9112702959291
228,1436893765460,46.2543434357575
229,1436893766177,38.0409580888282
230,1436893766941,53.8835658564113
231,1436893767677,47.6192928427201
232,1436893768473,52.2879058668797
233,1436893769203,51.1224979780271
234,1436893769936,52.53842005828
235,1436893770610,39.3333978706634
236,1436893771312,59.1636279031062
237,1436893772046,46.2607417169904
238,1436893772730,37.3097693141583
239,1436893773413,55.044575432231
240,1436893774140,43.5267640479505
241,1436893774874,48.2431951715315
242,1436893775596,50.663707560716
243,1436893776269,41.8415916541913
244,1436893776920,42.5245144344374
245,1436893777649,35.0198834292939
246,1436893778373,50.8446419878698
247,1436893779174,61.8096717249133
248,1436893779953,47.5317983737189
249,1436893780674,43.9744541970275
250,1436893781406,49.5067654442941
251,1436893782127,41.7367248056384
252,1436893782856,45.8858867718301
253,1436893783594,61.0726548188636
254,1436893784322,51.5891071659057
255,1436893785033,39.91088462111
256,1436893785750,55.8531824574355
257,1436893786501,55.2719445185423
258,1436893787244,51.2846876530858
259,1436893787976,52.9089914595922
260,1436893788704,50.0530977137136
261,1436893789441,49.4634158805072
262,1436893790155,54.437682670981
263,1436893790947,63.01434533189
264,1436893791669,62.7098545218826
265,1436893792275,46.7896211219996
266,1436893792982,57.5110717830044
267,1436893793644,52.7955961753463
268,1436893794328,48.5757854861336
269,1436893795068,45.9042878651017
270,1436893795783,57.3923707896029
271,1436893796446,43.2511349123697
272,1436893797053,57.2110996954228
273,1436893797710,52.9550407041209
274,1436893798413,59.6046652629749
275,1436893799196,37.6275528004929
276,1436893799921,49.8253898655604
277,1436893800619,42.5868549427299
278,1436893801300,41.4138067918058
279,1436893802007,58.3760163596933
280,1436893802643,53.3033185550632
281,1436893803357,54.0967049455921
282,1436893804092,44.7397914333938
283,1436893804816,59.5881196585127
284,1436893805550,47.6923911645166
285,1436893806275,37.8965800628817
286,1436893807017,64.9690189245735
287,1436893807739,51.9467530924468
288,1436893808518,58.2439505569222
289,1436893810479,48.3343115431277
290,1436893811148,57.8314915016896
291,1436893811903,59.3364574407491
292,1436893812618,40.5229121839627
293,1436893813396,51.5325141746261
294,1436893814113,48.5914953355422
295,1436893814850,57.216271638991
296,1436893815563,47.431279948949
297,1436893816307,55.1698021515448
298,1436893817047,40.8285647492652
299,1436893817787,56.0392253061644
300,1436893818598,46.6046803158999
301,1436893819306,54.8313733208458
302,1436893820045,51.6442570964898
303,1436893820769,51.4737044302609
304,1436893821495,52.4404466782821
305,1436893822213,48.3353305646462
306,1436893822954,63.2858644866727
307,1436893824570,43.1144171813779
308,1436893825242,57.9549238268326
309,1436893825979,53.1711661320267
310,1436893826707,36.583685223985
311,1436893827456,30.1162939640649
312,1436893828181,64.9352780623191
313,1436893828900,42.2502584303434
314,1436893829632,47.5359423915944
315,1436893830349,57.0469207739276
316,1436893831044,52.2669259233038
317,1436893831748,53.5841545576648
318,1436893832468,53.0266703267469
319,1436893833248,41.4406537243937
320,1436893833988,38.7002729861629
321,1436893834785,45.5331597008862
322,1436893835409,56.369011895777
323,1436893836018,50.5829862040833
324,1436893836701,45.1577778575705
325,1436893837421,62.7459403106634
326,1436893838151,57.0414716644787
327,1436893838863,43.3983598220376
328,1436893839592,43.3235454974692
329,1436893840320,55.7849004014007
330,1436893841055,49.4811218194743
331,1436893841725,66.5547809637699
332,1436893842387,51.8701351386889
333,1436893843110,47.0678377747977
334,1436893843863,69.2398821194975
335,1436893844592,49.3212886727388
336,1436893845308,32.7369223987626
337,1436893845990,54.3414936973534
338,1436893847939,57.4017366442512
339,1436893848732,50.8566463641269
340,1436893849451,49.8716671692548
341,1436893850175,37.9229041277048
342,1436893850902,50.0520673442055
343,1436893851643,55.1043574548916
344,1436893852370,50.4151632191853
345,1436893853072,52.6026104010786
346,1436893853680,50.7245367375688
347,1436893854370,60.8006269733003
348,1436893855082,51.144008263092
349,1436893855832,42.0816009343055
350,1436893856563,35.3245404916849
351,1436893857246,59.3300674322466
352,1436893857951,50.7954496363065
353,1436893858574,42.5949036150975
354,1436893860326,58.7284164850841
355,1436893861048,57.9702760279211
356,1436893861754,53.6965552610125
357,1436893862410,56.245806702365
358,1436893863017,34.6680328511697
359,1436893863792,53.6621381812867
360,1436893864486,51.8001520290684
361,1436893865240,56.4180798271007
362,1436893865975,55.0964921986671
363,1436893866683,45.5302427065665
364,1436893867379,44.3807282806936
365,1436893868075,56.7029429711588
366,1436893868852,43.676722481615
367,1436893869516,61.4329866626026
368,1436893870237,46.6711356845912
369,1436893870952,37.5303645040916
370,1436893871674,47.524880537397
371,1436893872423,56.1114494191152
372,1436893873186,51.658289262607
373,1436893873956,59.5850431607517
374,1436893874636,57.524403773636
375,1436893875290,60.8472326010573
376,1436893876041,39.4437203665129
377,1436893876744,58.8605487957788
378,1436893877449,50.0188973348666
379,1436893878191,42.7923575490395
380,1436893879021,50.6618055004555
381,1436893879721,30.401534113704
382,1436893880429,52.3153968095506
383,1436893881147,51.7686584388742
384,1436893881864,44.6584353866298
385,1436893882577,46.8067950529025
386,1436893883359,50.2662287885843
387,1436893884096,59.6296317943771
388,1436893884826,43.1406941860753
389,1436893885533,58.8046829903217
390,1436893886227,38.7577388765434
391,1436893886880,49.8554617785716
392,1436893887563,50.1316864534098
393,1436893888306,48.2785852816487
394,1436893889018,51.7032843366793
395,1436893889736,48.7262231296988
396,1436893890457,50.7471598739124
397,1436893891162,61.0207817603135
398,1436893891910,48.3429926818832
399,1436893892613,45.4478239836183
400,1436893893298,42.6407117113261
401,1436893894095,40.4622321849942
402,1436893894808,58.4034219273852
403,1436893895511,58.6565941096784
404,1436893896257,55.3268550742436
405,1436893896963,57.6528579945736
406,1436893897666,55.2285038696113
407,1436893898319,55.0959792037279
408,1436893899010,60.9333555914636
409,1436893899733,51.3305317705176
410,1436893900439,34.8812734457954
411,1436893901136,54.1415172363245
412,1436893901927,57.7635955972082
413,1436893902630,51.9770364444526
414,1436893903339,59.0915037122837
415,1436893904140,55.9931468239079
416,1436893904899,48.9868432754538
417,1436893905640,48.5039551119247
418,1436893906374,50.6942158082099
419,1436893907128,45.0367277324192
420,1436893907811,40.4299981641272
421,1436893908584,57.7898048955042
422,1436893909339,67.262078688855
423,1436893910050,48.5045575853513
424,1436893910788,36.091100151292
425,1436893911508,56.5039459919791
426,1436893912293,63.2235281167865
427,1436893913054,62.3619793828058
428,1436893913805,64.340323780616
429,1436893914466,47.4822781962455
430,1436893915185,47.6672964910027
431,1436893915927,53.1027362371318
432,1436893916649,59.9366742101605
433,1436893917369,56.4289454484201
434,1436893918096,45.5328005096633
435,1436893918844,48.1402311741279
436,1436893919567,53.2040878593804
437,1436893920303,54.3958632352977
438,1436893921014,52.107042984977
439,1436893921706,45.7415044805851
440,1436893922369,45.3238131956911
441,1436893923115,44.8276337140441
442,1436893923769,60.011365871478
443,1436893924505,53.1331458618016
444,1436893925250,54.2934511663602
445,1436893926000,44.8663096035959
446,1436893926738,39.6973106376685
447,1436893927464,51.2502838215973
448,1436893928177,45.7228679546545
449,1436893928915,54.1713930284997
450,1436893929603,45.6123997326485
451,1436893930317,51.47687639734
452,1436893931035,63.9134587717451
453,1436893931758,65.9513074775368
454,1436893932435,62.5581729453089
455,1436893933115,50.6830729063212
456,1436893933823,59.0290983825852
457,1436893934541,57.1683452887604
458,1436893935279,55.1629243736599
459,1436893936010,57.8706356484233
460,1436893936725,51.725668450636
461,1436893937468,46.6488796718254
462,1436893938186,64.8456895438371
463,1436893938906,63.0487658267588
464,1436893939629,39.6448907253188
465,1436893940330,38.6085768467865
466,1436893941067,56.6456718774673
467,1436893941806,59.480749593953
468,1436893942502,53.1684348017438
469,1436893943213,50.0213095452526
470,1436893943876,46.6074922910135
471,1436893944554,62.7316180660642
472,1436893945281,59.1887229803305
473,1436893945994,57.3670135253637
474,1436893946720,36.0552301097698
475,1436893947442,41.2873517643289
476,1436893948251,60.2355513278435
477,1436893948991,45.8718821985571
478,1436893949693,59.7550905539786
479,1436893950871,50.4747661725612
480,1436893951485,37.5077567231728
481,1436893952159,59.1423783507804
482,1436893952917,48.8989666217494
483,1436893953634,52.7683106956588
484,1436893954350,44.3826052033763
485,1436893955086,46.8606448677945
486,1436893955768,54.709666987326
487,1436893956493,64.7861364956955
488,1436893957228,54.4686541407913
489,1436893958018,58.6711775809206
490,1436893958734,37.2289286075272
491,1436893959449,35.12919958991
492,1436893960167,55.7654508685288
493,1436893960877,59.727246349149
494,1436893961610,50.3683873613885
495,1436893962348,54.8864746732929
496,1436893963055,61.0576146153626
497,1436893963785,65.5251071614032
498,1436893964487,61.1910600368256
499,1436893965164,51.3870312887084
500,1436893965879,55.5733168335583
501,1436893966613,58.7095229723108
502,1436893967338,49.265328534849
503,1436893968072,43.0093833722344
504,1436893968795,44.1341497701033
505,1436893969515,59.1488614196959
506,1436893970239,62.9723173052084
507,1436893970977,66.1214225737589
508,1436893971657,54.1774619737248
509,1436893972353,39.8452243985086
510,1436893973082,52.560289917984
511,1436893973787,55.6913918838916
512,1436893974527,44.9862105989492
513,1436893975225,50.190585647315
514,1436893975950,54.2362079385383
515,1436893976672,63.1065086740239
516,1436893977431,56.8431690645492
517,1436893978168,49.5186164700041
518,1436893978912,50.7051799733088
519,1436893979623,38.2356516944389
520,1436893980315,58.2673389672428
521,1436893980976,54.3684052269155
522,1436893981707,55.2959889280824
523,1436893982447,54.1511037977482
524,1436893983219,49.7141079383598
525,1436893983900,52.0660681265347
526,1436893984569,64.1707544099782
527,1436893985264,61.3290291852403
528,1436893985922,62.2970410850348
529,1436893986623,57.0491962737183
530,1436893987347,57.6912694622234
531,1436893988094,44.2203814871377
532,1436893988933,56.3687043534314
533,1436893989645,50.4101498486999
534,1436893990358,50.5781998952619
535,1436893991095,51.3434560154814
536,1436893991807,57.580551450709
537,1436893992528,57.674153290049
538,1436893993276,42.6087523672287
539,1436893993983,44.6518203564387
540,1436893994724,56.5360282099386
541,1436893995455,58.0489844475443
542,1436893996177,53.4767222091339
543,1436893996902,46.5829831561319
544,1436893997629,53.6783934350491
545,1436893998316,52.9890444192014
546,1436893998951,55.8356337412096
547,1436893999690,47.3434309933897
548,1436894000406,43.0391107075651
549,1436894001104,54.7849987053342
550,1436894001881,56.5807178029104
551,1436894002627,51.0334182275398
552,1436894003399,55.2615214460629
553,1436894004215,61.0273540818401
554,1436894004888,57.0758807973197
555,1436894005600,53.8656984614132
556,1436894006340,49.7496053019862
557,1436894007079,45.9686114714086
558,1436894007813,44.8855006592303
559,1436894008558,53.3434567140177
560,1436894009285,59.9112094775844
561,1436894010034,57.95250440393
562,1436894010674,37.1374178258357
563,1436894011381,41.1122531074504
564,1436894012095,56.8898882449271
565,1436894012834,56.655215070782
566,1436894014665,54.67193760471
567,1436894015364,41.6358397319851
568,1436894016090,38.4569988509579
569,1436894016840,54.8200861033833
570,1436894017568,54.1594326687675
571,1436894018286,53.1017071969386
572,1436894019061,51.4068651756078
573,1436894019772,47.1553861946586
574,1436894020452,61.4049841657539
575,1436894021177,50.571132444418
