id,attr_time,attr_db
1,1436893598565,47.4647571940416
2,1436893599215,41.3828743605453
3,1436893599945,24.5713155480329
4,1436893600670,36.9910907344286
5,1436893601369,66.5494135072276
6,1436893601965,72.7509083406778
7,1436893602564,42.748707488313
8,1436893603251,65.7747590531009
9,1436893603961,56.2185604549051
10,1436893604611,47.2485057316059
11,1436893605304,33.2327591760773
12,1436893606046,45.7458418490713
13,1436893606773,58.3016909052951
14,1436893607494,55.218620489278
15,1436893608107,52.3443082988935
16,1436893608786,51.5961558267316
17,1436893609494,58.2401353682973
18,1436893610296,57.5415908949232
19,1436893611035,55.3128214936189
20,1436893611773,56.7763666047615
21,1436893612428,64.4901882929551
22,1436893613149,66.5516576619896
23,1436893613871,49.6015634184921
24,1436893614638,60.1855498688603
25,1436893615388,60.2862633549818
26,1436893616135,60.9368746221427
27,1436893616835,45.4856639925298
28,1436893617551,58.5202037001374
29,1436893618299,62.2138994199754
30,1436893619036,54.0391787829401
31,1436893619756,58.0030898443181
32,1436893620485,62.9174996853367
33,1436893621215,59.2616078834907
34,1436893621916,64.6409179837547
35,1436893622607,57.2393566392522
36,1436893623360,45.8759846647725
37,1436893624102,46.2898264385743
38,1436893624829,59.5006250178263
39,1436893625545,50.5866062092078
40,1436893626305,52.9677169693913
41,1436893627034,62.8197005976006
42,1436893627772,62.7378022452207
43,1436893628446,54.9350324778961
44,1436893629181,57.5572113177134
45,1436893629912,47.0381850409322
46,1436893630634,54.4583356518304
47,1436893631425,62.586158307813
48,1436893632139,53.615561784355
49,1436893632893,55.4027816131234
50,1436893633565,65.3478257066387
51,1436893634274,55.2555044109793
52,1436893634982,57.62084928646
53,1436893635662,46.8273911640507
54,1436893636377,61.8127301242617
55,1436893637148,57.6052625301923
56,1436893637991,50.85518164548
57,1436893638698,50.5199775499813
58,1436893639431,53.5558809832478
59,1436893640151,63.6080577716567
60,1436893640877,53.9564394410429
61,1436893641615,58.3173031307284
62,1436893642400,58.4488232933181
63,1436893642998,60.5399221231057
64,1436893643635,58.1834668514873
65,1436893644350,61.2874373437057
66,1436893645085,61.4570109659866
67,1436893645802,45.0463295110295
68,1436893646532,58.0401197323942
69,1436893647409,57.0601046321742
70,1436893648095,55.5809234042083
71,1436893648763,63.3006891331267
72,1436893649510,46.2554655419422
73,1436893650252,49.6148041547935
74,1436893650987,57.9190649444658
75,1436893651722,61.0060648251667
76,1436893652496,60.9073777820902
77,1436893653221,50.0207677202078
78,1436893653956,51.3686812133855
79,1436893654690,42.9120643244995
80,1436893655429,57.9028257382177
81,1436893656181,54.6538892134003
82,1436893656899,54.8833932707251
83,1436893657683,53.2652587090692
84,1436893658425,61.7871112417513
85,1436893659175,53.6669887577207
86,1436893659917,56.5473120340366
87,1436893660663,59.0065843140103
88,1436893661423,66.5390841753868
89,1436893662091,58.1572725209639
90,1436893662824,51.5296373354125
91,1436893663571,60.0404833066634
92,1436893664324,52.1761735591155
93,1436893665046,56.7430364211946
94,1436893665738,62.9178037112319
95,1436893666419,54.6484595705931
96,1436893667150,47.8925826219532
97,1436893667889,46.769555803246
98,1436893668523,47.041118367536
99,1436893669216,59.8415350898049
100,1436893671184,45.8817533178356
101,1436893671915,56.8648051685783
102,1436893672643,55.3678489564756
103,1436893673375,50.8916139644599
104,1436893674122,60.76655983637
105,1436893674866,60.4651045671333
106,1436893675588,70.7358989535224
107,1436893677131,54.1856762372488
108,1436893677787,48.7916834315649
109,1436893678532,58.8549489224579
110,1436893679291,72.2370420047417
111,1436893680023,59.0377331040175
112,1436893680763,49.8236490726534
113,1436893681497,60.7413473399874
114,1436893682261,66.8227228710984
115,1436893684193,57.4725788284579
116,1436893684845,58.9417449912561
117,1436893685567,60.8308847008339
118,1436893686340,64.3182971925404
119,1436893687100,68.4070252789487
120,1436893689160,56.3916437950529
121,1436893689884,51.8369166089803
122,1436893690601,48.3514356591195
123,1436893691289,58.1822065413701
124,1436893691923,48.8008635068659
125,1436893692642,60.0013120931451
126,1436893693374,46.4926118173344
127,1436893694129,61.3428092123375
128,1436893694885,55.2812031831561
129,1436893695631,46.2456191251361
130,1436893696313,50.5072630198679
131,1436893696977,61.4019785131487
132,1436893697682,48.132675427021
133,1436893698456,57.0503754750968
134,1436893699233,57.9954191511856
135,1436893699976,49.0925925390275
136,1436893700736,50.9666872960154
137,1436893701473,60.294566141804
138,1436893702237,47.1928228124875
139,1436893702943,59.8709557906126
140,1436893703578,58.060851223945
141,1436893704262,55.1663706854382
142,1436893704999,52.8045409537286
143,1436893705740,48.4578737745379
144,1436893706491,48.2888060133965
145,1436893707239,60.4149098364916
146,1436893707871,49.7485830793838
147,1436893708549,62.3033903541628
148,1436893709329,67.9321816699668
149,1436893710052,58.9959523548475
150,1436893710787,53.9294517267265
151,1436893711528,46.7008869672285
152,1436893712149,51.4545141569528
153,1436893712856,50.0501922130191
154,1436893713605,58.3221447558537
155,1436893714334,59.894047902042
156,1436893715085,51.9234725477375
157,1436893715815,55.4127343252379
158,1436893716561,49.9986698666386
159,1436893717270,42.8597256771917
160,1436893717912,49.6839161256416
161,1436893718604,58.7197578127639
162,1436893719339,60.7900010304766
163,1436893720094,46.2795713985085
164,1436893720827,59.7059173966081
165,1436893721552,43.8624514610833
166,1436893722329,57.3955884052191
167,1436893723056,55.9910716498293
168,1436893723676,50.8483098295143
169,1436893724407,62.4797166886346
170,1436893725155,63.1823664358313
171,1436893725834,55.7465449506237
172,1436893726574,44.2162409535489
173,1436893727287,52.7294147121397
174,1436893727944,44.7878450037192
175,1436893728615,53.4904505923598
176,1436893729310,68.0350579583414
177,1436893730039,58.4433786393287
178,1436893730777,50.2542228331522
179,1436893731506,45.0027047705869
180,1436893732366,45.8182419689502
181,1436893733099,46.888631330113
182,1436893733843,57.2477678293293
183,1436893734581,43.5264001399509
184,1436893735317,47.2530882592975
185,1436893736084,46.9390634242784
186,1436893736822,57.8193750674004
187,1436893737540,67.9737618251501
188,1436893738310,62.5522299467308
189,1436893738948,44.1405518894325
190,1436893739667,54.3710057634197
191,1436893740450,53.2177529081919
192,1436893741203,43.1079000741481
193,1436893741946,48.7853024457323
194,1436893742679,51.1518319699987
195,1436893743409,50.3198192493095
196,1436893744155,65.8099435807096
197,1436893744884,50.7460837614036
198,1436893745643,51.9548457701858
199,1436893746412,49.4671056314753
200,1436893747151,46.0574607760548
201,1436893747836,45.9235374511841
202,1436893748523,51.9524646015082
203,1436893749110,55.8101019160648
204,1436893749775,48.6166250057352
205,1436893750511,49.3586235754819
206,1436893751283,58.4712820615459
207,1436893752006,48.4880463068043
208,1436893752711,51.5838829116139
209,1436893753323,60.1768906712061
210,1436893753898,52.1186279143296
211,1436893754461,50.4207808194054
212,1436893755057,58.1103615622031
213,1436893755628,53.9767256541888
214,1436893756295,45.0812608537818
215,1436893757079,50.2384390067091
216,1436893757706,54.8335747438846
217,1436893758262,62.4252653270942
218,1436893758826,43.4525663502226
219,1436893759371,44.3327481723309
220,1436893760760,47.816227533634
221,1436893761503,48.5989653193345
222,1436893762257,65.246434293022
223,1436893763020,55.5447705217825
224,1436893763698,54.4786787867297
225,1436893764242,44.769226556705
226,1436893764789,53.1515798872175
227,1436893765341,49.5574175669771
228,1436893765920,52.9846870879144
229,1436893766613,50.1415142677443
230,1436893767556,55.9952019402947
231,1436893768112,52.088090792474
232,1436893768663,51.6746248788234
233,1436893769233,46.4870235020579
234,1436893769791,45.174544479042
235,1436893771024,42.7208190361524
236,1436893771649,51.8773292105899
237,1436893772332,66.2496946681716
238,1436893772986,54.9562234744793
239,1436893773694,44.3568441794182
240,1436893774306,42.4578238096262
241,1436893774891,53.3061291496719
242,1436893775467,46.9293555605511
243,1436893776015,56.396053307094
244,1436893776615,43.5470862900108
245,1436893777280,62.8094305433412
246,1436893778050,46.7567661347363
247,1436893778713,52.678147956761
248,1436893779277,53.9529734024297
249,1436893779842,46.0360015872587
250,1436893780388,48.6008541504496
251,1436893780933,54.7956281474533
252,1436893782448,47.2538245458534
253,1436893783140,54.7969797026189
254,1436893783834,59.9412725186135
255,1436893784575,50.297255891986
256,1436893785353,52.0943814655739
257,1436893786103,52.3492339236564
258,1436893786902,43.9039959333075
259,1436893787651,48.1911035910205
260,1436893788363,42.9102489403564
261,1436893789117,49.414093061858
262,1436893789812,45.109439387769
263,1436893790549,48.633276907116
264,1436893791290,51.247642703249
265,1436893792090,55.3394830687086
266,1436893792803,53.3740257562527
267,1436893793452,49.3050844769224
268,1436893794101,44.2223295748277
269,1436893794768,58.0238365778049
270,1436893795504,43.2540201032072
271,1436893796280,46.1885130755226
272,1436893797046,44.706600358548
273,1436893797737,52.1284320276447
274,1436893798404,45.4100913284103
275,1436893799138,49.7706334359767
276,1436893799886,45.5876823482208
277,1436893800630,39.8151653390376
278,1436893801370,52.5098190540162
279,1436893802135,50.1854767886994
280,1436893802850,46.5294700823871
281,1436893803474,48.5388302410426
282,1436893804193,48.2456207732285
283,1436893804921,52.3748338968511
284,1436893805676,46.9696258302365
285,1436893806428,67.3375791053157
286,1436893807183,49.3493148592684
287,1436893807904,43.3434007748403
288,1436893808660,46.4324932940749
289,1436893809459,53.116766654143
290,1436893810038,58.2313980445441
291,1436893810702,57.2690093692096
292,1436893811436,43.5651377694608
293,1436893812205,46.1704416142577
294,1436893812915,51.4688035049898
295,1436893813552,51.1233062837098
296,1436893814232,54.7157816943607
297,1436893814937,45.6146516881528
298,1436893815619,47.2238667494447
299,1436893816370,47.3843530951221
300,1436893817091,53.8477099659499
301,1436893817826,52.1772705429099
302,1436893818547,44.5145800356186
303,1436893819284,49.9136521603835
304,1436893820023,55.6614093584297
305,1436893820759,51.4325867381827
306,1436893821522,53.1923555015872
307,1436893822254,61.6488363668721
308,1436893823010,51.2624822676628
309,1436893823735,52.5740516387866
310,1436893824441,42.9476185122967
311,1436893825076,55.4244460359687
312,1436893825765,44.1502532320167
313,1436893826482,66.482329968251
314,1436893827264,64.072261482694
315,1436893828041,46.2178032935004
316,1436893828761,69.2508220069563
317,1436893829490,47.3694379593929
318,1436893830233,49.6123091551667
319,1436893830971,50.0044842146424
320,1436893831622,45.4084946049067
321,1436893832210,46.5242837762883
322,1436893832948,50.1339211092454
323,1436893833678,55.3795294864183
324,1436893834368,62.4489434358163
325,1436893834989,45.8732354065666
326,1436893835694,42.1480846018866
327,1436893836390,52.8622741896042
328,1436893837139,45.907800751568
329,1436893837873,45.3032395361807
330,1436893838604,47.627671213963
331,1436893839367,54.8120575128515
332,1436893840075,56.3475704039357
333,1436893840786,44.272675703441
334,1436893841521,52.2081574430229
335,1436893842302,47.759952613391
336,1436893843022,52.5317394761936
337,1436893843763,47.5693241750324
338,1436893844500,51.3788743154856
339,1436893845256,49.3272794579018
340,1436893845937,46.2121313500408
341,1436893846681,47.6271172159341
342,1436893847407,47.7336249163286
343,1436893848147,65.4041149996575
344,1436893848864,48.7044506820751
345,1436893849592,46.3710369291831
346,1436893850302,38.7554200808526
347,1436893850934,45.2525384320196
348,1436893851538,46.7516696079591
349,1436893852165,55.2448442120435
350,1436893852943,49.4401176613556
351,1436893853676,46.2120954707939
352,1436893854401,47.0213470815941
353,1436893855133,43.7040715023256
354,1436893855790,53.8079531928121
355,1436893856477,45.498517339022
356,1436893857249,45.0388283995953
357,1436893857989,47.0414727836809
358,1436893858709,47.3266599836774
359,1436893859429,56.9737447998101
360,1436893860185,66.6831907462797
361,1436893860911,48.7835795856265
362,1436893861640,50.5877482601999
363,1436893862380,43.0100328414757
364,1436893863120,46.2044783832812
365,1436893863859,44.6355939414525
366,1436893864613,51.3006067681255
367,1436893865361,53.2705118443316
368,1436893866103,48.3728733926755
369,1436893866803,44.8850670636708
370,1436893867508,48.690141503911
371,1436893868276,53.0874351255823
372,1436893869044,46.8541186279175
373,1436893869769,62.9114423671376
374,1436893870476,50.9440389468793
375,1436893871250,51.257664830938
376,1436893871982,47.5866165406505
377,1436893872670,45.378967676034
378,1436893873347,55.0902271379764
379,1436893875418,45.5134147945195
380,1436893876077,47.0465893970771
381,1436893876820,51.7463891753449
382,1436893877508,48.7659132196581
383,1436893878163,50.2066226575096
384,1436893878893,50.3013505589944
385,1436893879640,52.5483818662437
386,1436893880336,44.928770684373
387,1436893880970,55.0179194909349
388,1436893881638,48.4064214668284
389,1436893882399,44.3766725478252
390,1436893883121,44.1453885615231
391,1436893883816,45.9772099330718
392,1436893885256,44.1702570599842
393,1436893885976,46.7607614006398
394,1436893886649,49.9991212974408
395,1436893887337,59.285710190453
396,1436893887945,43.2422376186416
397,1436893888643,52.1619037911305
398,1436893889387,60.2055674392045
399,1436893890150,54.5541649650536
400,1436893890865,49.9603933137016
401,1436893891639,45.6527044665101
402,1436893892415,47.6594816258909
403,1436893893021,47.023779198194
404,1436893893644,45.1861153436726
405,1436893894368,51.6222563134711
406,1436893895111,48.3609127717615
407,1436893895869,47.0157064640012
408,1436893896636,43.082079096225
409,1436893897446,44.1987540275807
410,1436893898153,41.0307214460817
411,1436893898816,54.9751682227731
412,1436893900464,46.2781961580928
413,1436893901116,47.3557545946019
414,1436893901866,43.8607952891444
415,1436893902828,45.3295249625355
416,1436893903418,46.2961848793846
417,1436893904086,51.5909802852931
418,1436893904838,68.5753924804963
419,1436893905575,66.0497971845445
420,1436893906175,46.0338754178159
421,1436893906754,69.8455261590519
422,1436893907337,67.9066167845506
423,1436893908575,51.270325415826
424,1436893909243,46.1923445755206
425,1436893909995,57.8826664048625
426,1436893910588,50.0201402240465
427,1436893911162,58.6811501892957
428,1436893911748,51.0865400663013
429,1436893912379,67.0872433295229
430,1436893914130,47.5722181170162
431,1436893914871,44.7189600486706
432,1436893915615,55.8127194774404
433,1436893916340,64.7782401544111
434,1436893916956,47.8954513924137
435,1436893917520,58.8873094859436
436,1436893918073,45.6385818834357
437,1436893918631,50.361883575263
438,1436893919239,53.4672432597883
439,1436893920034,68.5506900901912
440,1436893920703,47.851166052846
441,1436893921302,42.2342209019767
442,1436893921863,47.8150003090766
443,1436893922441,47.3558790831284
444,1436893922997,56.5721646964336
445,1436893924451,47.5045074134067
446,1436893925188,53.9523735284503
447,1436893925918,49.8997251101101
448,1436893926710,50.6858540730988
449,1436893927374,45.4910506426367
450,1436893927952,58.990054102178
451,1436893928519,45.6649814120196
452,1436893929094,55.2929556737094
453,1436893929655,53.968938880576
454,1436893930335,45.4794187234205
455,1436893931090,48.8515791183916
456,1436893931735,44.8271831028608
457,1436893932315,55.6063019844042
458,1436893932917,45.4108651419487
459,1436893933492,56.8096130740128
460,1436893934051,41.2479803844372
461,1436893935564,54.7697622872106
462,1436893936221,44.6252646392555
463,1436893936950,43.3181032020658
464,1436893937690,53.7663624111062
465,1436893938434,45.4989142804937
466,1436893939167,62.8577376136855
467,1436893939815,57.5946113821713
468,1436893940589,49.4476518561166
469,1436893941343,44.6316664991468
470,1436893942076,43.6230970959191
471,1436893942806,45.61111274966
472,1436893943518,58.1165420329618
473,1436893944247,47.6418189853595
474,1436893944912,50.5351986701629
475,1436893945657,47.5576797117665
476,1436893946390,53.6308099182834
477,1436893947132,69.5793402515996
478,1436893947863,64.2669395065435
479,1436893948600,56.7387454209442
480,1436893949298,50.5539795167301
481,1436893949918,47.5322119035808
482,1436893950657,60.1836076665036
483,1436893951362,46.3599678379712
484,1436893952096,43.0584907121697
485,1436893952838,50.764229059728
486,1436893953569,65.6804892220093
487,1436893954305,65.2159023393517
488,1436893955051,50.2802526771016
489,1436893955767,52.6605177068315
490,1436893956522,49.5952258747531
491,1436893957284,49.2926624225883
492,1436893958015,46.2396546251925
493,1436893958684,54.9081904518811
494,1436893959438,47.686563754975
495,1436893960176,48.9007440646227
496,1436893960914,46.7610701995444
497,1436893961611,46.3172989169414
498,1436893962237,60.6871738922957
499,1436893962967,63.9003620037144
500,1436893963706,67.1438662750336
501,1436893964428,52.7333428478059
502,1436893965199,56.2962112826474
503,1436893965922,54.6929447311497
504,1436893966571,49.0667720520177
505,1436893967221,67.6793627839562
506,1436893967991,62.8832326321772
507,1436893968721,56.8989426602639
508,1436893969465,55.1598650090979
509,1436893970205,52.1264348706206
510,1436893970960,46.9336905131639
511,1436893971663,48.36570342622
512,1436893972400,57.5552248010736
513,1436893973268,52.9740272563844
514,1436893973997,55.2846030643754
515,1436893974737,44.6878439571024
516,1436893975455,47.8447783025438
517,1436893976118,49.4725044459227
518,1436893976894,61.9506145395742
519,1436893977631,59.1254130573894
520,1436893978450,66.8741736123864
521,1436893979101,49.9942646521634
522,1436893979836,47.6714436303693
523,1436893980579,46.6139080435213
524,1436893981314,53.1518052007319
525,1436893981991,57.8292869073948
526,1436893982628,49.540048550859
527,1436893983348,55.6141575551483
528,1436893984050,66.9642606518817
529,1436893984793,69.3961723543338
530,1436893985530,60.4331063440427
531,1436893986295,50.9232044795675
532,1436893986964,52.2755993300255
533,1436893987707,47.4103492762408
534,1436893988490,53.1114909677451
535,1436893989233,50.4167625358428
536,1436893989984,59.8043582724465
537,1436893990730,48.1811361806144
538,1436893991467,47.2848953601824
539,1436893992190,48.4226324459176
540,1436893992813,65.1690116770051
541,1436893993527,58.6337094369086
542,1436893994112,41.800964962836
543,1436893994787,58.9632266033633
544,1436893995509,52.7745266448778
545,1436893996311,49.1583241016409
546,1436893997054,45.8891867627157
547,1436893997765,45.4023714046813
548,1436893998496,47.0971282024099
549,1436893999224,65.5163489284868
550,1436893999981,64.2215065720897
551,1436894000720,47.4979118459053
552,1436894001447,53.6828171921518
553,1436894002195,46.8866848769449
554,1436894002937,44.677692373073
555,1436894003672,45.0526108280902
556,1436894004366,58.3725000725485
557,1436894005090,58.7813029777898
558,1436894005856,55.0752486326228
559,1436894006591,44.550048065934
560,1436894007363,44.7001888120748
561,1436894008093,45.4013230373173
562,1436894008831,47.4616183442456
563,1436894009559,46.1636010200471
564,1436894010301,57.7427548563498
565,1436894011025,64.0998172995644
566,1436894011776,66.1302597765732
567,1436894012588,65.2881184942378
568,1436894013317,45.9449611876088
569,1436894013963,53.3792128952298
570,1436894014558,52.6813785565108
571,1436894015250,49.2793430299573
572,1436894015986,45.144396355761
573,1436894016754,46.178229819025
574,1436894017496,44.6884063954953
575,1436894018125,64.0864243324475
