id,attr_time,attr_x,attr_y,attr_z
1,1436289167422,9.075,-43.402,4.116
2,1436289167441,9.075,-43.402,4.116
3,1436289167461,9.075,-43.402,4.116
4,1436289167481,9.075,-43.402,4.116
5,1436289167502,9.075,-43.402,4.116
6,1436289167523,9.075,-43.402,4.116
7,1436289167543,9.075,-43.402,4.116
8,1436289167562,9.075,-43.402,4.116
9,1436289167581,9.075,-43.402,4.116
10,1436289167664,9.075,-43.402,4.116
11,1436289167665,9.075,-43.402,4.116
12,1436289167666,9.075,-43.402,4.116
13,1436289167671,9.075,-43.402,4.116
14,1436289167681,9.075,-43.402,4.116
15,1436289167701,9.075,-43.402,4.116
16,1436289167721,9.075,-43.402,4.116
17,1436289167742,9.075,-43.402,4.116
18,1436289167762,9.075,-43.402,4.116
19,1436289167783,9.075,-43.402,4.116
20,1436289167801,9.075,-43.402,4.116
21,1436289167822,9.075,-43.402,4.116
22,1436289167845,8.76,-43.402,4.116
23,1436289167861,8.76,-43.402,4.116
24,1436289167883,8.76,-43.402,4.116
25,1436289167903,8.76,-43.402,4.116
26,1436289167921,8.76,-43.402,4.116
27,1436289167942,8.76,-43.402,4.116
28,1436289167962,8.76,-43.402,4.116
29,1436289167984,8.76,-43.402,4.116
30,1436289168007,8.76,-43.402,4.116
31,1436289168022,8.76,-43.402,4.116
32,1436289168043,8.76,-43.402,4.116
33,1436289168062,8.76,-43.402,4.116
34,1436289168082,8.76,-43.402,4.116
35,1436289168102,8.76,-43.402,4.116
36,1436289168122,8.76,-43.402,4.116
37,1436289168143,8.76,-43.402,4.116
38,1436289168164,8.76,-43.402,4.116
39,1436289168185,8.76,-43.402,4.116
40,1436289168206,8.76,-43.402,4.116
41,1436289168225,8.76,-43.402,4.116
42,1436289168243,8.76,-43.402,4.116
43,1436289168263,8.76,-43.402,4.116
44,1436289168281,8.76,-43.402,4.116
45,1436289168304,8.76,-43.402,4.116
46,1436289168325,8.76,-43.402,4.116
47,1436289168401,8.76,-43.402,4.116
48,1436289168402,8.76,-43.402,4.116
49,1436289168403,8.76,-43.402,4.116
50,1436289168404,8.76,-43.402,4.116
51,1436289168422,8.76,-43.402,4.116
52,1436289168443,8.76,-43.402,4.116
53,1436289168462,8.76,-43.402,4.116
54,1436289168482,8.76,-43.402,4.116
55,1436289168502,8.76,-43.402,4.116
56,1436289168522,8.76,-43.402,4.116
57,1436289168548,8.76,-43.402,4.116
58,1436289168564,8.76,-43.402,4.116
59,1436289168624,8.76,-43.402,4.116
60,1436289168635,8.76,-43.402,4.116
61,1436289168636,8.76,-43.402,4.116
62,1436289168642,8.76,-43.077,4.116
63,1436289168662,8.76,-43.077,4.116
64,1436289168682,8.76,-43.077,4.116
65,1436289168702,8.76,-43.077,4.116
66,1436289168722,8.76,-43.077,4.116
67,1436289168742,8.76,-43.077,4.116
68,1436289168762,8.76,-43.077,4.116
69,1436289168782,8.76,-43.077,4.116
70,1436289168802,8.76,-43.077,3.787
71,1436289168822,8.76,-43.077,3.787
72,1436289168842,8.76,-43.077,3.787
73,1436289168862,8.76,-43.077,3.787
74,1436289168882,8.76,-43.077,3.787
75,1436289168902,8.76,-43.077,3.787
76,1436289168922,8.76,-43.077,3.787
77,1436289168942,8.76,-43.077,3.787
78,1436289168962,8.76,-43.077,3.787
79,1436289168983,8.76,-43.077,3.787
80,1436289169003,8.76,-43.077,3.787
81,1436289169023,8.76,-43.077,3.787
82,1436289169067,8.76,-43.077,3.787
83,1436289169068,8.76,-43.077,3.787
84,1436289169082,8.76,-43.077,3.787
85,1436289169101,8.76,-43.077,3.787
86,1436289169121,8.76,-43.077,3.787
87,1436289169143,8.76,-43.077,3.787
88,1436289169163,8.76,-43.077,3.448
89,1436289169182,8.76,-43.077,3.448
90,1436289169203,8.76,-43.077,3.448
91,1436289169225,8.76,-43.077,3.448
92,1436289169245,8.76,-43.077,3.448
93,1436289169264,8.76,-43.077,3.448
94,1436289169281,8.76,-43.077,3.448
95,1436289169303,8.76,-43.077,3.448
96,1436289169322,8.76,-43.077,3.448
97,1436289169345,8.76,-43.077,3.448
98,1436289169363,8.76,-43.077,3.448
99,1436289169385,8.76,-43.077,3.448
100,1436289169403,8.76,-43.077,3.448
101,1436289169423,8.76,-43.077,3.448
102,1436289169444,8.76,-43.077,3.448
103,1436289169466,8.76,-43.077,3.448
104,1436289169482,8.76,-43.077,3.448
105,1436289169503,8.76,-43.077,3.448
106,1436289169525,8.76,-43.077,3.448
107,1436289169542,8.76,-43.077,3.448
108,1436289169564,8.76,-43.077,3.448
109,1436289169587,8.76,-43.077,3.448
110,1436289169605,8.76,-43.077,3.448
111,1436289169625,8.76,-43.077,3.448
112,1436289169645,8.76,-43.077,3.448
113,1436289169664,8.76,-43.077,3.448
114,1436289169790,8.76,-43.077,3.448
115,1436289169791,8.76,-43.077,3.448
116,1436289169792,8.76,-43.077,3.448
117,1436289169793,8.76,-43.077,3.448
118,1436289169794,8.76,-43.077,3.448
119,1436289169795,8.76,-43.077,3.448
120,1436289169804,8.76,-43.077,3.448
121,1436289169823,8.76,-43.077,3.448
122,1436289169860,8.76,-43.077,3.448
123,1436289169862,8.76,-43.077,3.448
124,1436289169909,8.76,-43.077,3.448
125,1436289169913,8.76,-43.077,3.448
126,1436289169937,8.76,-43.077,3.448
127,1436289169943,8.76,-43.077,3.448
128,1436289169963,8.76,-43.077,3.448
129,1436289169983,8.76,-43.077,3.448
130,1436289170003,8.76,-43.077,3.448
131,1436289170022,8.76,-43.077,3.448
132,1436289170049,8.76,-43.077,3.448
133,1436289170062,8.76,-43.077,3.448
134,1436289170082,8.76,-43.077,3.448
135,1436289170104,8.76,-43.077,3.448
136,1436289170126,8.76,-43.077,3.448
137,1436289170144,8.76,-43.077,3.448
138,1436289170166,8.76,-43.077,3.448
139,1436289170189,8.76,-43.077,3.448
140,1436289170203,8.76,-43.077,3.448
141,1436289170223,8.76,-43.077,3.448
142,1436289170245,8.76,-43.077,3.448
143,1436289170266,8.76,-43.077,3.749
144,1436289170283,8.76,-43.077,3.749
145,1436289170303,8.76,-43.077,3.749
146,1436289170326,8.76,-43.077,3.749
147,1436289170346,8.76,-43.077,3.749
148,1436289170366,8.76,-43.077,3.749
149,1436289170383,8.76,-43.077,3.749
150,1436289170408,8.76,-43.077,3.749
151,1436289170437,8.76,-43.077,3.749
152,1436289170443,8.76,-43.077,3.749
153,1436289170464,8.76,-43.077,3.749
154,1436289170486,8.76,-43.077,3.749
155,1436289170503,8.76,-43.077,3.749
156,1436289170523,8.76,-43.077,4.067
157,1436289170547,8.76,-43.077,4.067
158,1436289170564,8.76,-43.077,4.067
159,1436289170584,8.76,-43.077,4.067
160,1436289170607,8.76,-43.077,4.067
161,1436289170627,8.76,-43.077,4.067
162,1436289170643,8.76,-43.077,4.067
163,1436289170664,8.76,-43.077,4.067
164,1436289170687,8.76,-43.399,4.067
165,1436289170707,8.76,-43.399,4.067
166,1436289170727,8.76,-43.399,4.067
167,1436289170747,8.76,-43.399,4.067
168,1436289170767,8.76,-43.399,4.067
169,1436289170786,8.76,-43.399,4.067
170,1436289170804,8.76,-43.399,4.067
171,1436289170827,8.76,-43.399,4.067
172,1436289170847,8.76,-43.399,4.067
173,1436289170867,8.76,-43.399,4.067
174,1436289170888,8.76,-43.399,4.067
175,1436289170906,8.76,-43.399,4.067
176,1436289170927,8.76,-43.399,4.067
177,1436289170947,8.76,-43.399,4.067
178,1436289170967,8.76,-43.399,4.067
179,1436289170985,8.76,-43.399,4.067
180,1436289171008,8.76,-43.399,4.067
181,1436289171027,8.76,-43.399,4.067
182,1436289171048,8.76,-43.399,4.067
183,1436289171065,8.76,-43.399,4.067
184,1436289171134,8.76,-43.399,4.067
185,1436289171147,8.76,-43.399,4.067
186,1436289171148,8.76,-43.399,4.067
187,1436289171149,8.76,-43.399,4.067
188,1436289171164,8.76,-43.399,4.067
189,1436289171191,8.76,-43.399,4.067
190,1436289171206,8.76,-43.399,4.067
191,1436289171224,8.76,-43.399,4.067
192,1436289171247,8.76,-43.399,4.067
193,1436289171271,8.76,-43.399,4.067
194,1436289171284,8.76,-43.399,4.067
195,1436289171305,8.76,-43.399,4.067
196,1436289171340,8.76,-43.399,4.067
197,1436289171344,8.76,-43.399,4.067
198,1436289171364,8.76,-43.399,4.067
199,1436289171384,8.76,-43.399,4.067
200,1436289171404,8.76,-43.399,4.067
201,1436289171424,8.76,-43.399,4.067
202,1436289171447,8.76,-43.399,4.067
203,1436289171467,8.76,-43.399,4.067
204,1436289171484,8.76,-43.399,4.067
205,1436289171505,8.76,-43.399,4.067
206,1436289171523,8.76,-43.399,4.067
207,1436289171546,8.76,-43.399,4.067
208,1436289171566,8.76,-43.399,4.067
209,1436289171587,8.76,-43.399,4.067
210,1436289171632,8.76,-43.399,4.067
211,1436289171633,8.76,-43.399,4.067
212,1436289171647,8.76,-43.399,4.377
213,1436289171666,8.76,-43.399,4.377
214,1436289171686,8.76,-43.399,4.377
215,1436289171706,8.76,-43.399,4.377
216,1436289171727,8.76,-43.399,4.377
217,1436289171747,8.76,-43.399,4.377
218,1436289171767,8.76,-43.399,4.377
219,1436289171785,8.76,-43.399,4.377
220,1436289171811,8.76,-43.399,4.377
221,1436289171847,8.76,-43.399,4.377
222,1436289171848,8.76,-43.399,4.377
223,1436289171864,8.76,-43.399,4.377
224,1436289171884,8.76,-43.399,4.377
225,1436289171904,8.76,-43.399,4.377
226,1436289171926,8.76,-43.399,4.377
227,1436289171946,8.76,-43.399,4.377
228,1436289171965,8.76,-43.399,4.377
229,1436289171985,8.76,-43.399,4.377
230,1436289172009,8.76,-43.399,4.377
231,1436289172027,8.76,-43.399,4.377
232,1436289172049,8.76,-43.399,4.377
233,1436289172068,8.76,-43.399,4.377
234,1436289172088,8.76,-43.399,4.377
235,1436289172108,8.76,-43.399,4.377
236,1436289172128,8.76,-43.399,4.377
237,1436289172148,8.76,-43.399,4.377
238,1436289172168,8.76,-43.399,4.377
239,1436289172192,8.76,-43.399,4.377
240,1436289172208,8.76,-43.399,4.377
241,1436289172229,8.76,-43.399,4.377
242,1436289172248,8.76,-43.399,4.377
243,1436289172275,8.76,-43.399,4.377
244,1436289172286,8.76,-43.399,4.377
245,1436289172309,8.76,-43.399,4.377
246,1436289172332,8.76,-43.399,4.377
247,1436289172373,8.76,-43.399,4.377
248,1436289172374,8.76,-43.399,4.377
249,1436289172432,8.76,-43.399,4.377
250,1436289172433,8.76,-43.399,4.377
251,1436289172434,8.76,-43.399,4.377
252,1436289172447,8.76,-43.399,4.377
253,1436289172475,8.76,-43.399,4.377
254,1436289172508,8.76,-43.399,4.377
255,1436289172509,8.76,-43.399,4.377
256,1436289172540,8.76,-43.399,4.377
257,1436289172547,8.76,-43.399,4.377
258,1436289172567,8.76,-43.399,4.377
259,1436289172586,8.76,-43.399,4.377
260,1436289172608,8.76,-43.074,4.377
261,1436289172626,8.76,-43.074,4.377
262,1436289172648,8.76,-43.074,4.377
263,1436289172683,8.76,-43.074,4.377
264,1436289172686,8.76,-43.074,4.377
265,1436289172713,8.76,-43.074,4.377
266,1436289172726,8.76,-43.074,4.377
267,1436289172752,8.76,-43.074,4.377
268,1436289172768,8.76,-43.074,4.377
269,1436289172789,8.76,-43.074,4.377
270,1436289172808,8.76,-43.074,4.377
271,1436289172829,8.76,-43.074,4.377
272,1436289172848,8.76,-43.074,4.377
273,1436289172868,8.76,-43.074,4.377
274,1436289172886,8.76,-43.074,4.377
275,1436289172906,8.76,-43.074,4.377
276,1436289172930,8.76,-43.074,4.06
277,1436289172947,8.76,-43.074,4.06
278,1436289172969,8.76,-43.074,4.06
279,1436289172988,8.76,-43.074,4.06
280,1436289173009,8.76,-43.074,4.06
281,1436289173029,8.76,-43.074,4.06
282,1436289173048,8.76,-43.074,4.06
283,1436289173068,8.76,-43.074,4.06
284,1436289173086,8.76,-43.074,4.06
285,1436289173109,8.76,-43.382,4.06
286,1436289173128,8.76,-43.382,4.06
287,1436289173148,8.76,-43.382,4.06
288,1436289173168,8.76,-43.382,4.06
289,1436289173187,8.76,-43.382,4.06
290,1436289173207,8.76,-43.382,4.06
291,1436289173281,8.76,-43.382,4.06
292,1436289173282,8.76,-43.382,4.06
293,1436289173283,8.76,-43.382,4.06
294,1436289173290,8.76,-43.382,4.06
295,1436289173306,8.76,-43.382,4.06
296,1436289173330,8.76,-43.382,4.06
297,1436289173349,8.76,-43.382,4.06
298,1436289173368,8.76,-43.382,3.758
299,1436289173401,8.76,-43.382,3.758
300,1436289173407,8.76,-43.382,3.758
301,1436289173427,8.76,-43.382,3.758
302,1436289173448,8.76,-43.382,3.758
303,1436289173471,8.76,-43.382,3.758
304,1436289173487,8.76,-43.382,3.758
305,1436289173510,8.76,-43.382,3.758
306,1436289173530,8.76,-43.382,3.758
307,1436289173550,8.76,-43.382,3.758
308,1436289173569,8.76,-43.382,3.758
309,1436289173587,8.76,-43.382,3.758
310,1436289173610,8.76,-43.382,3.758
311,1436289173630,8.76,-43.382,3.758
312,1436289173650,8.76,-43.382,3.758
313,1436289173668,8.76,-43.382,3.758
314,1436289173688,8.76,-43.382,3.758
315,1436289173710,8.76,-43.382,3.758
316,1436289173729,8.76,-43.382,3.758
317,1436289173747,8.76,-43.382,3.758
318,1436289173768,8.76,-43.382,3.758
319,1436289173792,8.76,-43.382,4.067
320,1436289173811,8.76,-43.382,4.067
321,1436289173832,8.76,-43.382,4.067
322,1436289173850,8.76,-43.382,4.067
323,1436289173868,8.76,-43.382,4.067
324,1436289173888,8.76,-43.382,4.067
325,1436289173908,8.76,-43.382,4.067
326,1436289173928,8.76,-43.382,4.067
327,1436289173954,8.76,-43.382,4.067
328,1436289174003,8.76,-43.382,4.067
329,1436289174004,8.76,-43.382,4.067
330,1436289174016,8.76,-43.382,4.067
331,1436289174027,8.76,-43.382,4.067
332,1436289174048,8.76,-43.382,4.067
333,1436289174067,8.76,-43.382,4.067
334,1436289174087,8.76,-43.382,4.067
335,1436289174109,8.76,-43.382,4.067
336,1436289174129,8.76,-43.382,4.067
337,1436289174148,8.76,-43.382,4.067
338,1436289174168,8.76,-43.382,4.067
339,1436289174193,8.76,-43.382,4.067
340,1436289174208,8.456,-43.382,4.067
341,1436289174227,8.456,-43.382,4.067
342,1436289174250,8.456,-43.382,4.067
343,1436289174271,8.456,-43.382,4.067
344,1436289174290,8.456,-43.382,4.067
345,1436289174311,8.456,-43.382,4.067
346,1436289174331,8.456,-43.382,4.067
347,1436289174350,8.456,-43.009,4.067
348,1436289174370,8.456,-43.009,4.067
349,1436289174391,8.456,-43.009,4.067
350,1436289174411,8.456,-43.009,4.067
351,1436289174427,8.456,-43.009,4.067
352,1436289174451,8.456,-43.009,4.067
353,1436289174468,8.456,-43.009,4.067
354,1436289174487,8.456,-42.681,4.067
355,1436289174508,8.456,-42.681,4.067
356,1436289174534,8.456,-42.681,4.067
357,1436289174553,8.456,-42.681,4.067
358,1436289174573,8.456,-42.681,4.067
359,1436289174588,8.456,-42.681,4.067
360,1436289174608,8.456,-42.681,4.067
361,1436289174629,8.456,-42.681,4.067
362,1436289174648,8.456,-42.681,4.067
363,1436289174668,8.456,-42.681,4.067
364,1436289174772,8.456,-42.681,4.067
365,1436289174773,8.456,-42.681,4.067
366,1436289174774,8.456,-42.681,4.067
367,1436289174775,8.456,-42.681,4.067
368,1436289174776,8.456,-42.681,4.067
369,1436289174788,8.456,-42.681,4.067
370,1436289174808,8.456,-42.681,4.067
371,1436289174828,8.456,-42.988,4.067
372,1436289174848,8.456,-42.988,4.067
373,1436289174871,8.456,-42.988,4.067
374,1436289174889,8.456,-42.988,4.067
375,1436289174909,8.456,-42.988,4.067
376,1436289174930,8.456,-42.988,4.067
377,1436289174958,8.456,-42.988,4.067
378,1436289174969,8.456,-42.988,4.067
379,1436289174991,8.456,-43.299,4.067
380,1436289175011,8.456,-43.299,4.067
381,1436289175030,8.456,-43.299,4.067
382,1436289175051,8.456,-43.299,4.067
383,1436289175071,8.456,-43.299,4.067
384,1436289175091,8.456,-43.299,4.067
385,1436289175111,8.456,-43.299,4.067
386,1436289175130,8.456,-43.299,4.067
387,1436289175148,8.764,-43.299,4.067
388,1436289175170,8.764,-43.299,4.067
389,1436289175191,8.764,-43.299,4.067
390,1436289175209,8.764,-43.299,4.067
391,1436289175228,8.764,-43.299,4.067
392,1436289175250,8.764,-43.299,4.067
393,1436289175272,8.764,-43.299,4.067
394,1436289175292,8.764,-43.299,4.067
395,1436289175313,8.764,-43.299,4.067
396,1436289175332,8.764,-43.299,4.067
397,1436289175349,8.764,-43.299,3.715
398,1436289175369,8.764,-43.299,3.715
399,1436289175391,8.764,-43.299,3.715
400,1436289175409,8.764,-43.299,3.715
401,1436289175482,8.764,-43.299,3.715
402,1436289175483,8.764,-43.299,3.715
403,1436289175488,8.764,-43.299,3.715
404,1436289175489,8.764,-43.299,3.715
405,1436289175508,8.764,-43.299,3.715
406,1436289175528,8.764,-43.299,3.715
407,1436289175550,8.399,-43.299,3.715
408,1436289175568,8.399,-43.299,3.715
409,1436289175592,8.399,-43.299,3.715
410,1436289175608,8.399,-43.299,4.512
411,1436289175629,8.097,-43.299,5.828
412,1436289175654,8.097,-43.299,6.692
413,1436289175669,8.097,-43.299,7.391
414,1436289175691,8.097,-43.299,8.361
415,1436289175712,7.727,-43.299,9.037
416,1436289175732,7.727,-43.299,9.512
417,1436289175750,7.727,-43.299,10.214
418,1436289175771,7.727,-43.299,11.351
419,1436289175791,7.308,-42.984,12.347
420,1436289175811,7.308,-42.984,12.763
421,1436289175832,7.308,-42.984,13.388
422,1436289175849,6.857,-42.984,13.978
423,1436289175871,6.857,-42.646,14.337
424,1436289175891,6.486,-42.646,14.909
425,1436289175912,6.486,-42.346,15.382
426,1436289175932,5.653,-42.346,16.159
427,1436289175949,5.264,-42.021,16.752
428,1436289175971,4.624,-42.021,17.599
429,1436289175992,4.624,-41.56,17.599
430,1436289176014,4.096,-41.149,18.267
431,1436289176031,4.096,-41.149,19.207
432,1436289176052,4.096,-41.149,19.818
433,1436289176071,4.096,-40.682,19.818
434,1436289176091,3.752,-40.682,20.965
435,1436289176111,3.752,-40.682,20.965
436,1436289176131,3.752,-40.682,21.31
437,1436289176161,3.752,-40.292,21.31
438,1436289176218,3.752,-40.292,21.31
439,1436289176219,3.442,-40.292,20.788
440,1436289176220,3.442,-39.933,19.47
441,1436289176230,3.137,-39.933,17.758
442,1436289176249,3.137,-39.933,17.172
443,1436289176273,3.137,-39.933,17.498
444,1436289176290,3.137,-39.933,16.738
445,1436289176309,4.687,-39.933,17.131
446,1436289176330,5.612,-39.933,18.144
447,1436289176349,5.612,-39.933,19.645
448,1436289176372,5.612,-39.933,21.609
449,1436289176390,5.194,-39.933,23.628
450,1436289176412,4.432,-39.164,26.292
451,1436289176439,3.492,-37.75,27.299
452,1436289176489,2.751,-37.016,27.299
453,1436289176490,2.183,-37.016,28.45
454,1436289176491,1.396,-35.992,28.053
455,1436289176509,1.396,-36.315,27.154
456,1436289176531,1.396,-36.848,25.308
457,1436289176552,2.25,-37.644,23.435
458,1436289176571,3.182,-38.516,21.624
459,1436289176591,3.182,-39.424,19.389
460,1436289176613,2.587,-40.403,17.231
461,1436289176633,1.707,-41.018,14.282
462,1436289176653,2.459,-41.549,11.505
463,1436289176671,4.968,-41.549,9.403
464,1436289176691,7.627,-42.439,4.667
465,1436289176711,10.746,-42.001,-0.306
466,1436289176733,12.612,-41.015,-4.458
467,1436289176754,13.761,-40.354,-9.458
468,1436289176774,13.761,-39.657,-14.343
469,1436289176792,12.452,-39.111,-16.528
470,1436289176810,11.941,-39.111,-16.215
471,1436289176829,12.457,-39.756,-15.168
472,1436289176851,13.298,-40.2,-12.008
473,1436289176870,14.234,-40.2,-9.153
474,1436289176890,14.968,-40.782,-6.484
475,1436289176930,14.968,-40.782,-3.756
476,1436289176931,14.968,-40.782,-2.532
477,1436289176950,13.934,-40.782,-2.185
478,1436289176970,13.934,-41.13,-0.894
479,1436289176990,14.384,-41.13,0.759
480,1436289177010,13.081,-41.13,1.123
481,1436289177030,11.174,-41.13,0.746
482,1436289177050,9.959,-41.465,2.423
483,1436289177074,9.068,-41.465,5.18
484,1436289177092,6.187,-41.465,7.192
485,1436289177110,2.352,-42.056,7.783
486,1436289177130,0.593,-42.056,10.447
487,1436289177152,1.275,-42.056,14.567
488,1436289177173,2.357,-41.47,18.473
489,1436289177192,2.932,-40.951,22.929
490,1436289177213,2.359,-39.331,25.967
491,1436289177233,1.176,-37.458,28.738
492,1436289177253,0.157,-35.791,30.181
493,1436289177273,-0.404,-34.506,30.57
494,1436289177290,-1.704,-34.506,30.57
495,1436289177312,-2.668,-35.414,28.842
496,1436289177333,-2.668,-36.575,27.528
497,1436289177352,-2.03,-37.979,25.033
498,1436289177374,-0.621,-39.36,22.39
499,1436289177390,0.662,-40.463,18.559
500,1436289177410,1.411,-41.667,14.375
501,1436289177433,3.103,-42.359,13.227
502,1436289177451,4.045,-42.015,12.174
503,1436289177472,7.299,-42.015,10.125
504,1436289177494,12.564,-41.297,7.278
505,1436289177513,16.438,-40.422,0.895
506,1436289177587,18.914,-39.294,-3.855
507,1436289177588,20.491,-38.038,-9.988
508,1436289177589,19.271,-37.164,-14.506
509,1436289177590,18.721,-36.805,-16.331
510,1436289177631,18.721,-37.329,-15.339
511,1436289177632,18.721,-37.715,-12.054
512,1436289177753,18.721,-38.476,-7.913
513,1436289177754,18.721,-38.951,-5.807
514,1436289177755,18.402,-38.951,-3.642
515,1436289177787,17.851,-38.951,-1.084
516,1436289177788,17.851,-39.329,0.024
517,1436289177798,16.787,-39.744,0.474
518,1436289177799,17.431,-39.744,2.825
519,1436289177800,16.142,-40.121,1.885
520,1436289177881,13.76,-40.121,3.746
521,1436289177882,12.686,-40.611,4.699
522,1436289177883,10.578,-40.611,6.956
523,1436289177884,6.024,-40.982,9.472
524,1436289177947,1.782,-40.982,12.684
525,1436289177948,0.738,-40.982,16.336
526,1436289177950,0.738,-40.126,19.512
527,1436289177951,0.738,-39.527,22.81
528,1436289177971,-0.039,-38.314,25.877
529,1436289177991,-1.068,-37.394,27.818
530,1436289178011,-2.2,-36.264,29.655
531,1436289178031,-2.618,-35.856,29.655
532,1436289178051,-3.431,-35.533,29.655
533,1436289178071,-3.901,-36.189,28.605
