id,attr_time,attr_db
1,1436548932493,32.6455394707403
2,1436548933224,31.7046441993085
3,1436548933949,30.2517834061431
4,1436548934641,29.1963142085187
5,1436548935402,38.0126226433196
6,1436548936172,31.2661634198528
7,1436548936885,48.3395718145667
8,1436548937629,62.6246440735861
9,1436548938356,63.706112923094
10,1436548938989,39.690187973106
11,1436548939684,42.781846231253
12,1436548940411,67.2544450997604
13,1436548941144,57.6033318378525
14,1436548941950,47.1065501991674
15,1436548942687,38.8684851266617
16,1436548943407,40.8781745826497
17,1436548944151,61.2258464449637
18,1436548944812,28.824251054411
19,1436548945560,28.9459390884013
20,1436548946287,34.8230247652317
21,1436548946875,27.8357307455659
22,1436548947549,34.5443443407742
23,1436548948289,31.9454369391532
24,1436548949030,29.8921489493943
25,1436548949770,27.9420407522489
26,1436548950511,32.7683367539725
27,1436548951263,28.8970404213856
28,1436548951998,29.2666471500296
29,1436548952737,34.6895100279548
30,1436548953459,31.5372934746722
31,1436548954212,34.0920152047703
32,1436548954870,34.2518886912627
33,1436548955589,30.9540249840696
34,1436548956349,28.8770130946839
35,1436548957060,34.4731439537372
36,1436548957741,30.9382294176761
37,1436548958478,33.905388522439
38,1436548959220,42.294025215968
39,1436548959987,35.2898277449118
40,1436548960726,33.6865458945221
41,1436548961463,31.5843139608473
42,1436548962208,34.0903873777606
43,1436548962943,35.8353589305306
44,1436548963681,38.6984503812712
45,1436548964407,28.3158254179255
46,1436548965146,57.7959086081583
47,1436548965823,32.8641690198929
48,1436548966527,28.8401284836352
49,1436548967214,63.2941634276776
50,1436548967876,41.6092569722809
51,1436548968603,56.0863146273327
52,1436548969329,28.391536833201
53,1436548970089,42.2411317595825
54,1436548970809,50.0039169586152
55,1436548971530,42.6478279989384
56,1436548972180,26.095922571203
57,1436548972916,26.4715799332311
58,1436548973647,26.1318717063451
59,1436548974374,42.5853490777202
60,1436548975124,41.6134139031479
61,1436548975767,32.2234564791385
62,1436548976444,31.0813908489765
63,1436548977203,35.3759823367644
64,1436548977959,58.2973219569417
65,1436548978654,40.7256768210463
66,1436548979399,31.0786854194934
67,1436548980131,48.032538258072
68,1436548980861,30.0563162577205
69,1436548981594,56.1006857925043
70,1436548982321,34.0565071513005
71,1436548983064,37.2215033967755
72,1436548983797,43.7543530666672
73,1436548984472,45.1352403305481
74,1436548985155,44.8979434794779
75,1436548985882,51.7513876668831
76,1436548986656,41.287017003463
77,1436548987425,47.3331408086392
78,1436548988073,56.5595863033637
79,1436548988809,47.0305290266139
80,1436548989561,41.2131062254502
81,1436548990304,42.4215992216236
82,1436548991046,60.3894051945405
83,1436548991785,32.9023077620144
84,1436548992415,33.2442993856638
85,1436548993088,40.0772471673074
86,1436548995000,38.2769154900981
87,1436548995668,30.6033385995827
88,1436548996458,40.7676598597649
89,1436548997221,31.9803350761388
90,1436548997949,58.4800120563269
91,1436548998648,37.8464869655913
92,1436548999371,45.0676572385212
93,1436549001297,32.5486575142858
94,1436549001924,41.5897787537969
95,1436549002624,35.6561631859291
96,1436549003346,60.8433336783244
97,1436549004120,54.4652841843276
98,1436549004855,31.1502973163541
99,1436549005585,45.8575406658806
100,1436549006355,29.838942342003
101,1436549007869,30.8315396410817
102,1436549008445,27.927157850503
103,1436549009104,55.3331606596918
104,1436549009856,46.8378815200744
105,1436549010589,36.1909305663222
106,1436549011319,48.6297676481721
107,1436549013216,60.4585786301173
108,1436549013954,65.2434626537074
109,1436549014698,50.1285437250979
110,1436549015438,33.5588328770574
111,1436549016182,36.4399166362955
112,1436549016825,58.2981015639081
113,1436549017504,55.7106067520568
114,1436549018291,57.019050373914
115,1436549019005,40.979382862244
116,1436549019698,51.8035551633096
117,1436549020438,57.5796469133579
118,1436549021162,49.1978913610339
119,1436549021895,30.4548652778974
120,1436549022653,33.9281345306654
121,1436549023381,65.1602633420788
122,1436549024127,50.8270863420982
123,1436549024853,43.1896530274224
124,1436549025588,37.9239873714272
125,1436549026300,40.3642679103594
126,1436549026931,49.5866057374931
127,1436549027656,45.2874377212642
128,1436549028461,47.6584054598019
129,1436549029115,45.9355107951158
130,1436549029836,49.9689193656405
131,1436549030573,34.0380144385756
132,1436549031301,47.7165887879706
133,1436549032026,58.1447196730408
134,1436549032752,31.0429872037899
135,1436549033522,58.0032870037976
136,1436549034211,43.9101886343693
137,1436549034957,52.7608428063121
138,1436549035696,58.2504189245872
139,1436549036375,34.9242438333012
140,1436549036992,45.635231773415
141,1436549037696,59.0532633283636
142,1436549038444,51.534175074519
143,1436549039071,45.8106187251302
144,1436549039789,52.8974244812957
145,1436549040509,46.0062361945188
146,1436549041285,47.056280120445
147,1436549042013,35.0760542334234
148,1436549042791,48.1707191462801
149,1436549043490,70.5952547096345
150,1436549044157,60.092166819201
151,1436549044931,57.5136381522639
152,1436549045638,38.4133550655536
153,1436549046408,64.2294666094285
154,1436549047164,34.2090718689149
155,1436549047817,64.939199865192
156,1436549048551,53.3757419406328
157,1436549049319,35.9313886660311
158,1436549049987,33.6389731279235
159,1436549050668,51.1716083244578
160,1436549051448,60.0675310455793
161,1436549052157,39.7624893306553
162,1436549052798,37.2521557310466
163,1436549053489,73.9847180710561
164,1436549054244,48.525698202245
165,1436549055025,58.9604410546
166,1436549055825,50.4951926045861
167,1436549056403,54.9314684054274
168,1436549056954,63.7649442839766
169,1436549057505,68.5018329037766
170,1436549058073,59.1237997161628
171,1436549058784,39.6639550300462
172,1436549059571,67.1639753532851
173,1436549060208,66.9460036789258
174,1436549060786,61.579135177707
175,1436549061366,60.4371561650525
176,1436549061946,58.5305980519604
177,1436549062519,64.3080475215808
178,1436549064078,60.4264449876002
179,1436549064806,64.0572976412373
180,1436549065542,61.8991654602064
181,1436549066362,45.3441675343229
182,1436549067142,48.0135198457539
183,1436549067744,66.3848628399618
184,1436549068293,70.1063888226028
185,1436549068843,50.3426078468745
186,1436549069425,59.5880570559483
187,1436549070079,64.6600408177824
188,1436549070736,42.5827621461969
189,1436549071406,62.8998961628126
190,1436549071975,41.8852884242239
191,1436549072525,63.0450564477111
192,1436549073109,58.2875450841717
193,1436549074436,69.259184916436
194,1436549075079,55.2048281972554
195,1436549075851,64.0869366466632
196,1436549076593,60.5207967956227
197,1436549077306,62.4560552354299
198,1436549077934,40.4414185674576
199,1436549078540,70.1750475034487
200,1436549079112,67.6553628159536
201,1436549079657,60.9063656540058
202,1436549080225,42.1026777840117
203,1436549080886,71.3291287245208
204,1436549081653,44.4733089072431
205,1436549082371,62.8507254397283
206,1436549082946,55.6406443660433
207,1436549083481,64.0651159576566
208,1436549084054,62.2600553494079
209,1436549084623,66.9736171223477
210,1436549086066,68.3605877697908
211,1436549086777,40.460699677663
212,1436549087524,70.1191515258467
213,1436549088269,62.7323600332801
214,1436549088910,65.7161026601829
215,1436549089621,64.8224157445519
216,1436549090380,37.0833288425853
217,1436549091031,58.3159021058897
218,1436549091763,63.7173039589833
219,1436549092564,37.9505406663393
220,1436549093300,37.7363068687948
221,1436549094028,66.4513241106872
222,1436549094786,63.5011895830233
223,1436549095505,54.1762507293687
224,1436549096270,59.9426358297044
225,1436549097028,70.7809464843916
226,1436549097788,51.8875726812392
227,1436549098513,62.1337895523545
228,1436549099162,35.2226849684591
229,1436549099936,56.5451458472932
230,1436549100630,60.9903963343813
231,1436549101391,60.8838939520673
232,1436549102141,30.2296823948786
233,1436549102877,70.0846138751756
234,1436549103641,62.055306486966
235,1436549104372,53.0347114174901
236,1436549105103,28.1769883883924
237,1436549105834,35.8341982239647
238,1436549106634,57.9551135412952
239,1436549107364,35.5135656451057
240,1436549108050,54.2198850709681
241,1436549108659,33.6728334040968
242,1436549109401,69.4851395023203
243,1436549110129,70.9308304886553
244,1436549110794,62.2380429456685
245,1436549111539,37.9778032345544
246,1436549112297,55.3191294508265
247,1436549113243,37.4040173531106
248,1436549113909,56.1726808615567
249,1436549114584,51.7423645159158
250,1436549115234,47.7011642436926
251,1436549115950,37.5679098072928
252,1436549116750,28.5782126818553
253,1436549117502,28.4283857210771
254,1436549118245,51.8147458875542
255,1436549118895,50.556598772929
256,1436549119650,62.384634670417
257,1436549120436,56.7196497553058
258,1436549121053,40.5012658109771
259,1436549121827,28.7437423820817
260,1436549122643,35.6263426146081
261,1436549123366,46.4597075896663
262,1436549124090,30.9708370296189
263,1436549124823,43.3789631812354
264,1436549125549,36.457510703026
265,1436549126281,30.2546615223839
266,1436549127014,61.6252582748636
267,1436549127719,46.1371386811243
268,1436549128481,62.5619583629078
269,1436549129228,41.1310870360465
270,1436549129898,59.9044214776131
271,1436549130636,37.2463467895013
272,1436549131379,31.654382536252
273,1436549132000,56.3399976156158
274,1436549132708,48.6006190665257
275,1436549133440,33.5381094874974
276,1436549134171,64.9758866280802
277,1436549134897,45.5733449470937
278,1436549135621,57.9878952431944
279,1436549136360,59.2484360356705
280,1436549137116,59.2257093124661
281,1436549137834,44.35785523715
282,1436549138570,43.1281327641687
283,1436549139299,62.604759100852
284,1436549139961,41.4659961892594
285,1436549140702,32.3302530456682
286,1436549141435,38.1420915823588
287,1436549142082,31.0308851005027
288,1436549142823,43.2193216107418
289,1436549143553,52.6998417999376
290,1436549144288,38.4949366582587
291,1436549144985,46.4074081019163
292,1436549145654,59.7234263045396
293,1436549146394,54.3773698540638
294,1436549147121,58.2816654262711
295,1436549147858,34.7129216907758
296,1436549148592,42.5745831524983
297,1436549149329,63.1171114405295
298,1436549149984,39.0024929284996
299,1436549150730,38.3097428948395
300,1436549151462,60.1015270740726
301,1436549152104,57.1116131349655
302,1436549152854,52.9402518039318
303,1436549153506,33.6044223048103
304,1436549154215,36.3069286815145
305,1436549154947,62.9258309815202
306,1436549155692,43.5647430424222
307,1436549156414,58.1114619721563
308,1436549157087,54.3145571908212
309,1436549157792,44.6089348741618
310,1436549158526,47.8331452754319
311,1436549159264,34.2077345654727
312,1436549159911,37.3412106936794
313,1436549160624,52.2126737165803
314,1436549161375,46.2530435940121
315,1436549162039,61.7246211433026
316,1436549162762,56.3822252318917
317,1436549163519,58.3000275633954
318,1436549164266,50.2673971681311
319,1436549165004,38.797329819772
320,1436549165730,54.369842273075
321,1436549166472,54.1042883459929
322,1436549167210,61.6996404083695
323,1436549167903,54.4537688497662
324,1436549168562,53.7940744014203
325,1436549169285,33.8342737315117
326,1436549170018,37.4804480360607
327,1436549170729,64.0499332677099
328,1436549171503,36.4520365119963
329,1436549172272,33.330368663375
330,1436549172977,37.6580282176459
331,1436549173606,32.1165494596519
332,1436549174198,29.0063825537033
333,1436549174906,32.6657046024673
334,1436549175645,38.2181111258091
335,1436549176393,31.630223492128
336,1436549177179,44.2169761472682
337,1436549177914,42.1566996604029
338,1436549178669,36.153683872321
339,1436549179381,46.5924450621094
340,1436549180019,35.4434157074556
341,1436549180739,31.9604119771176
342,1436549181434,29.2612829740346
343,1436549182052,60.1705589234001
344,1436549182788,40.0760882006636
345,1436549183535,53.1585769135214
346,1436549184304,47.0795105012927
347,1436549185030,56.2260688995919
348,1436549185749,37.3662318267357
349,1436549186448,33.436837762654
350,1436549187235,37.0874901644816
351,1436549187972,46.2575961218794
352,1436549188697,48.4633092160493
353,1436549189433,30.6323952056743
354,1436549190161,28.9298633352435
355,1436549190815,54.6323301152945
356,1436549191494,32.1573013170556
357,1436549192149,53.9993069660694
358,1436549192880,32.9075864629948
359,1436549193561,31.8210967889004
360,1436549194281,26.1663733858674
361,1436549195025,52.858651153694
362,1436549195762,33.2099018852541
363,1436549196486,29.4855411703366
364,1436549197299,31.5077280503388
365,1436549199033,29.6131375518518
366,1436549199721,57.2594203864615
367,1436549200385,58.2349507310303
368,1436549201031,36.3078544742108
369,1436549201766,31.678509061315
370,1436549202529,41.249374897357
371,1436549203190,31.5367682232534
372,1436549203915,46.5244713487525
373,1436549204620,58.0041157687217
374,1436549205253,49.9799930682731
375,1436549206003,36.2255913264641
376,1436549206742,33.0988036039287
377,1436549207471,33.4017055036241
378,1436549208188,57.3051022817542
379,1436549209589,59.0496232763607
380,1436549210143,58.1271225898104
381,1436549210710,36.1286209737921
382,1436549211316,29.4828232884677
383,1436549211994,32.4595032757293
384,1436549212823,29.1925626815184
385,1436549213643,43.8398133083455
386,1436549214304,41.8942379801921
387,1436549214925,44.4479960110242
388,1436549215502,36.4453013839037
389,1436549216064,32.7133055498582
390,1436549216623,31.6915937787997
391,1436549218191,31.4037182992523
392,1436549218929,36.0150474680519
393,1436549219581,34.0529289955493
394,1436549220314,34.7927152560289
395,1436549221076,35.0282981776782
396,1436549221706,54.051987846257
397,1436549222384,41.8152073478962
398,1436549223194,55.0861035482912
399,1436549224697,51.657346579322
400,1436549225254,35.1192624286004
401,1436549225864,51.0281235112354
402,1436549226617,58.8934856171938
403,1436549227352,58.9522604720271
404,1436549228111,36.2852515842861
405,1436549228691,39.7883227937679
406,1436549229266,36.9988386209706
407,1436549229820,37.6444188861222
408,1436549230384,45.9480976346903
409,1436549232787,45.546320106624
410,1436549233505,36.2850320102032
411,1436549234105,34.7100753011145
412,1436549234817,37.0860521539098
413,1436549235392,38.3398401102257
414,1436549235959,39.689915311142
415,1436549236541,32.3744099374528
416,1436549237139,47.8282992636033
417,1436549237859,55.9799985611371
418,1436549238643,43.4959742800198
419,1436549239320,49.9118541595879
420,1436549239901,34.1070227305226
421,1436549240451,28.4557408361798
422,1436549241004,31.6410845926446
423,1436549241572,39.045748585863
424,1436549243100,31.7749483508472
425,1436549243850,32.1504229127303
426,1436549244595,32.8884771668407
427,1436549245323,51.6177961454724
428,1436549246045,40.5181917048481
429,1436549246779,31.5422296564544
430,1436549247522,32.4351942572246
431,1436549248263,45.7789625208795
432,1436549249011,33.3687509644422
433,1436549249759,31.6263008433177
434,1436549250489,58.1501451601315
435,1436549251221,33.6042764163313
436,1436549251858,54.1824809594702
437,1436549252635,44.6676048222782
438,1436549253422,30.8745230863636
439,1436549254052,56.8749520865458
440,1436549254768,43.9161709188268
441,1436549255516,54.0553793097906
442,1436549256248,29.0211407910655
443,1436549256985,54.6275080383143
444,1436549257731,56.1640388372384
445,1436549258462,50.6735997865217
446,1436549259140,42.4885832805581
447,1436549259870,44.3983524150863
448,1436549260617,29.2731484970528
449,1436549261338,47.0459693173257
450,1436549262073,49.5076427940818
451,1436549262761,47.6278098120536
452,1436549263485,52.6501337760502
453,1436549264221,49.7398410859782
454,1436549264892,33.2238352384741
455,1436549265637,37.9381295789493
456,1436549266372,33.0212999318011
457,1436549267116,30.4319529947033
458,1436549267855,47.694448537266
459,1436549268630,35.0838446239882
460,1436549269373,53.3992879238649
461,1436549270129,31.2238387396116
462,1436549270870,43.6509798858039
463,1436549271652,59.3626223511804
464,1436549272320,53.7282784300056
465,1436549273060,37.1625406407608
466,1436549273922,31.5302971641533
467,1436549274474,31.5977716303077
468,1436549275179,66.112871934726
469,1436549275844,35.3131523346683
470,1436549276431,37.8742217483058
471,1436549277122,49.2225859514721
472,1436549277841,50.8857132440744
473,1436549278478,38.1833513040686
474,1436549279187,29.4370309401369
475,1436549279928,25.1938916091985
476,1436549280661,27.0547493514646
477,1436549281401,55.2440074635314
478,1436549282133,59.0917767526583
479,1436549282772,49.7612804478389
480,1436549283442,45.9483338436808
481,1436549284156,37.6531273770954
482,1436549284755,30.5584215762704
483,1436549285440,58.9448789029137
484,1436549286176,58.6300138515811
485,1436549286916,37.2527319930346
486,1436549287647,31.4118212326716
487,1436549288389,29.1027633747015
488,1436549289139,61.1161372884299
489,1436549289809,54.8213082628507
490,1436549290535,30.983350253476
491,1436549291279,50.0673886676503
492,1436549292013,39.3659510668357
493,1436549292705,64.3764196959313
494,1436549293458,54.7247439139504
495,1436549294200,33.7028967292333
496,1436549294801,60.5255356617132
497,1436549295454,43.685844430814
498,1436549296215,49.6578735478296
499,1436549296940,50.9259861066394
500,1436549297685,42.5937037727497
501,1436549298437,61.0849811736762
502,1436549299179,62.0375219419402
503,1436549299954,48.1509894689003
504,1436549300681,37.6816269701281
505,1436549301428,31.0519955864874
506,1436549302160,38.426940998936
507,1436549302881,33.0150965025714
508,1436549303594,32.1124811049227
509,1436549304298,42.581082946358
510,1436549305074,36.7574773988986
511,1436549305713,45.3014972307597
512,1436549306453,43.7652803822016
513,1436549307167,30.3226563063138
514,1436549307931,29.0423837469669
515,1436549308711,30.4798849619547
516,1436549309456,33.4953318595218
517,1436549310189,32.0864338904409
518,1436549310951,54.497575482146
519,1436549311674,37.487064246694
520,1436549312411,46.2216897131284
521,1436549313050,39.1862956535977
522,1436549313752,62.8427554780583
523,1436549314478,57.112496083393
524,1436549315227,59.79138836282
525,1436549315899,58.3991890121634
526,1436549316642,38.2607635598475
527,1436549317377,65.5361247812717
528,1436549318118,58.1938394361345
529,1436549318885,65.4213933023358
530,1436549319652,60.539720606337
531,1436549320383,51.2718820352738
532,1436549321121,46.248717036357
533,1436549321853,59.0329412393866
534,1436549322598,67.0996842590956
535,1436549323311,36.4096406292974
536,1436549323961,37.024258554156
537,1436549324654,67.0932153688157
538,1436549325423,48.3532953588023
539,1436549326083,57.7578418414257
540,1436549326813,43.0227102609735
541,1436549327575,36.6635633927313
542,1436549328321,61.4662680054659
543,1436549329080,58.6697821892646
544,1436549329825,59.7434355544083
545,1436549330548,37.1791451894558
546,1436549331284,38.7457672870232
547,1436549332034,51.839706728754
548,1436549332769,35.752523390914
549,1436549333485,36.3123445108041
550,1436549334146,69.6372771674213
551,1436549334930,39.7568309825824
552,1436549335522,33.4267326453585
553,1436549336223,38.7471304896063
554,1436549337006,45.9315598337294
555,1436549337740,63.0152906066176
556,1436549338524,41.0169741306574
557,1436549339208,41.5755698565216
558,1436549339956,33.4730172917923
559,1436549340678,44.9740466962582
560,1436549341418,57.5299262065082
561,1436549342195,48.3985579438903
562,1436549342948,50.9989282635439
563,1436549343674,60.9035202715956
564,1436549344314,56.0082978583228
565,1436549344945,54.2972564198949
566,1436549345645,36.2048040745301
567,1436549346403,48.8505486329738
568,1436549347116,33.2912991461148
569,1436549347852,33.8226799571088
570,1436549348595,42.7050457006233
571,1436549349358,43.0221938700891
572,1436549350118,61.0815470548959
573,1436549350758,55.8452037040973
574,1436549351416,47.0360547072979
575,1436549352205,49.1889610232255
