id,attr_time,attr_db
1,1436548932101,39.4114238431027
2,1436548932588,29.316928654982
3,1436548933179,28.6576513152344
4,1436548933658,24.5565147980572
5,1436548934214,25.3824555473703
6,1436548934676,52.1023618160563
7,1436548935122,25.3712406024086
8,1436548935610,46.4611690282503
9,1436548936084,25.1247924899085
10,1436548936581,25.0341811192975
11,1436548937074,26.8401163508142
12,1436548937577,44.9919911408669
13,1436548938130,51.415743161254
14,1436548938634,53.9029999821647
15,1436548939126,63.5861650278304
16,1436548939576,34.820654551502
17,1436548940068,36.1664294455752
18,1436548940511,42.9562627793739
19,1436548940912,58.8057121212915
20,1436548941369,59.7174653739461
21,1436548941863,70.2745843181003
22,1436548942332,60.4376064928746
23,1436548942724,62.3062690445325
24,1436548943173,44.0889109075365
25,1436548943600,42.6495282156454
26,1436548944070,59.0130953141127
27,1436548944547,65.3506946803818
28,1436548945048,42.0446875215901
29,1436548945552,34.0189426358302
30,1436548946039,24.7513387972976
31,1436548946545,32.5035433857587
32,1436548947029,27.3840191509766
33,1436548947593,34.1884406095365
34,1436548948041,30.0468435760067
35,1436548948507,38.647222643157
36,1436548949014,31.5481289796096
37,1436548949512,37.2424423894748
38,1436548950006,28.0524084687168
39,1436548950447,27.5010025126861
40,1436548950829,36.8463875597525
41,1436548951230,48.4958853675431
42,1436548951699,53.8845686293212
43,1436548952168,35.7886855017475
44,1436548952677,33.6781792752224
45,1436548953211,46.4837929555153
46,1436548953716,30.3308195695697
47,1436548954181,33.5006770635338
48,1436548954732,30.8665081849915
49,1436548955079,28.2339797334799
50,1436548955593,29.611574627072
51,1436548956103,30.4442734914322
52,1436548956604,29.740419460002
53,1436548957088,30.0771176431122
54,1436548957576,29.5886662843044
55,1436548958075,28.7660824049122
56,1436548958645,30.9448900806153
57,1436548959116,33.7420600382349
58,1436548959610,39.8774617040316
59,1436548960095,37.9442229619964
60,1436548960599,34.697659087761
61,1436548961032,33.3082263903648
62,1436548961405,35.2770192129801
63,1436548961809,34.784304931182
64,1436548962276,33.4849793989197
65,1436548962800,31.1904072123432
66,1436548963277,34.5954703063289
67,1436548963752,32.2966558096915
68,1436548964205,40.0704681062354
69,1436548964686,30.4024735535732
70,1436548965158,40.8740939455227
71,1436548965647,53.9116684597102
72,1436548966137,50.8556802372462
73,1436548966608,42.6577543778441
74,1436548967022,28.1024760062822
75,1436548967474,40.9768099611497
76,1436548967964,70.887252551296
77,1436548968435,29.3764244476148
78,1436548968926,60.6124773497624
79,1436548969426,34.7678590755496
80,1436548969907,30.9167116131502
81,1436548970407,27.961840380431
82,1436548970894,47.6883493330289
83,1436548971397,49.4764943343629
84,1436548971844,49.4978648755878
85,1436548972292,29.0019681103804
86,1436548972766,25.7038874927646
87,1436548973246,27.596985134704
88,1436548973727,27.8650960997469
89,1436548974207,23.7278493981199
90,1436548974689,60.1084900327347
91,1436548975167,32.8409414065218
92,1436548975647,39.1937277575274
93,1436548976133,28.0661742392773
94,1436548976619,48.3623523655911
95,1436548977127,29.6812895716564
96,1436548977695,38.7136118315142
97,1436548978037,34.5140916132918
98,1436548978415,51.3848862506022
99,1436548978869,56.3195137006638
100,1436548979332,42.0746299881391
101,1436548979752,29.1644450966765
102,1436548980197,56.0397943901411
103,1436548980686,46.7432094797822
104,1436548981184,36.9390533379669
105,1436548981647,33.3611606701459
106,1436548982038,48.6937497429819
107,1436548982476,40.780050799342
108,1436548982944,30.7263596930054
109,1436548983518,33.7790043600628
110,1436548983977,38.0175979658538
111,1436548984498,49.8498037009108
112,1436548984971,43.526358223899
113,1436548985479,39.684779251208
114,1436548985972,41.1656193403942
115,1436548986487,57.384634971609
116,1436548986962,31.5043964603359
117,1436548989072,33.1974003765903
118,1436548989544,38.276548521684
119,1436548990045,50.8804188917271
120,1436548990548,42.9631271294671
121,1436548991058,45.6533074698813
122,1436548991548,54.6785987985265
123,1436548992026,28.8533075279275
124,1436548992428,32.071771737479
125,1436548992877,30.8942044654932
126,1436548993349,39.7151901190521
127,1436548993820,30.8663683873553
128,1436548994305,32.8032693220328
129,1436548994787,30.3794433450614
130,1436548995269,38.4565620231496
131,1436548995758,33.1916444304547
132,1436548996227,38.0118930619302
133,1436548996701,49.5062355320648
134,1436548997178,28.7750591024838
135,1436548997699,29.6316875240724
136,1436548998973,30.4961808596254
137,1436548999333,31.4008854254364
138,1436548999730,55.7002051992188
139,1436549000202,46.5549806704136
140,1436549000722,27.312594496491
141,1436549001222,36.1180363970747
142,1436549001675,48.3246530404013
143,1436549002079,59.1614914863222
144,1436549002522,38.0667439866169
145,1436549002969,35.460571201746
146,1436549003446,30.4213657314563
147,1436549003924,58.5386431660797
148,1436549004411,32.2797049380882
149,1436549004946,38.5119345913483
150,1436549005400,46.8237777831494
151,1436549005848,48.159213095618
152,1436549006321,39.6797149941023
153,1436549006782,27.5848039383034
154,1436549007232,30.2539295929151
155,1436549007702,45.0090038407542
156,1436549008114,31.8878727498133
157,1436549008535,33.3147887426811
158,1436549008992,25.9084290399306
159,1436549009496,49.5684335057818
160,1436549009983,50.2605026987101
161,1436549010487,44.1951463673285
162,1436549011015,36.8798909208469
163,1436549011496,46.7921547652803
164,1436549011967,31.0138897391393
165,1436549012417,30.666540262834
166,1436549014102,41.0777671616729
167,1436549014528,59.1915480726731
168,1436549014999,35.5451914655821
169,1436549015506,46.7364295927405
170,1436549016009,34.4414987041689
171,1436549016540,34.5265306737115
172,1436549017016,48.2543793303922
173,1436549017550,32.3171765720761
174,1436549017955,48.6078720261132
175,1436549018401,45.7998531033335
176,1436549018875,45.5274970575385
177,1436549019380,59.1080551495744
178,1436549019842,47.9131106395072
179,1436549020333,58.0284720178476
180,1436549020836,46.429814426844
181,1436549021306,44.3794205956418
182,1436549023038,53.5013689939219
183,1436549023481,52.7727712183763
184,1436549023935,62.0467660533828
185,1436549024413,67.7141489167474
186,1436549024887,66.9357689138697
187,1436549025352,58.3397361483558
188,1436549025816,55.8342325822611
189,1436549026253,36.2572630933179
190,1436549026625,46.4477519840007
191,1436549027010,50.9881426223392
192,1436549027455,52.0706248167446
193,1436549027921,59.8498315837745
194,1436549028388,47.2769782978475
195,1436549028838,53.430825584632
196,1436549029319,41.6975213640698
197,1436549029791,43.7867747846551
198,1436549030309,47.4158941354938
199,1436549030825,34.3355349865218
200,1436549031327,43.3325805933462
201,1436549031827,47.5994431840438
202,1436549032348,35.4791033824992
203,1436549032809,31.0982700117419
204,1436549033208,52.4607427809677
205,1436549033698,58.9804895663722
206,1436549034181,59.1571972066812
207,1436549034646,38.1387680594951
208,1436549035120,33.781374361574
209,1436549035606,54.5771676040641
210,1436549036093,57.262579668953
211,1436549036603,47.0568942026718
212,1436549037054,53.4881330163907
213,1436549037552,49.8566586657526
214,1436549038084,51.9608758598129
215,1436549038582,49.072373586323
216,1436549039059,50.6206707025746
217,1436549039549,43.0041788967202
218,1436549040041,56.1364767269185
219,1436549040542,50.3069890227419
220,1436549041024,54.8386170514639
221,1436549041496,53.0468081367501
222,1436549042003,35.9020512727986
223,1436549043081,32.4436974474121
224,1436549043448,71.0035381517971
225,1436549043804,47.4355409124396
226,1436549044262,68.4492639323982
227,1436549044724,68.7815856667101
228,1436549045180,59.2653592511487
229,1436549045671,34.5840555560508
230,1436549046145,39.4431555008026
231,1436549046653,36.4718859003392
232,1436549047072,52.2281489980844
233,1436549047537,36.5045167705652
234,1436549047978,36.1498244680213
235,1436549048446,64.7824889507298
236,1436549048798,60.7986936860224
237,1436549049243,52.1517918518286
238,1436549049736,37.1327420809036
239,1436549050244,36.2962736594027
240,1436549050744,62.7564193092389
241,1436549051244,39.0349761398581
242,1436549051746,39.9826738002009
243,1436549052208,66.2079890738084
244,1436549052711,38.5397620808619
245,1436549053207,37.9712882053743
246,1436549053609,37.3446114647029
247,1436549054058,69.2690368922511
248,1436549054482,57.7217297065212
249,1436549054934,40.9467205217875
250,1436549055384,66.2716712920412
251,1436549055858,61.2367011050912
252,1436549056329,47.2323988986403
253,1436549056781,41.3742745804167
254,1436549057245,41.521350539819
255,1436549057706,64.6765495125479
256,1436549058181,45.2375285167571
257,1436549058638,68.5202087095674
258,1436549059072,45.9734011426495
259,1436549059538,40.0240322968079
260,1436549060034,69.7791562318918
261,1436549060534,48.9680535627847
262,1436549061035,56.3940400422934
263,1436549061534,66.4670065319854
264,1436549062026,65.0612666416555
265,1436549062504,51.2199261127736
266,1436549062987,67.7600449492873
267,1436549063458,66.7861719705667
268,1436549063972,42.7329466130114
269,1436549064344,56.4504091426147
270,1436549064804,50.7308978603151
271,1436549065297,65.6444509155753
272,1436549065777,45.5216004761487
273,1436549066258,54.1124421697017
274,1436549066769,46.3096452271436
275,1436549067229,46.0910139300626
276,1436549067721,43.7488968503297
277,1436549068086,44.4707471023806
278,1436549068465,66.0645040780817
279,1436549068918,55.1716890772373
280,1436549069358,49.453410094994
281,1436549069823,67.9454064418071
282,1436549070325,70.2108685795983
283,1436549070802,57.8793707033178
284,1436549071294,45.1905743977183
285,1436549071787,66.3347924181952
286,1436549072285,42.9917995692331
287,1436549072785,59.9654654174503
288,1436549073296,64.5924111418246
289,1436549073774,56.8185407524353
290,1436549074155,64.5584958906999
291,1436549074569,51.9207144221986
292,1436549075043,59.7940187992834
293,1436549075556,50.6243211463313
294,1436549076025,53.473456067273
295,1436549076498,65.6646462050437
296,1436549076942,71.0396761590926
297,1436549077394,42.4511434348886
298,1436549077939,48.0882644712496
299,1436549078417,39.8943943686474
300,1436549078900,64.3647892815636
301,1436549079386,67.052870081893
302,1436549079862,49.5221379269157
303,1436549080335,57.4444759794239
304,1436549080828,39.4994343883169
305,1436549081307,67.2058066745759
306,1436549081793,42.9201817805983
307,1436549082297,53.5547811156471
308,1436549082776,66.3107731976195
309,1436549083309,52.3302379288497
310,1436549083788,45.7964634485152
311,1436549084194,65.2490826762384
312,1436549084622,62.7719825200538
313,1436549085085,67.0168602847672
314,1436549085599,58.0652819160314
315,1436549086086,65.0058536189458
316,1436549086589,67.2472819419311
317,1436549087081,44.0645522844736
318,1436549087672,43.7377164433618
319,1436549088129,46.204260411378
320,1436549088796,63.2751130908996
321,1436549089182,65.3887062993562
322,1436549089512,46.1659619593647
323,1436549089948,66.5248850834206
324,1436549090420,38.0263880967412
325,1436549090904,37.260034692158
326,1436549091410,65.8325565620021
327,1436549091899,64.9557737834469
328,1436549092383,55.3566303220476
329,1436549092884,37.3596603082374
330,1436549093383,34.7936480333897
331,1436549093855,41.8758591618499
332,1436549094346,59.0085018407708
333,1436549094819,67.2974592234526
334,1436549095236,63.7257256418338
335,1436549095701,65.4155404542033
336,1436549096165,32.9191890645854
337,1436549096649,63.9275910896638
338,1436549097143,40.2686550748714
339,1436549097712,60.7541181395365
340,1436549098260,46.0981337792263
341,1436549098758,60.8359120803829
342,1436549099162,62.9235205086165
343,1436549099630,34.4713215940735
344,1436549100099,43.5904198382318
345,1436549100552,65.5815763473482
346,1436549100954,40.5571506911577
347,1436549101364,36.5884059618085
348,1436549101820,55.3362414014669
349,1436549102294,60.4466539420761
350,1436549102844,67.2235838548248
351,1436549103340,67.6178869428197
352,1436549103802,38.9068140793258
353,1436549104187,62.5157900928136
354,1436549104629,61.6689112499302
355,1436549105111,31.3362585452626
356,1436549105619,28.5209787876483
357,1436549106125,45.815073436764
358,1436549106629,70.5399931067117
359,1436549107082,51.5668818428702
360,1436549107538,64.6679466438968
361,1436549108086,53.0656824236448
362,1436549108575,52.2474834071712
363,1436549109023,29.3183767580146
364,1436549109413,59.7476128304645
365,1436549109832,69.0426047799645
366,1436549110328,57.209770258233
367,1436549110825,64.3795376716584
368,1436549111302,45.6544654853687
369,1436549111805,34.9022464745337
370,1436549112329,28.6586974447009
371,1436549112875,44.0897740531677
372,1436549113349,57.5813611049352
373,1436549113832,44.1746882113692
374,1436549114325,52.4776935156795
375,1436549114711,45.485286951488
376,1436549115142,47.4475601447278
377,1436549115606,51.0201432925362
378,1436549116115,50.5546613696424
379,1436549116616,33.1744051918981
380,1436549117094,54.4415644695308
381,1436549117598,60.3428751824403
382,1436549118020,40.8289460387106
383,1436549118493,42.7783557892129
384,1436549118967,57.4796167725252
385,1436549119448,45.6379397605788
386,1436549119918,41.3718026921869
387,1436549120418,47.1440489032154
388,1436549120921,49.7986386258019
389,1436549121420,48.3812590730492
390,1436549121904,47.3940276730267
391,1436549122387,44.9976561239769
392,1436549122914,50.4847667205996
393,1436549123416,39.2569772159482
394,1436549123913,39.203209273836
395,1436549124396,27.8918787081053
396,1436549124900,37.0977539009494
397,1436549125295,43.0988169921037
398,1436549125722,58.1789075366687
399,1436549126192,49.1850040804555
400,1436549126675,35.2038163602478
401,1436549127159,47.6251628170845
402,1436549127656,46.0803608156974
403,1436549128182,42.967221537253
404,1436549128667,49.3257772246085
405,1436549129082,51.2902288954951
406,1436549129512,33.8518133101434
407,1436549129980,49.7717897338014
408,1436549130468,47.3291959819857
409,1436549130957,51.0604424117418
410,1436549131431,54.5711367858246
411,1436549131905,34.2667139445847
412,1436549132385,55.9789695786963
413,1436549132948,58.1734998929184
414,1436549133445,42.5806008252612
415,1436549133950,33.2997631338105
416,1436549134435,43.0654678635357
417,1436549134828,49.1899317655012
418,1436549135273,44.3315005103124
419,1436549135745,44.0600150146546
420,1436549136233,38.5282486736884
421,1436549136725,47.3364474845214
422,1436549137233,39.6303282543504
423,1436549137726,48.9932239621331
424,1436549138230,47.0506940770147
425,1436549138691,50.4801416270198
426,1436549139119,47.7666910059735
427,1436549139636,37.029572005649
428,1436549140109,33.85138687277
429,1436549140590,44.4241909352018
430,1436549141076,34.3984592202184
431,1436549141581,39.458822668348
432,1436549142081,44.943543498088
433,1436549142579,31.6048825660767
434,1436549143147,32.8943710242465
435,1436549143596,47.1386785100828
436,1436549144056,43.8320445404644
437,1436549144555,38.8270803735248
438,1436549145045,45.3686892269514
439,1436549145505,55.557539384863
440,1436549145891,41.3065419755266
441,1436549146314,51.9211802148355
442,1436549146796,47.0756578982433
443,1436549147297,42.2138495654984
444,1436549147782,41.8222113141273
445,1436549148327,34.1671390695261
446,1436549148780,37.0129271111225
447,1436549149210,48.6977709782037
448,1436549149691,49.8550885372201
449,1436549150187,49.1070272514157
450,1436549150658,37.904499802178
451,1436549151151,40.353635334829
452,1436549151644,51.0508677778066
453,1436549152138,46.7960667919491
454,1436549152629,56.1180174264558
455,1436549153130,41.7749157684457
456,1436549153632,43.3888932255997
457,1436549154076,37.0464410696832
458,1436549154464,57.3790864320836
459,1436549154892,42.2327818242774
460,1436549155315,49.9860663142977
461,1436549155775,57.7669515289524
462,1436549156247,46.998190179789
463,1436549156748,48.1479533140746
464,1436549157250,50.4502203343212
465,1436549157716,40.1967273846015
466,1436549158183,50.803807029138
467,1436549158656,36.2771069092792
468,1436549159135,53.4971779802152
469,1436549159624,41.5420279590995
470,1436549160120,37.7726284661094
471,1436549160606,38.6715752949213
472,1436549160987,47.4114299925477
473,1436549161419,45.4462753821235
474,1436549161887,47.5526439890982
475,1436549162383,54.0117151130924
476,1436549162839,45.5793952661569
477,1436549163346,52.9441398779291
478,1436549163840,46.7472002207453
479,1436549164333,44.4446319696559
480,1436549164836,41.8178693972644
481,1436549165334,35.9096680791102
482,1436549165811,57.4214235262496
483,1436549166247,53.4834163349569
484,1436549166688,32.3002522392673
485,1436549167167,54.8400525150458
486,1436549167663,54.8197526602011
487,1436549168165,36.5243355275756
488,1436549168645,51.9471068139789
489,1436549169159,45.110297473999
490,1436549169660,35.5202800427876
491,1436549170030,58.6106623843788
492,1436549170390,40.5154250895597
493,1436549170847,61.5855288133785
494,1436549171320,57.7652949652635
495,1436549171832,38.0782636262973
496,1436549172328,33.589395169708
497,1436549172823,32.8507842103951
498,1436549173311,57.1086915186092
499,1436549173749,50.1089753893802
500,1436549174219,32.1130610122687
501,1436549174704,32.1349380195126
502,1436549175199,29.4956954402333
503,1436549175677,48.7925414848473
504,1436549176145,47.6299462855633
505,1436549176529,46.2960426842635
506,1436549176936,30.1842741060463
507,1436549177404,26.552750606557
508,1436549177883,31.7004119858249
509,1436549178353,42.7133291159198
510,1436549178827,36.2468210484727
511,1436549179338,37.322921604594
512,1436549179805,42.5660679429106
513,1436549180281,42.0160790419447
514,1436549180780,35.8542670660834
515,1436549181122,33.885560390747
516,1436549181560,32.7240386539571
517,1436549181998,32.6328716474445
518,1436549182468,50.5684869470667
519,1436549182915,31.3747064792824
520,1436549183389,29.2066659841794
521,1436549183881,39.9383288174137
522,1436549184379,47.758278610876
523,1436549184857,49.5337927367061
524,1436549185295,45.7786921823958
525,1436549185692,48.118536993116
526,1436549186104,36.3540459999628
527,1436549186575,33.8176550028517
528,1436549187066,35.2280463807498
529,1436549187585,36.241845780036
530,1436549188067,36.0560787486298
531,1436549188649,47.1308552949433
532,1436549189104,55.0705041381065
533,1436549189591,41.9837198840735
534,1436549190027,31.7585448022601
535,1436549190509,34.1485659000844
536,1436549190968,30.9424924375586
537,1436549191409,54.9452750162798
538,1436549192935,46.2988448873085
539,1436549193363,31.1583377793722
540,1436549193843,33.1081611602418
541,1436549194338,33.562224740797
542,1436549194838,32.2863962749324
543,1436549195344,45.5700912300768
544,1436549195837,47.5284802463018
545,1436549196341,32.4545757699067
546,1436549196802,32.4685419105253
547,1436549197226,34.8298115705759
548,1436549197696,29.9372437952304
549,1436549198210,28.7971867450521
550,1436549198707,27.9563093965464
551,1436549199204,39.3470170643671
552,1436549199709,32.7129717243298
553,1436549200154,48.009482227927
554,1436549200626,57.1990527018999
555,1436549201109,47.8876703221975
556,1436549201621,31.4069863840914
557,1436549202119,41.7344908585425
558,1436549202620,30.0759979160007
559,1436549203119,43.1151565061388
560,1436549203680,31.9884060216023
561,1436549204194,29.7110392294167
562,1436549204698,34.0502406741536
563,1436549205177,49.3563259360985
564,1436549205664,47.5088871722263
565,1436549207453,35.5482468163602
566,1436549207919,32.3627097981008
567,1436549208391,37.4158179801692
568,1436549208884,52.9416522665586
569,1436549209378,47.9557077080518
570,1436549209850,32.942094185792
571,1436549210301,52.0161824022735
572,1436549210740,46.9540412452309
573,1436549211238,47.6333014388859
574,1436549211682,37.4265462151976
575,1436549212166,35.9570159788968
