id,attr_time,attr_db
1,1437229794177,25.5916469681357
2,1437229794838,17.3579249140031
3,1437229795596,19.1368976416593
4,1437229796335,16.7713170542365
5,1437229797044,41.643793908644
6,1437229797767,39.9950034079385
7,1437229798478,24.503391185528
8,1437229799154,51.9446434073252
9,1437229799886,57.2228792331954
10,1437229800631,35.1655534072868
11,1437229801370,35.9139717738413
12,1437229802092,38.0086015041249
13,1437229802853,41.1404804350846
14,1437229803584,42.3955667675095
15,1437229804317,17.4452121230116
16,1437229805009,26.9647063516042
17,1437229805747,36.8621985999906
18,1437229806475,18.4773789297323
19,1437229807232,20.2100935123771
20,1437229808003,25.1198924724992
21,1437229808724,54.2995126187488
22,1437229809361,35.1636942295837
23,1437229810059,36.8470283070741
24,1437229810792,29.0279910252725
25,1437229811470,32.0279564936994
26,1437229812199,32.8152036235978
27,1437229812880,48.4195468773589
28,1437229813608,28.9267765096471
29,1437229814348,24.8903341771348
30,1437229815036,50.3368943306428
31,1437229815767,32.6521979957114
32,1437229816515,29.2625130757392
33,1437229817241,62.0125000384085
34,1437229817979,41.5865681311169
35,1437229818671,40.7487532933878
36,1437229819390,27.355101823478
37,1437229820100,44.140360181338
38,1437229820803,27.0979183892269
39,1437229821546,48.7425400404256
40,1437229822270,57.5160437545401
41,1437229823012,56.2703211580389
42,1437229823767,50.4284476630668
43,1437229824567,34.7854123150791
44,1437229825289,24.2200635233995
45,1437229825973,59.2214589002777
46,1437229826718,35.0341036853794
47,1437229827438,24.6743701496445
48,1437229828160,52.6013474563993
49,1437229828992,26.3587743729099
50,1437229829730,63.7969559640004
51,1437229830430,27.8555453176995
52,1437229831105,63.8972095026185
53,1437229831735,68.4934239475879
54,1437229832434,43.3493037922438
55,1437229833155,57.5188515303132
56,1437229833892,57.4734913842947
57,1437229834702,61.7878081373039
58,1437229835412,65.0701866713039
59,1437229836014,60.3888150068533
60,1437229836689,23.8077711688759
61,1437229837409,27.580687592772
62,1437229838186,28.8275869012163
63,1437229838912,40.5445932737949
64,1437229839701,45.2530528882018
65,1437229840415,26.7343031093892
66,1437229841146,64.3162014502136
67,1437229841869,33.0669729986715
68,1437229842544,63.3309750663576
69,1437229843286,26.6691430972375
70,1437229844074,28.369604749902
71,1437229844823,26.1645641607228
72,1437229845527,43.2049660027337
73,1437229846249,47.8893715608554
74,1437229847000,41.4874110189353
75,1437229847721,36.8229642403742
76,1437229848537,48.8783938285734
77,1437229849207,58.1251480040149
78,1437229849951,47.9109735609224
79,1437229850615,25.129050997457
80,1437229851281,24.4486468121409
81,1437229852015,28.8656239621141
82,1437229852733,64.7297731530676
83,1437229853466,45.1687027604913
84,1437229854197,33.4843793731552
85,1437229854931,58.9452700093549
86,1437229855645,39.9877008685626
87,1437229856328,30.0532099778264
88,1437229857057,36.6485201437484
89,1437229857794,58.6898950689259
90,1437229858522,61.869746718975
91,1437229859268,33.3754188131448
92,1437229859997,48.6189617454398
93,1437229860742,55.1102902799665
94,1437229861456,35.3071626474578
95,1437229862109,24.4115249779278
96,1437229862833,23.3060887985114
97,1437229863563,48.871352738135
98,1437229864285,34.1284609613745
99,1437229865001,23.4147826982675
100,1437229865744,38.3730763290781
101,1437229866433,56.5711569794709
102,1437229867164,21.1034985460275
103,1437229867863,48.7921866955242
104,1437229868574,44.9121632223266
105,1437229869199,39.4679416025272
106,1437229869952,58.905259066421
107,1437229870749,37.0440685071692
108,1437229871482,41.0682875870654
109,1437229872207,39.324366663408
110,1437229872961,56.7832547704438
111,1437229873699,62.076506274915
112,1437229874434,59.792702162285
113,1437229875147,18.5636718762169
114,1437229875882,59.3170265507808
115,1437229876599,57.8465084691903
116,1437229877324,39.8792414659761
117,1437229878062,38.384134497312
118,1437229878768,50.2699722686751
119,1437229879432,45.5680216066356
120,1437229880162,53.9519498145083
121,1437229880889,47.7771569413484
122,1437229881661,26.6246516555984
123,1437229882386,38.9889763003
124,1437229883126,22.4871362803158
125,1437229883853,21.1174636994915
126,1437229884588,48.832729200244
127,1437229885324,34.584133535888
128,1437229886047,38.8962613597196
129,1437229886767,34.436454482325
130,1437229887434,25.5907215507688
131,1437229888165,41.4528385972856
132,1437229888896,24.5218656909964
133,1437229889740,58.0199988557488
134,1437229890486,45.2800849468221
135,1437229891189,58.6490932099931
136,1437229891868,32.435526222791
137,1437229892603,49.7536148144603
138,1437229893315,57.1902578749544
139,1437229894077,59.5416035435666
140,1437229894804,23.8830635307962
141,1437229895553,49.5600292953795
142,1437229896262,53.7010824444443
143,1437229896952,59.930494873547
144,1437229897689,59.8976533269023
145,1437229898437,49.122427662748
146,1437229899209,49.8663788508088
147,1437229899979,27.0697412217241
148,1437229900752,31.2949491120646
149,1437229901438,60.6888601713759
150,1437229902152,58.7199855960935
151,1437229902924,40.5265016516123
152,1437229903702,31.4889695133056
153,1437229904433,32.9068030132735
154,1437229905174,38.0965357888848
155,1437229905909,33.1568059247252
156,1437229906630,45.3624637323133
157,1437229907329,53.5144733487346
158,1437229907995,30.8182818841654
159,1437229908778,55.5955037649641
160,1437229909483,46.1103270699069
161,1437229910202,33.9379858576744
162,1437229912125,41.5738577737979
163,1437229912794,31.5304560418932
164,1437229913519,51.3060016685492
165,1437229914347,50.580594853535
166,1437229915065,30.12246216395
167,1437229915798,30.2613016328825
168,1437229916536,30.466817885033
169,1437229917235,36.8849087952851
170,1437229917883,46.1012800395944
171,1437229918657,51.2115231155684
172,1437229919458,33.7753448621981
173,1437229920171,48.0021338362687
174,1437229920894,33.996831463537
175,1437229921649,30.2631265018894
176,1437229923717,29.7226588099133
177,1437229924449,28.5894679082297
178,1437229925173,31.535673914181
179,1437229925897,54.4350406813888
180,1437229926650,30.6701076090257
181,1437229927363,42.9336355357354
182,1437229928045,28.3262813167752
183,1437229928871,56.5819549409036
184,1437229929652,26.3119520056111
185,1437229930332,27.4571895890164
186,1437229931054,40.4522833907789
187,1437229931783,43.8863581411433
188,1437229932503,27.43786876319
189,1437229933264,29.7315970372455
190,1437229934022,41.0062709859515
191,1437229934716,30.5045662466573
192,1437229935458,35.2953598328233
193,1437229936193,31.6018014968248
194,1437229938277,34.7004989617301
195,1437229938865,37.9011572099574
196,1437229939529,43.5448836877293
197,1437229940263,55.289630347954
198,1437229940966,38.0133224234531
199,1437229941677,41.8743113586549
200,1437229942415,46.1546263648719
201,1437229943134,50.6991722918109
202,1437229943899,55.2872182763511
203,1437229944646,68.9265718313863
204,1437229945256,58.8631244092361
205,1437229945920,63.9323245383244
206,1437229947490,56.5675654101645
207,1437229948313,59.2082790505909
208,1437229949031,56.6218251450127
209,1437229949705,49.2207886772295
210,1437229950301,59.5319713383261
211,1437229950989,59.7847089823173
212,1437229951751,60.5685135030421
213,1437229952472,58.0144306528688
214,1437229953192,50.9232539731835
215,1437229953972,47.6354293006172
216,1437229954758,44.5423753511888
217,1437229955486,67.2254106357251
218,1437229956223,53.0786030738939
219,1437229956962,57.0574841887487
220,1437229957705,43.8218167798798
221,1437229958439,55.3165587844156
222,1437229959174,45.2220521542608
223,1437229959912,65.9680815909135
224,1437229960594,22.0157242841364
225,1437229961259,35.3698224991329
226,1437229962007,39.6270233590873
227,1437229962755,36.3645920530278
228,1437229963436,39.6104418534059
229,1437229964093,49.6389726237498
230,1437229964794,43.241133018503
231,1437229965517,49.0362848569785
232,1437229966225,45.600687514393
233,1437229966965,50.5239375005601
234,1437229967710,41.1452492559944
235,1437229968450,39.3323312547956
236,1437229969222,27.7089510042833
237,1437229969970,39.3093386619722
238,1437229970591,33.3127548294413
239,1437229971272,47.3987276122877
240,1437229972013,55.5631992847022
241,1437229972768,51.9383882372416
242,1437229973522,43.8622378595263
243,1437229974252,52.7895614198605
244,1437229975001,22.94716124014
245,1437229975738,56.3652573654963
246,1437229976445,61.8914890152946
247,1437229977103,62.2626846844063
248,1437229977867,45.2462029435356
249,1437229978580,49.4320313337712
250,1437229979318,58.2773328739408
251,1437229980061,44.6772923073551
252,1437229980822,21.1350018769852
253,1437229981557,21.2922888095482
254,1437229982285,44.1661094730441
255,1437229983031,35.6346214584121
256,1437229983837,56.5220668925765
257,1437229984606,32.3401141628847
258,1437229985336,18.8235357942484
259,1437229986038,57.900286132236
260,1437229986765,45.7245934914437
261,1437229987508,55.4686964594124
262,1437229988295,24.7743559393327
263,1437229989039,59.1708668848056
264,1437229989763,59.4715770488188
265,1437229990429,42.888813053849
266,1437229991034,55.2591217587776
267,1437229991769,53.1664142891531
268,1437229992507,54.8625412909777
269,1437229993298,55.8165974342466
270,1437229994017,44.1514133383167
271,1437229994742,21.9854659568186
272,1437229995503,24.3968646127655
273,1437229996163,60.713065890922
274,1437229996881,21.5545446553217
275,1437229997621,51.6254178203977
276,1437229998419,41.8201957454596
277,1437229999143,39.2425334288911
278,1437229999923,44.3144379111179
279,1437230000647,48.7938489788323
280,1437230001324,22.2917292643967
281,1437230001992,44.1068906845356
282,1437230002745,19.0175930115211
283,1437230003475,53.5249363600766
284,1437230004187,19.0589651005939
285,1437230004913,24.9748652076317
286,1437230005724,61.2724331478258
287,1437230006432,27.4750610129814
288,1437230007102,53.3873746867264
289,1437230007832,40.3852560136118
290,1437230008580,35.1732431336804
291,1437230009313,57.5289112255514
292,1437230010032,58.789448905881
293,1437230010749,39.9972051606018
294,1437230011367,53.432815008315
295,1437230012002,31.167855181798
296,1437230012701,62.4823926670986
297,1437230013453,39.1524226383156
298,1437230014186,55.8030999004308
299,1437230014915,55.2749003337576
300,1437230015667,48.84495263614
301,1437230016397,51.4876915270112
302,1437230017105,46.1879138622368
303,1437230017789,45.1932569605235
304,1437230018577,39.1792739990737
305,1437230019292,38.3807661575598
306,1437230019991,61.1113922272778
307,1437230020718,30.6897121444909
308,1437230021421,33.4524339460277
309,1437230022088,38.7546225095816
310,1437230022789,54.9289570653981
311,1437230023562,54.4115038419903
312,1437230024281,57.1262617404647
313,1437230025013,42.3000406684153
314,1437230025761,49.2822496774848
315,1437230026482,61.7413200671769
316,1437230027226,54.7652411763482
317,1437230027955,51.6172291621248
318,1437230028686,58.3999835248277
319,1437230029416,42.1386899735404
320,1437230030145,37.8991028236398
321,1437230030854,45.5376544525924
322,1437230031603,33.9368493185331
323,1437230032228,39.2982627871909
324,1437230033024,45.5484377355814
325,1437230033685,52.6375981346916
326,1437230034299,33.9942531428342
327,1437230035016,21.9513411352256
328,1437230035695,55.6363434208206
329,1437230036350,54.8469847901595
330,1437230037029,39.8245587335572
331,1437230037751,36.0602011220274
332,1437230038489,31.3068143119669
333,1437230039305,63.3628667582608
334,1437230040058,49.3683225218616
335,1437230040805,26.8979653581798
336,1437230041529,14.9644880286822
337,1437230042241,37.5510030277888
338,1437230042895,51.1465764034547
339,1437230043604,61.6997125413053
340,1437230044435,44.8702164870811
341,1437230045173,35.2412127197814
342,1437230045867,45.1904325775368
343,1437230046604,30.8503608273927
344,1437230047322,45.6922854314382
345,1437230048053,17.9777240190376
346,1437230048867,27.5835323799586
347,1437230049614,44.8263171026796
348,1437230050358,51.6777073473157
349,1437230051089,15.4974989670888
350,1437230051864,59.6831607931047
351,1437230052581,14.9287198150583
352,1437230053246,16.7113373507839
353,1437230053994,29.665142088963
354,1437230054738,51.0283434425763
355,1437230055476,42.1269705898535
356,1437230056206,47.7226688187218
357,1437230056935,17.7548379377301
358,1437230057691,50.8757545732784
359,1437230058422,55.3803984953683
360,1437230059158,26.6573532256217
361,1437230059845,17.0735642548917
362,1437230060434,17.0623757690214
363,1437230061257,57.1903408117067
364,1437230061878,49.6530445229709
365,1437230062520,60.702993546491
366,1437230063190,56.2043823019549
367,1437230063933,52.39313063343
368,1437230064568,38.0825775163737
369,1437230065302,61.1507985970871
370,1437230065982,45.151474087095
371,1437230066651,42.6665524042698
372,1437230067415,21.1517767145886
373,1437230068153,50.748503597804
374,1437230069003,29.3710906453127
375,1437230069738,40.1061023476945
376,1437230070462,37.467455410104
377,1437230071195,20.1682226496127
378,1437230071932,43.9991433146865
379,1437230072672,44.3571286336226
380,1437230073234,38.7532542665454
381,1437230073951,44.1117724762934
382,1437230074726,19.7831105984135
383,1437230075457,50.225970045967
384,1437230076168,17.4368507633976
385,1437230076928,21.2297774110863
386,1437230077662,13.3822107134443
387,1437230078333,20.3173730000847
388,1437230079002,56.5844336422891
389,1437230079767,49.1500916320347
390,1437230080503,48.4848859864399
391,1437230081243,51.8484568538849
392,1437230081959,46.7725022065056
393,1437230082661,43.5870043069657
394,1437230083307,18.7767272490998
395,1437230084039,50.1512512467229
396,1437230084791,47.681356891277
397,1437230085507,41.4259649753857
398,1437230086239,30.9036719934838
399,1437230087026,42.8607922042668
400,1437230087785,52.7437335181515
401,1437230088497,12.4304986581506
402,1437230089184,15.9414626435841
403,1437230089916,56.003391286897
404,1437230090651,56.6080622166492
405,1437230091399,43.9236577621547
406,1437230092154,35.3906032547002
407,1437230092872,53.5763502358699
408,1437230093619,15.3293843018621
409,1437230094243,47.2554800904527
410,1437230094941,59.8181478644672
411,1437230095686,35.7779625840095
412,1437230096432,52.9268757764822
413,1437230097174,54.2561157435358
414,1437230097908,61.5384693889391
415,1437230098675,48.6535221602588
416,1437230099330,46.6385036016304
417,1437230100061,45.9487548352023
418,1437230100783,29.9509241023059
419,1437230101527,41.8587707621731
420,1437230102252,33.6844897069264
421,1437230102984,44.7042919867497
422,1437230103695,14.5297191427599
423,1437230104326,38.3703292973015
424,1437230105050,50.8353146996651
425,1437230105762,45.3217314745199
426,1437230106490,46.2100366464446
427,1437230107212,41.6212136869968
428,1437230107949,57.9013625058246
429,1437230108699,23.7840400588944
430,1437230109416,52.1110904393356
431,1437230110124,40.1666407982953
432,1437230110819,42.1925417348991
433,1437230111553,49.623267063917
434,1437230112286,47.5431416892602
435,1437230113030,35.6827570965464
436,1437230113705,52.0385970186867
437,1437230114289,32.7525558350964
438,1437230116180,13.7723945828315
439,1437230116900,48.0682789604591
440,1437230117649,24.6800909640204
441,1437230118404,29.5458985901139
442,1437230119114,46.1963611892091
443,1437230119840,48.3894546864089
444,1437230120557,47.2826857493255
445,1437230121305,47.3284940798488
446,1437230122055,54.7664905966095
447,1437230122799,52.2042113711579
448,1437230123554,46.7853008989306
449,1437230124270,34.6926130092069
450,1437230124974,15.1755203270353
451,1437230125734,54.1364592951124
452,1437230126420,25.2613565200378
453,1437230127060,38.3570528210836
454,1437230127737,29.3613061627888
455,1437230128457,48.9724248071887
456,1437230129183,18.2670267231412
457,1437230129823,44.804962729848
458,1437230131566,34.5377180486352
459,1437230132307,55.2741730388088
460,1437230133041,55.6039416736242
461,1437230133759,42.4235095979971
462,1437230134506,45.5008897350538
463,1437230135164,41.3596305183481
464,1437230135896,35.878951757322
465,1437230136646,39.1176860517387
466,1437230137387,59.38394122846
467,1437230138112,33.6798584458338
468,1437230138846,57.8799408477666
469,1437230139591,54.4984183172936
470,1437230140316,30.1820766505433
471,1437230141052,38.1562423854284
472,1437230141786,56.6781585811561
473,1437230142517,33.7591977229632
474,1437230143264,54.4224089705184
475,1437230144012,48.3720519193679
476,1437230144729,47.8056085886058
477,1437230145375,51.5134112791209
478,1437230146093,51.6753006140478
479,1437230146811,18.8273248075467
480,1437230147559,43.9742674708941
481,1437230148276,55.4713786598996
482,1437230149042,37.8514278286075
483,1437230149754,38.1480362733475
484,1437230150442,57.5623766528866
485,1437230151104,53.615480389336
486,1437230151834,27.2594713146261
487,1437230152566,38.0505322420052
488,1437230154476,31.9682559028714
489,1437230155097,26.7987552878217
490,1437230155830,59.4361406264644
491,1437230156579,40.3093298923558
492,1437230157292,23.9887540212673
493,1437230158021,45.574961187141
494,1437230158789,39.6772246867437
495,1437230159503,50.2540520885712
496,1437230160152,39.4916525940622
497,1437230160869,29.5994348158235
498,1437230161589,21.5237138053063
499,1437230162326,68.1466167462157
500,1437230163063,51.7822369091245
501,1437230163804,21.8331573170853
502,1437230164513,22.84184555274
503,1437230165212,24.1011422527177
504,1437230165888,21.3468617767271
505,1437230167614,52.8252588165928
506,1437230168351,40.5677752848621
507,1437230169072,30.7605573181375
508,1437230169789,55.9372495348831
509,1437230170532,45.1401431473824
510,1437230171248,58.6585082881119
511,1437230171993,52.7297705202523
512,1437230172743,36.6146637748285
513,1437230173472,23.3672025572316
514,1437230174204,50.9423100869748
515,1437230174918,45.5746441881527
516,1437230175515,42.1405424333591
517,1437230176207,42.44969565875
518,1437230176864,29.9037023989529
519,1437230177462,57.4895806923565
520,1437230178146,59.6668076133379
521,1437230178862,39.9526038644585
522,1437230179532,42.1379644429708
523,1437230180215,41.1031113109553
524,1437230180897,44.4624416021894
525,1437230181650,59.1117858976897
526,1437230182384,56.4898341117192
527,1437230183094,49.7473768820242
528,1437230183848,50.974302608724
529,1437230184515,54.6712719098505
530,1437230185265,55.9078626327816
531,1437230186009,47.0843787143022
532,1437230186744,57.1005643570191
533,1437230187460,55.0816643524734
534,1437230188116,63.2758996497778
535,1437230188844,52.453030901373
536,1437230189671,59.0201940396804
537,1437230190402,59.068537958122
538,1437230191106,57.8859459868008
539,1437230191857,41.7243118153175
540,1437230192614,59.3347072884434
541,1437230193319,58.2861946446686
542,1437230194030,57.1728955773844
543,1437230194714,51.3768338746368
544,1437230195441,47.7874932708415
545,1437230196176,32.8876760453017
546,1437230196900,35.2824118839691
547,1437230197634,58.2299916576325
548,1437230198304,51.3345442057302
549,1437230199035,55.0445039418779
550,1437230199774,58.8784286968186
551,1437230200507,34.3187006477328
552,1437230201227,38.0576897835707
553,1437230201968,44.3094432606287
554,1437230202732,35.0327412668618
555,1437230203439,48.4324289792824
556,1437230204146,55.8568827295982
557,1437230204871,44.3879821668751
558,1437230205637,43.4498361490623
559,1437230206365,40.7905446735658
560,1437230207079,37.3513496808085
561,1437230207759,64.0891255099143
562,1437230208443,35.9819025087631
563,1437230209197,45.1208772440986
564,1437230209899,36.2562144671155
565,1437230210666,38.4816510886734
566,1437230211360,55.1514728740047
567,1437230212015,65.8455932082736
568,1437230212701,56.9552356410891
569,1437230213446,60.3568476242126
570,1437230214156,38.2501795666993
571,1437230214875,56.4307021661971
572,1437230215635,38.7154369641586
573,1437230216351,39.021367006579
574,1437230217096,55.9598966483151
575,1437230217832,35.7785514970247
