id,attr_time,attr_db
1,1437229795208,16.5859392032145
2,1437229795947,17.3081489059292
3,1437229796620,62.0918121212232
4,1437229797339,56.2939818131818
5,1437229798092,34.9574195518119
6,1437229798852,28.9918955799971
7,1437229799562,49.9610317780876
8,1437229800230,25.5147237903109
9,1437229800999,49.005694888483
10,1437229801741,37.792195220873
11,1437229802482,31.6209055066293
12,1437229803228,55.2974082055041
13,1437229803920,61.2176481131807
14,1437229805377,20.4728901561323
15,1437229806100,38.6936769627842
16,1437229806781,49.5003593464368
17,1437229807486,17.8827279709904
18,1437229808166,20.0306744694214
19,1437229808896,33.8942243625497
20,1437229809647,41.6757389650847
21,1437229810380,56.5809471106731
22,1437229811096,22.2191627740639
23,1437229811753,23.9968983159456
24,1437229812470,62.7265523643266
25,1437229813216,53.457106040224
26,1437229813943,23.2890110683456
27,1437229814677,29.7880406325899
28,1437229815422,45.6613299782795
29,1437229816156,24.0568334833352
30,1437229816830,68.016210556129
31,1437229817487,51.4343085020203
32,1437229818225,49.6874983960135
33,1437229818879,34.1368775144122
34,1437229820270,44.4343480727228
35,1437229820965,69.494067316358
36,1437229821665,42.3431184060634
37,1437229822404,35.5336412675225
38,1437229823136,32.2780482349217
39,1437229823885,34.0863076068828
40,1437229824634,38.853891105088
41,1437229825365,23.5860116476001
42,1437229826078,57.9761919657946
43,1437229826805,39.2169873818888
44,1437229827524,28.0741777627106
45,1437229829481,25.619403203197
46,1437229830163,28.6414623204333
47,1437229830883,50.8958175222737
48,1437229831581,24.1106516853223
49,1437229832240,59.9430468878528
50,1437229832908,43.9439492279823
51,1437229833546,57.4500335265739
52,1437229834262,70.70156479321
53,1437229834988,57.460186563419
54,1437229835668,57.5131654479898
55,1437229836393,65.401183061178
56,1437229837104,23.9537157664171
57,1437229837749,43.7016634314063
58,1437229838526,38.4759776331876
59,1437229839233,49.8881656732232
60,1437229839982,45.2961343986872
61,1437229840753,42.2499953311949
62,1437229841456,45.5357945249686
63,1437229842145,42.3846558528406
64,1437229842891,35.9624434219811
65,1437229843673,45.1881350049366
66,1437229844414,56.8820089365931
67,1437229845135,27.5092741706498
68,1437229845879,43.3275802285081
69,1437229846613,42.8397928409788
70,1437229847368,55.7562218194714
71,1437229848043,50.3399122152306
72,1437229848817,47.7824663311808
73,1437229849548,55.1613984273249
74,1437229850284,37.7584242493285
75,1437229851047,24.5285398333537
76,1437229851803,28.0495303234755
77,1437229852436,59.9164396034636
78,1437229853155,66.4736148954369
79,1437229853891,40.915590698535
80,1437229854621,36.3989700602871
81,1437229855354,37.060439661244
82,1437229856073,46.7575662938126
83,1437229856794,60.4781209213077
84,1437229857538,61.1855817006409
85,1437229858170,49.1256778961861
86,1437229858910,54.3081385540827
87,1437229859668,65.9087649085415
88,1437229860386,68.6716138522375
89,1437229861118,60.5598791180214
90,1437229861834,63.2842523979998
91,1437229862494,48.8133176213689
92,1437229863222,18.5878326183315
93,1437229863906,38.9783265829543
94,1437229864618,24.4585791679593
95,1437229865339,36.4251537780578
96,1437229866039,62.1795195839441
97,1437229866762,44.9896100998524
98,1437229867489,35.0794645579424
99,1437229868151,28.433242055906
100,1437229868897,37.4269231521254
101,1437229869658,29.1478661634715
102,1437229870400,22.7727832706029
103,1437229871127,52.6436938159675
104,1437229871835,28.8611175108155
105,1437229872495,18.0833516522645
106,1437229873188,60.2866676192154
107,1437229873934,57.7328192623873
108,1437229874652,49.9872177457886
109,1437229875374,34.3869719454444
110,1437229876092,55.7804900311668
111,1437229876817,65.2923462515168
112,1437229877550,56.4101667673624
113,1437229878298,53.3439815980146
114,1437229878977,55.6658943641719
115,1437229879727,58.4994135961935
116,1437229880461,53.0769569332084
117,1437229881182,31.3111626627568
118,1437229881901,28.2548684681044
119,1437229882621,53.6273616557604
120,1437229883280,25.7535597770622
121,1437229883999,53.4452692808828
122,1437229884726,62.2262020379157
123,1437229885466,19.599121957896
124,1437229886182,54.7842277408107
125,1437229886898,25.5091190981687
126,1437229887628,37.1690091649647
127,1437229888356,54.7089517855669
128,1437229889030,38.0820157781166
129,1437229889770,59.1869574109105
130,1437229890495,41.8570400279475
131,1437229891224,50.5696718221884
132,1437229891984,47.265476224776
133,1437229892777,45.8550181392369
134,1437229893458,58.9894747001748
135,1437229894215,57.323259780951
136,1437229894944,20.3321719990373
137,1437229895668,58.0167720956977
138,1437229896402,42.8749350186591
139,1437229897130,64.4565525628904
140,1437229897908,63.7175835220897
141,1437229898625,64.6348125290462
142,1437229899306,56.5263527710037
143,1437229900051,45.7030037781794
144,1437229900775,34.6086736374605
145,1437229901507,60.8051597070035
146,1437229902234,53.3701270344758
147,1437229903011,33.4279169258939
148,1437229903685,29.2056568732665
149,1437229904424,32.4617315791234
150,1437229905164,35.3736254522994
151,1437229905901,31.0205530909515
152,1437229906626,32.0873650844875
153,1437229907366,43.1794035624912
154,1437229908091,29.2660538152245
155,1437229908814,63.0276445002802
156,1437229909569,54.5260240029398
157,1437229910282,29.4488869458784
158,1437229911027,28.4516083593375
159,1437229911842,39.0917449761654
160,1437229912477,28.525535391498
161,1437229913156,27.9071684838487
162,1437229913893,66.0688394177717
163,1437229914605,55.9046465922757
164,1437229915335,31.0469226937744
165,1437229916051,33.5695283371228
166,1437229916786,37.8944215893566
167,1437229917501,30.2835901634945
168,1437229918233,41.3448313703627
169,1437229918907,40.9489780021459
170,1437229919546,40.3023823653854
171,1437229920247,43.6717222046957
172,1437229920999,34.6249953394692
173,1437229921745,29.4312071937285
174,1437229922503,29.3710405650851
175,1437229923218,29.6887389460846
176,1437229923942,27.971641773483
177,1437229924661,31.824029441887
178,1437229925404,28.6598996479382
179,1437229926123,55.9797395105974
180,1437229926861,36.4921073667796
181,1437229927584,38.1391906765319
182,1437229928323,27.3062284878
183,1437229929046,39.2215806217623
184,1437229929740,28.5475826711413
185,1437229930428,32.7679973610882
186,1437229931165,40.8526868758663
187,1437229931922,48.2712015888515
188,1437229932541,27.7762143137087
189,1437229933246,28.6494700742579
190,1437229933987,36.3238981683333
191,1437229934735,31.7885487345567
192,1437229935466,37.1353942709695
193,1437229936193,33.504924412551
194,1437229936938,57.8486248715404
195,1437229937692,42.1755137276205
196,1437229938412,37.4472614320119
197,1437229939038,39.8766842707925
198,1437229939734,49.500545034731
199,1437229940460,42.0078898065614
200,1437229941205,39.2021490892866
201,1437229941944,44.8331450683599
202,1437229942663,47.2197527361418
203,1437229943328,49.2118497977761
204,1437229944062,55.6712094578706
205,1437229944792,59.7389661168351
206,1437229945516,50.5223024550101
207,1437229946237,59.6674678468803
208,1437229946995,61.9757678820163
209,1437229947734,65.6282977800931
210,1437229948463,60.1516175175052
211,1437229949176,53.8566314590594
212,1437229949860,49.3184526458841
213,1437229950537,46.6073706841515
214,1437229951275,65.5146748842672
215,1437229952015,61.2005769234619
216,1437229952759,58.6224269670036
217,1437229953473,51.2019422611671
218,1437229954127,44.402382874037
219,1437229954854,45.9978944855562
220,1437229955571,49.8815135127636
221,1437229956299,57.3372837367625
222,1437229957031,57.7420645204316
223,1437229957773,45.8471142909483
224,1437229958502,49.4666315260285
225,1437229959212,47.1782176523691
226,1437229959953,71.6619201439786
227,1437229960641,26.1402550909407
228,1437229961363,66.1630303336211
229,1437229962085,37.9412206097307
230,1437229962817,53.8922358647566
231,1437229963551,57.3520634395321
232,1437229964289,60.9570110342334
233,1437229965019,64.8617791232767
234,1437229965763,56.9056645716163
235,1437229966504,36.9821513409493
236,1437229967294,54.3611381590014
237,1437229968032,42.7299627086985
238,1437229968772,29.1044180791893
239,1437229969506,55.304765634477
240,1437229970252,60.9057275584926
241,1437229970896,59.5278261458975
242,1437229971673,54.3270132272304
243,1437229972389,53.1426443877715
244,1437229973072,27.5489496929981
245,1437229973782,52.3827299507073
246,1437229974539,34.5865182080858
247,1437229975292,57.1672035325384
248,1437229975965,65.2394552068379
249,1437229976657,68.3587930790294
250,1437229977400,56.4734101668408
251,1437229978239,38.6410174424205
252,1437229978973,20.1620214211185
253,1437229979727,28.3795955739386
254,1437229980450,17.9142151668077
255,1437229981107,18.4347115894639
256,1437229981826,17.4928877790874
257,1437229982578,59.6248890728113
258,1437229983377,60.594555032087
259,1437229984058,38.6713455441615
260,1437229984698,29.162753313515
261,1437229985467,17.7343280240391
262,1437229986175,56.2413035399741
263,1437229986857,43.7804896592479
264,1437229987593,69.1270180110365
265,1437229988397,25.6700128042471
266,1437229989163,62.3791860169795
267,1437229989932,47.6382217673434
268,1437229990708,53.2778478971374
269,1437229991384,62.9742823036101
270,1437229992099,63.8561026108545
271,1437229992837,37.9956465762003
272,1437229993543,57.49283903607
273,1437229994226,36.5766120417776
274,1437229994974,22.2685693448494
275,1437229995711,20.8355690269809
276,1437229996430,60.8326896716315
277,1437229997158,30.7308028713882
278,1437229997863,43.5567436270359
279,1437229999558,24.4877148655505
280,1437230000238,19.7113013463915
281,1437230000949,46.910996102868
282,1437230001634,31.7299918612184
283,1437230002424,32.9995435732055
284,1437230003158,45.6672213143358
285,1437230003866,17.155137092889
286,1437230004632,38.4991243202044
287,1437230005360,70.6830476587963
288,1437230006005,58.177157814039
289,1437230006698,29.4294447573281
290,1437230007431,30.2516902278688
291,1437230008170,34.7659601401711
292,1437230008892,20.3448930953432
293,1437230009622,38.9633225582529
294,1437230010340,69.4171731417387
295,1437230011035,61.6345628695645
296,1437230011674,50.6173204523336
297,1437230013369,37.9371120346339
298,1437230014028,60.1432560885011
299,1437230014730,54.9767945526595
300,1437230015443,42.7071986186087
301,1437230016135,40.366226968814
302,1437230016858,63.9589810654099
303,1437230017575,34.6875095636869
304,1437230018315,32.2712017832092
305,1437230019035,33.4967958641381
306,1437230019776,43.7987745125759
307,1437230020519,34.2738958875102
308,1437230021239,29.3832847090238
309,1437230021905,52.2865423485541
310,1437230022661,42.9661604220982
311,1437230023376,45.5877585087302
312,1437230024112,65.4643953413565
313,1437230024844,52.5300588337291
314,1437230025575,49.5571555213231
315,1437230026224,47.2281028410862
316,1437230026966,48.3572601906212
317,1437230027744,49.0177914415351
318,1437230028490,65.2650039701741
319,1437230029211,45.2950174542414
320,1437230029937,39.1628578863101
321,1437230030683,62.4447205827853
322,1437230031444,39.5070670555295
323,1437230032128,54.8984369331734
324,1437230032853,52.2044670806122
325,1437230033728,54.1445935248834
326,1437230034337,29.0235595152912
327,1437230034939,27.9478492386173
328,1437230036049,47.7919342161237
329,1437230036724,61.0743071269282
330,1437230037458,47.4301224094711
331,1437230038189,57.9254628680652
332,1437230038904,43.2275016320999
333,1437230039640,57.803254318578
334,1437230040372,57.9105825514244
335,1437230041102,17.9792409368863
336,1437230041802,26.1586998796747
337,1437230042446,59.0605819270604
338,1437230043174,44.0432322718452
339,1437230043896,60.9062879111862
340,1437230044656,55.2469917256946
341,1437230045363,37.2120630567933
342,1437230046030,57.5989343156533
343,1437230046759,58.2020726085258
344,1437230047476,49.098469341557
345,1437230048125,13.119606714392
346,1437230049524,36.9282472181719
347,1437230050204,48.0937255565817
348,1437230050921,11.4924955333254
349,1437230051664,60.4152133217915
350,1437230052385,47.816369128879
351,1437230053155,12.3040485292814
352,1437230053900,37.8689334636683
353,1437230054645,52.743742342509
354,1437230055230,36.6795805404404
355,1437230055888,62.1297608252299
356,1437230056615,40.2312286334068
357,1437230057336,31.2720040745468
358,1437230058053,49.2609869364879
359,1437230058821,48.0713625558361
360,1437230059534,52.1819623783361
361,1437230060265,19.9439641020878
362,1437230060984,48.2505447243842
363,1437230061718,63.4606372320697
364,1437230062454,57.6610173763181
365,1437230063163,52.3513884520987
366,1437230063971,60.3896654691831
367,1437230064770,28.230452645355
368,1437230065509,50.2548280430576
369,1437230066240,57.3382657487614
370,1437230066922,27.6594845391319
371,1437230067619,53.0337756662062
372,1437230068363,23.5253113648651
373,1437230069072,24.6822805845976
374,1437230069821,43.698857596823
375,1437230070545,45.2678568932136
376,1437230071298,19.6363968326684
377,1437230072018,40.5977140517062
378,1437230072694,51.4581775082763
379,1437230073347,54.5415273979276
380,1437230074064,28.0813239651873
381,1437230074762,13.4340150303799
382,1437230075328,57.2642048610521
383,1437230075976,18.2017589921846
384,1437230076686,30.0562655215284
385,1437230077416,11.7806361750939
386,1437230078174,9.1680984070818
387,1437230078881,58.6908903707469
388,1437230079554,50.2403242663507
389,1437230080255,58.7567498547069
390,1437230080983,51.4092641845484
391,1437230081707,55.1515323842491
392,1437230082442,49.2070344626793
393,1437230083081,18.9486955757202
394,1437230083793,55.3244153369133
395,1437230084525,57.8454225643563
396,1437230085271,58.0803531644625
397,1437230086010,57.1080803937201
398,1437230086779,47.4191198952431
399,1437230087476,32.2187948899143
400,1437230088204,12.9667046706927
401,1437230088939,7.61363713652223
402,1437230089699,55.3885425255562
403,1437230090476,40.1314565484462
404,1437230091209,54.8768040937749
405,1437230091943,55.5673018957182
406,1437230092661,45.8450604108886
407,1437230093286,41.1585751683233
408,1437230094012,33.6490520423429
409,1437230094805,62.102313253353
410,1437230095524,57.3484473768835
411,1437230096246,27.9245691057862
412,1437230096981,52.2849392410267
413,1437230097686,40.6605137860102
414,1437230098286,53.3462624363731
415,1437230098971,58.376156160776
416,1437230099716,61.2343595612442
417,1437230100454,55.9583636303942
418,1437230101191,13.4415631103432
419,1437230101926,54.883023877037
420,1437230102671,43.2609578245634
421,1437230103364,56.8280782631308
422,1437230103998,38.759685889573
423,1437230104763,57.7117407647766
424,1437230105489,51.7866668303221
425,1437230106236,41.5667253015673
426,1437230106982,57.7101320263515
427,1437230107753,43.793339636889
428,1437230108525,32.5609305900371
429,1437230109245,57.8990309848398
430,1437230109952,58.4811740683856
431,1437230110608,62.8130672452476
432,1437230111324,58.5888202066726
433,1437230112060,57.3218406254267
434,1437230112804,33.2669606314539
435,1437230113521,58.915929302586
436,1437230114155,46.6072715988267
437,1437230114859,13.2707040499935
438,1437230115585,8.29205126179377
439,1437230116256,9.75817715025608
440,1437230117001,59.1309639409186
441,1437230117785,46.6122681423135
442,1437230118506,8.74145337478947
443,1437230119244,35.9674492301928
444,1437230119968,37.9781654342873
445,1437230120707,38.0413410154413
446,1437230121451,20.2355663478863
447,1437230122182,52.9799500648729
448,1437230122900,52.0582833215248
449,1437230123628,55.3723263182331
450,1437230124283,34.6832152436539
451,1437230125029,10.5546981544997
452,1437230125733,58.3562094783095
453,1437230126403,34.7640858060929
454,1437230127125,22.5866325571732
455,1437230127850,40.7678622633764
456,1437230128628,39.6720508625227
457,1437230129341,8.6756771585573
458,1437230130081,28.2821088121606
459,1437230130824,22.6628027614172
460,1437230131517,23.1791486816341
461,1437230132260,55.9034530860354
462,1437230133002,54.2036575259045
463,1437230133698,42.2211434875597
464,1437230134360,47.7806624730921
465,1437230135075,58.0836467230181
466,1437230135788,26.4573931653996
467,1437230136442,19.8455059410785
468,1437230137151,11.817096594415
469,1437230137862,45.8376717549526
470,1437230138511,13.7635003677669
471,1437230139255,57.0369627817765
472,1437230139995,57.6536176121287
473,1437230140737,28.1784901784206
474,1437230141469,23.5979074124881
475,1437230142195,35.0601699520349
476,1437230142926,20.4275719186708
477,1437230143651,51.9535992290237
478,1437230144383,62.4867433380722
479,1437230145038,36.1045786805731
480,1437230145767,61.3728055404577
481,1437230146491,50.7741195921887
482,1437230147211,30.3540722385754
483,1437230147968,58.586792303269
484,1437230148780,58.9123116330101
485,1437230149517,48.4992700362945
486,1437230150299,23.3478768342533
487,1437230151043,68.2543794142402
488,1437230151760,45.7271739944474
489,1437230152485,40.6236480289748
490,1437230153202,25.6027865233407
491,1437230153944,27.2822850009453
492,1437230154651,36.1613792322064
493,1437230155353,43.8494508914814
494,1437230156081,46.3338161284722
495,1437230156739,58.7408377052162
496,1437230157457,25.6834756456883
497,1437230158246,57.8267002965864
498,1437230158991,46.8972914100993
499,1437230159760,32.9378178950558
500,1437230160493,45.0388297089926
501,1437230161218,55.0708255327515
502,1437230161949,22.9209568642419
503,1437230162668,66.9934690145362
504,1437230163411,52.9505339748786
505,1437230164131,24.1958692575726
506,1437230164820,31.5194210410639
507,1437230165515,20.3484793207631
508,1437230166234,56.5070943935712
509,1437230166981,22.076458316915
510,1437230167752,40.5155788655352
511,1437230168454,29.5971432783962
512,1437230169124,32.6293178160809
513,1437230169877,64.8182364300202
514,1437230170588,52.1175204370081
515,1437230171320,58.2048356875228
516,1437230172064,45.1458446850388
517,1437230172862,34.3513566534728
518,1437230173588,27.1548391393589
519,1437230174325,62.7883046632104
520,1437230175012,56.1635282690752
521,1437230175636,51.5944954964353
522,1437230176309,27.0219241810564
523,1437230177028,29.2521607818064
524,1437230177804,51.2856052450515
525,1437230178555,37.2913445900552
526,1437230179274,41.2309236341154
527,1437230179937,42.5461675445642
528,1437230180613,43.3742995316547
529,1437230181352,51.3570211883999
530,1437230182088,63.2163781266758
531,1437230182884,39.7466203040365
532,1437230183604,47.8649357256282
533,1437230184328,65.4354218439291
534,1437230185084,59.5297208289324
535,1437230185817,56.0050882343333
536,1437230186474,51.5836079216038
537,1437230187207,54.2056557844153
538,1437230187945,57.340241540091
539,1437230188679,51.344956063136
540,1437230189410,34.8938684954689
541,1437230190143,63.8558609845037
542,1437230190859,50.8545640979296
543,1437230191522,64.5484689427302
544,1437230192258,61.7479020814318
545,1437230193027,53.5281051603235
546,1437230193760,61.7243095048978
547,1437230194489,56.4439805355996
548,1437230195212,52.9684699385245
549,1437230195916,35.9361826908097
550,1437230196557,32.0877510692131
551,1437230197220,33.1562678511318
552,1437230197978,60.7754541343975
553,1437230198740,52.6923555710704
554,1437230199488,63.1732617507209
555,1437230200248,41.9364973526186
556,1437230200966,53.687901663398
557,1437230201699,51.5293018855014
558,1437230203832,58.6129918179841
559,1437230204552,69.5330592712905
560,1437230205287,38.7176896396607
561,1437230205992,36.0827557711507
562,1437230206678,46.9586268156415
563,1437230207441,43.9876770780577
564,1437230208187,47.3834702946234
565,1437230208910,38.3959291052452
566,1437230209663,28.7789374648251
567,1437230210376,30.3034206585012
568,1437230211114,29.9792884939144
569,1437230211853,46.4856644403106
570,1437230212478,33.2100940663871
571,1437230213183,33.3375751620199
572,1437230213913,32.6267693446131
573,1437230214662,42.6047902111291
574,1437230215376,42.0959358631089
575,1437230216032,44.7141637211509
