id,attr_time,attr_db
1,1437229794346,29.2637660998153
2,1437229795057,14.5040956343506
3,1437229795788,10.566936975234
4,1437229796516,13.8010881802088
5,1437229797239,10.9126589756218
6,1437229797961,42.4778917207412
7,1437229798708,35.3216325287694
8,1437229799417,36.3703465990066
9,1437229800072,28.9829634725657
10,1437229800797,39.9368004327883
11,1437229801507,49.0108104651412
12,1437229802235,35.5372854318847
13,1437229802960,30.4175795645984
14,1437229803695,44.586339726039
15,1437229804423,42.7299706808866
16,1437229805144,12.1593281743656
17,1437229805882,44.3393083227889
18,1437229806615,30.4742120743028
19,1437229807387,15.3501905333941
20,1437229808076,12.5509221079695
21,1437229808794,20.6152745496559
22,1437229809496,48.7603655155984
23,1437229810227,43.7227123637377
24,1437229810938,48.182288007045
25,1437229811669,32.6343649789369
26,1437229812427,16.2997136548135
27,1437229813146,31.5671000058779
28,1437229813852,41.2424266782541
29,1437229814534,33.8590147445387
30,1437229815223,24.2516459626187
31,1437229815947,43.6335639457851
32,1437229816701,20.4057884879845
33,1437229817502,55.2200202362072
34,1437229818226,54.4947752013123
35,1437229818960,37.4738730657045
36,1437229819684,36.8767637716546
37,1437229820307,31.7389167014773
38,1437229821041,37.4165943539622
39,1437229821761,59.5942830193532
40,1437229822488,37.3570809826173
41,1437229823206,32.3993703191071
42,1437229823950,27.1730300096033
43,1437229824697,33.3921622928836
44,1437229825438,28.2092199451035
45,1437229826134,21.5150500285766
46,1437229826880,38.5117881022626
47,1437229827657,26.6861619294236
48,1437229828353,25.9950850321781
49,1437229829097,34.192526471335
50,1437229829864,50.3704023058351
51,1437229830609,55.4872890364658
52,1437229831329,48.9441064879342
53,1437229832113,35.4786175226989
54,1437229832848,26.3281683227946
55,1437229833589,65.4881790153628
56,1437229834319,58.5976313768328
57,1437229835038,62.0051315696668
58,1437229835772,28.7729307809876
59,1437229836486,53.4321282605374
60,1437229837239,58.8247746379866
61,1437229837929,38.2245372182371
62,1437229838590,39.6191461155938
63,1437229839322,33.8430528900344
64,1437229840062,46.6423356089935
65,1437229840782,47.2439393683019
66,1437229841502,48.5128922866546
67,1437229842222,37.8726376102825
68,1437229843000,45.9903298537421
69,1437229843737,29.5648359204813
70,1437229844442,42.3893549703962
71,1437229845159,24.9315353262959
72,1437229845886,24.9435353368478
73,1437229846597,49.31580232376
74,1437229847318,43.1343334760199
75,1437229848069,41.4513374957682
76,1437229848793,48.5235971065747
77,1437229849522,43.1751024228405
78,1437229850267,34.3466255589024
79,1437229851002,51.2987388211302
80,1437229851747,22.2945049512781
81,1437229852457,26.6424871642021
82,1437229853188,42.3235714460184
83,1437229853903,62.2429074821841
84,1437229854591,30.6526120849577
85,1437229855195,22.1800934659099
86,1437229855897,52.3572867375424
87,1437229856626,27.6635816177505
88,1437229857354,51.8367254289379
89,1437229858078,54.7201625540187
90,1437229858803,53.6047677634494
91,1437229859557,37.6568544220621
92,1437229860320,47.670185401301
93,1437229860981,48.914232522282
94,1437229861718,53.0174785712561
95,1437229862421,57.9626752578317
96,1437229863142,31.3126343883213
97,1437229863846,16.8737207716111
98,1437229865895,19.8532797191312
99,1437229866583,37.1638685987487
100,1437229867322,46.3205623026545
101,1437229868049,16.1576345938282
102,1437229868773,23.5232412774967
103,1437229869494,22.3923221355092
104,1437229870204,52.672806077959
105,1437229870946,45.6432566005471
106,1437229871691,47.9462679452383
107,1437229872411,36.1802124506143
108,1437229873120,47.5871236358402
109,1437229873842,46.9031474661174
110,1437229874565,50.2771371581425
111,1437229876131,17.2151757571503
112,1437229876831,49.6238833876631
113,1437229877596,55.6331676495301
114,1437229878324,45.5353459455387
115,1437229879058,48.6350550367122
116,1437229879784,49.5810836724133
117,1437229880535,46.8417639515579
118,1437229881192,49.634861503826
119,1437229881916,15.8375562035521
120,1437229882625,17.4521645001612
121,1437229883324,43.9708619149444
122,1437229884042,18.9839679976849
123,1437229884775,45.5342098533905
124,1437229885473,48.0554273659483
125,1437229886195,19.128242868202
126,1437229886922,43.0200106441782
127,1437229887735,21.7451238982563
128,1437229888453,34.8303017462611
129,1437229889165,47.1205018931725
130,1437229891031,21.0361338667305
131,1437229891742,17.2997703128406
132,1437229892467,26.4465062785567
133,1437229893191,32.5304458469698
134,1437229893931,40.4384805279445
135,1437229894696,30.2969366156931
136,1437229895414,22.9321212069271
137,1437229896130,33.5309286971964
138,1437229896821,56.4451725044028
139,1437229897491,41.2760039252481
140,1437229898197,51.2464257590625
141,1437229899843,48.6698294593073
142,1437229900524,42.7613393268664
143,1437229901226,27.8931638957554
144,1437229901929,50.9255723295816
145,1437229902658,52.2998762395
146,1437229903382,41.2327293113162
147,1437229904141,26.0316341511198
148,1437229904820,45.3696752388548
149,1437229905465,42.4545779987636
150,1437229906191,39.2643431392246
151,1437229906913,30.9490009899398
152,1437229907653,41.3170977959704
153,1437229908381,39.1592356769401
154,1437229909098,28.6032294051633
155,1437229909832,57.1032234792804
156,1437229910578,48.4227786889966
157,1437229911310,32.9404257685614
158,1437229912042,27.260601305844
159,1437229912793,28.5153161253583
160,1437229913496,27.388243687316
161,1437229914210,28.9317382861085
162,1437229914925,41.7283360933672
163,1437229915657,28.3652203328815
164,1437229916355,25.396393200759
165,1437229917065,26.8205493757996
166,1437229917826,26.9094918961998
167,1437229918583,37.0757088408464
168,1437229919322,40.6979778326829
169,1437229920075,37.7091622138653
170,1437229920827,30.8967393728276
171,1437229921546,32.2533096519798
172,1437229922185,45.433751728144
173,1437229922859,33.3671887285668
174,1437229923516,29.8023758179477
175,1437229924166,26.8636559606081
176,1437229924886,27.6445348164048
177,1437229925597,42.0067515608195
178,1437229926279,27.4117098127543
179,1437229926953,48.0708758933267
180,1437229927694,38.9125248287947
181,1437229928421,42.7881719767394
182,1437229929155,24.589756893859
183,1437229929882,38.2921506726066
184,1437229930580,23.4775002090491
185,1437229931327,40.9636334171681
186,1437229932063,42.2723866951531
187,1437229932782,45.6007527061556
188,1437229933485,28.4213725678123
189,1437229934212,30.1121987600972
190,1437229934926,38.1604483008155
191,1437229935662,35.4872975062686
192,1437229936408,42.1440817890468
193,1437229937081,29.7411888377108
194,1437229937856,47.8382971509667
195,1437229938556,37.1440830928352
196,1437229939261,36.0000203442334
197,1437229939965,38.6131940962998
198,1437229940707,37.8481629338485
199,1437229941443,36.0101312346574
200,1437229942165,40.0724740205828
201,1437229942876,38.8522364213547
202,1437229943618,46.4814744649543
203,1437229944320,47.7611727303861
204,1437229945049,52.4375337817937
205,1437229945765,57.870265431624
206,1437229946508,60.507832842534
207,1437229947244,56.1393417123918
208,1437229948049,55.9792137338136
209,1437229948772,56.3308122087961
210,1437229949505,52.5896761639912
211,1437229950235,46.3221964226779
212,1437229950955,46.0316824872239
213,1437229951694,58.6977879723484
214,1437229952466,52.977913901039
215,1437229953229,47.7466058170418
216,1437229953948,50.2113466531122
217,1437229954692,41.6958779315947
218,1437229955392,43.2525111133071
219,1437229956133,57.4369533666847
220,1437229956854,51.8021193605952
221,1437229957610,53.5741087162791
222,1437229958330,42.8297318685884
223,1437229959055,51.3767774561415
224,1437229959785,54.6558862957099
225,1437229960525,44.4532395279921
226,1437229961259,54.618893584107
227,1437229961982,22.9406418626617
228,1437229962695,45.6681207502131
229,1437229963405,57.7798552641064
230,1437229964143,37.558054598728
231,1437229964918,44.3144161332593
232,1437229965644,32.3229064362597
233,1437229966356,46.0535830287743
234,1437229967086,44.4474652236802
235,1437229967819,44.2019152264749
236,1437229968485,44.6984696172249
237,1437229969205,35.699718605244
238,1437229969955,18.0737563416887
239,1437229970695,48.1011397849305
240,1437229971422,29.7944471318347
241,1437229972135,46.5140486800609
242,1437229972904,39.3292067442127
243,1437229973621,44.4494451870701
244,1437229974335,36.8552708777635
245,1437229975053,46.8894697022439
246,1437229975755,16.6518729738615
247,1437229976457,42.18205949294
248,1437229977181,51.2616623958571
249,1437229977913,59.0945793024588
250,1437229978644,32.0926752264979
251,1437229979381,34.6100435682683
252,1437229980121,47.1904879001485
253,1437229980836,38.9659856682394
254,1437229981552,15.6150409547581
255,1437229982247,15.8109261742336
256,1437229982825,48.2769641250991
257,1437229983498,51.3823020256741
258,1437229984219,55.3880171918912
259,1437229984938,41.7630949311731
260,1437229985668,16.7923357503618
261,1437229986386,14.8549694996611
262,1437229987094,40.1273931480756
263,1437229987825,44.7693280512676
264,1437229988566,28.5824084492487
265,1437229989295,21.0354384871769
266,1437229990035,56.7937282173669
267,1437229990758,36.713537984095
268,1437229991479,43.1747113160013
269,1437229992200,52.758111922447
270,1437229992949,47.8646073817016
271,1437229993677,33.5595379223196
272,1437229994388,44.5972118056994
273,1437229995085,20.4382885896235
274,1437229995816,29.5797095208891
275,1437229996546,17.0706472930445
276,1437229997278,50.8171147230971
277,1437229998022,22.3905423452603
278,1437229998739,42.9237819457402
279,1437229999474,35.8199720248831
280,1437230000193,35.9779924693102
281,1437230000904,14.2127826988921
282,1437230001646,48.352553735133
283,1437230002392,32.0143825879969
284,1437230003110,46.2574745689082
285,1437230003859,44.999626952796
286,1437230004580,39.1500274188171
287,1437230005303,31.8213080906655
288,1437230006030,11.3380991653302
289,1437230006719,24.9090180459404
290,1437230007398,20.2618696218402
291,1437230008130,47.0684409035598
292,1437230008864,49.3014511267337
293,1437230009580,17.0129045321077
294,1437230010295,34.2820906348627
295,1437230011029,36.220198325989
296,1437230011750,29.984242565269
297,1437230012511,42.9422569301835
298,1437230013233,45.5575694969097
299,1437230013947,37.7141660878732
300,1437230014659,32.9870827615903
301,1437230015391,46.9515050145797
302,1437230016115,42.8803313336995
303,1437230016842,29.7557467348549
304,1437230017552,53.1804223478332
305,1437230018289,28.4542651536391
306,1437230019038,27.513279432338
307,1437230019766,33.5091588408093
308,1437230020481,34.7111032399885
309,1437230021223,47.7882227606783
310,1437230021948,23.3569280364747
311,1437230022713,44.2771529424334
312,1437230023504,47.7793345666038
313,1437230024220,38.6307424742699
314,1437230024999,44.4404010039143
315,1437230025731,42.7206541696083
316,1437230026463,41.9423217178979
317,1437230027202,46.0807497327112
318,1437230027946,46.2545511411852
319,1437230028684,46.2720494500326
320,1437230029385,56.7466428426129
321,1437230030101,38.3972688697118
322,1437230030821,35.4429411965303
323,1437230031549,53.9179366222342
324,1437230032301,33.7368490167847
325,1437230033065,39.1825290548281
326,1437230033796,40.3776415761294
327,1437230034526,45.8828619634038
328,1437230035252,15.9760461198091
329,1437230035970,11.0358706757056
330,1437230036716,47.6986317115007
331,1437230037427,45.8588659414575
332,1437230038160,39.8561886797111
333,1437230038900,49.9480204844239
334,1437230039653,38.6372752799035
335,1437230040363,55.7412602625251
336,1437230041084,48.9510257859899
337,1437230041817,27.1047767055701
338,1437230042521,10.5307363637173
339,1437230043251,44.4718224826126
340,1437230043912,50.0290599809253
341,1437230044624,52.1171733501818
342,1437230045343,46.8876182365491
343,1437230046062,42.3264963815766
344,1437230046797,58.4514925801285
345,1437230047501,44.4856159341144
346,1437230048219,34.7751792791124
347,1437230048909,9.7685217129448
348,1437230049664,15.6586921389252
349,1437230050394,41.8057833278334
350,1437230051099,35.2281699591132
351,1437230051836,8.80568933815274
352,1437230052576,56.1540162436739
353,1437230053315,9.83062673742859
354,1437230054063,10.0639962836939
355,1437230054793,26.0776418038706
356,1437230055509,44.1360408922405
357,1437230056234,27.9697641585969
358,1437230056939,22.96216604408
359,1437230057651,14.6077186899295
360,1437230058374,10.0359965504127
361,1437230059092,54.7115230549321
362,1437230059815,47.4448810361525
363,1437230060545,17.3340312997302
364,1437230061250,11.826642132428
365,1437230061976,52.6154977954332
366,1437230062722,48.3975618193909
367,1437230063449,53.9274078882664
368,1437230064168,44.8188704706716
369,1437230064902,43.5755211720132
370,1437230065665,20.0932171640774
371,1437230066398,49.5983429025171
372,1437230067115,38.3358886784939
373,1437230067839,9.76753860563244
374,1437230068464,52.0573967767529
375,1437230069695,20.1453114470681
376,1437230070432,43.6072230749716
377,1437230071162,46.6116466708973
378,1437230071894,43.8028677664958
379,1437230072642,41.7216819054065
380,1437230073393,28.5571860549474
381,1437230074115,32.0602399102658
382,1437230074830,12.8806389485689
383,1437230075556,13.2303000726795
384,1437230076268,48.5947103067603
385,1437230077041,11.8669895407349
386,1437230077762,13.6015105901173
387,1437230078477,8.58153390211947
388,1437230079210,38.622210877064
389,1437230079919,42.5524034768475
390,1437230080637,45.3315775324884
391,1437230081339,45.3287565833457
392,1437230082076,44.331307849262
393,1437230082775,40.9519399981581
394,1437230084394,45.0384531956306
395,1437230085139,50.1575902025664
396,1437230085875,41.3941596396024
397,1437230086658,42.0465159172409
398,1437230087384,40.1100634564931
399,1437230088120,30.0064695726057
400,1437230088921,6.32716931311634
401,1437230089658,5.50968434657537
402,1437230090364,26.1726604673456
403,1437230091076,46.6077655226678
404,1437230091792,45.642792728269
405,1437230092534,38.2248460974634
406,1437230093313,47.2797517680444
407,1437230094046,30.4360833542972
408,1437230094709,20.7835202989241
409,1437230095427,54.0254030799818
410,1437230096143,57.5971121759415
411,1437230096847,43.6062880367098
412,1437230097538,48.4179247947296
413,1437230098325,43.4005673273747
414,1437230099063,47.1750894524568
415,1437230099815,43.0489137424883
416,1437230100547,52.9382595861818
417,1437230101266,44.3855755039173
418,1437230102003,7.47832373041808
419,1437230102745,45.1167066436082
420,1437230103479,38.3451771053469
421,1437230104142,48.6879419448869
422,1437230104867,28.7453182464018
423,1437230105549,49.9146820202044
424,1437230107141,40.3960991586336
425,1437230107859,46.2459448655286
426,1437230108570,38.7682534273129
427,1437230109307,31.5762690824577
428,1437230110054,46.1311940224629
429,1437230110782,48.8783165624322
430,1437230111498,47.5387088563128
431,1437230112244,42.2096768169759
432,1437230112984,43.5179867142308
433,1437230113707,44.7023425271771
434,1437230114418,38.8536840930849
435,1437230115168,38.8182903849146
436,1437230115879,12.3008135897224
437,1437230116609,40.2792556216035
438,1437230117334,36.1874063098243
439,1437230118065,37.6092146180991
440,1437230119923,44.1216099643257
441,1437230120652,41.2600887726074
442,1437230121371,41.0990951553804
443,1437230122094,48.4803152199237
444,1437230122830,47.0586881059356
445,1437230123548,45.5101928671609
446,1437230124270,44.0418286955182
447,1437230124969,34.5409968484575
448,1437230125712,8.97815154728336
449,1437230126417,44.6976959788147
450,1437230127140,40.2380136738587
451,1437230127864,30.3212515142146
452,1437230128575,37.7289196053449
453,1437230129321,40.6713277348072
454,1437230130066,8.07446321515286
455,1437230130792,36.5742374548421
456,1437230131520,26.4728353624456
457,1437230132244,18.7921551210743
458,1437230132975,44.7506740355328
459,1437230133732,17.2825049330083
460,1437230134457,29.9681147955282
461,1437230135177,40.3389494775884
462,1437230135904,47.3686580480687
463,1437230136639,25.7771579335136
464,1437230137365,10.418894287525
465,1437230138075,23.234513008227
466,1437230138807,23.2974223077741
467,1437230139529,45.5177555473965
468,1437230140259,15.9842612825684
469,1437230140981,37.0337836413339
470,1437230141719,46.146016902831
471,1437230142473,45.0561536051118
472,1437230143183,33.4291143343103
473,1437230143864,26.6935317819953
474,1437230144444,44.8567684613568
475,1437230145204,48.8576624792633
476,1437230145923,43.6551210882363
477,1437230146663,52.598693961727
478,1437230147423,11.8563776017789
479,1437230148162,13.7575916141889
480,1437230148888,55.4498901412414
481,1437230149621,46.8458906900672
482,1437230150342,41.932737006411
483,1437230151068,18.4942964652681
484,1437230151785,62.5705065672699
485,1437230152536,35.237346093847
486,1437230153305,37.2919048267487
487,1437230154036,21.9886384053997
488,1437230154704,25.2994675826214
489,1437230155495,32.6384842399957
490,1437230156172,29.1136391880029
491,1437230156897,30.937817149876
492,1437230157633,51.7474953899104
493,1437230158355,21.668737429035
494,1437230159171,26.5233589400343
495,1437230159889,42.5756505940986
496,1437230160647,49.805229771961
497,1437230161371,49.9324794296998
498,1437230162084,48.6856409732173
499,1437230162789,17.7267337621142
500,1437230163511,59.5889661157327
501,1437230164323,48.0766597621606
502,1437230165018,20.3804555675027
503,1437230165705,25.6410095522
504,1437230166443,19.4764144550305
505,1437230167189,45.3255601132749
506,1437230167923,17.0399680841195
507,1437230168669,32.4464381183215
508,1437230169395,23.5011561916088
509,1437230170119,29.6186626430089
510,1437230170840,41.1021238354454
511,1437230171574,32.2462739586063
512,1437230172303,44.3057986102572
513,1437230173014,34.459910511045
514,1437230173769,16.1287433816246
515,1437230174470,24.3038083655677
516,1437230175170,45.9328571087735
517,1437230175878,45.6140518049056
518,1437230176607,42.5498947256972
519,1437230177333,24.5955217773514
520,1437230178058,58.6208264638959
521,1437230178764,38.9071385466512
522,1437230179458,34.8728247324331
523,1437230180181,39.1218587145158
524,1437230180912,42.3657985959202
525,1437230181648,43.6814722057145
526,1437230182382,63.9250755257127
527,1437230183094,54.0509191152337
528,1437230183814,52.0209890781248
529,1437230184542,40.4334650765738
530,1437230185221,44.574809492966
531,1437230185896,54.8110689751433
532,1437230186624,47.9608912878284
533,1437230187369,47.5961530382747
534,1437230188095,48.0906710148353
535,1437230188858,51.8492097369192
536,1437230189579,43.2359918798177
537,1437230190291,47.843540690091
538,1437230191020,54.7218152659265
539,1437230191754,49.4164598359014
540,1437230192493,46.54526443982
541,1437230193211,54.6571904188167
542,1437230193959,51.682663869401
543,1437230194701,45.8290302111722
544,1437230195423,58.7640415173319
545,1437230196152,29.9041751888042
546,1437230196861,28.6800384926749
547,1437230197593,33.2552667081653
548,1437230198298,31.1134114478086
549,1437230199055,41.4358470483769
550,1437230199790,47.4644727530096
551,1437230200511,50.8431199922209
552,1437230201233,31.2538843185349
553,1437230201951,42.9368445350503
554,1437230202710,35.8181372505765
555,1437230203419,31.1007085233879
556,1437230204210,41.9473920383007
557,1437230204916,54.3168315276767
558,1437230205665,45.7201814538503
559,1437230206412,38.9531223312733
560,1437230207105,38.2853362095989
561,1437230207837,35.3695422317308
562,1437230208559,48.0551592214268
563,1437230209241,30.6694289619565
564,1437230209974,42.0985648266714
565,1437230210720,28.10800449114
566,1437230211440,43.2230611678003
567,1437230212181,35.9314353553654
568,1437230212920,57.1889690278491
569,1437230213667,31.3800319221737
570,1437230214376,43.3654896300497
571,1437230215113,33.2325620684862
572,1437230215862,32.7513570070991
573,1437230216595,29.7917680470285
574,1437230217334,41.2856278972833
575,1437230218041,29.6766246009777
