id,attr_time,attr_db
1,1437234488485,40.1869591918179
2,1437234488965,43.4349199331579
3,1437234489434,51.6879795159374
4,1437234489862,43.4025166914759
5,1437234490312,48.9752701982254
6,1437234490797,43.4744905961562
7,1437234491280,42.4130839536206
8,1437234491779,46.8969664007154
9,1437234492278,46.1837278706644
10,1437234492760,49.3404692962463
11,1437234493190,46.9879470800252
12,1437234493655,46.4841550756239
13,1437234494141,48.823372108794
14,1437234494621,54.3108023260941
15,1437234495141,48.195952726886
16,1437234495621,43.7055916904986
17,1437234496075,48.7514530249403
18,1437234496501,53.2531041588611
19,1437234496899,54.2789179302281
20,1437234498246,49.7041077601588
21,1437234498680,49.5778528689608
22,1437234499170,45.1574627895076
23,1437234499646,38.9974328148526
24,1437234500199,42.507543701879
25,1437234500697,39.6745644222482
26,1437234501194,30.8091857112445
27,1437234501695,43.6952564981345
28,1437234502199,46.0089265760407
29,1437234502685,44.7872943693055
30,1437234503127,48.101400011446
31,1437234503535,41.2128721614784
32,1437234504019,45.8223880012535
33,1437234504514,36.0587494658291
34,1437234505003,37.8733163807496
35,1437234505508,59.3025585182417
36,1437234505907,42.7736971980466
37,1437234506326,41.2892414983623
38,1437234506801,38.2568007329143
39,1437234507324,43.631889664631
40,1437234507829,48.9523524746204
41,1437234508312,37.3693518964572
42,1437234508809,44.3747696239908
43,1437234509298,46.3955863514062
44,1437234509798,61.1336240166397
45,1437234510371,53.1598496842898
46,1437234510846,48.4446045939736
47,1437234511310,54.7644519288966
48,1437234511794,51.8425451900383
49,1437234512279,51.1498512890468
50,1437234512788,47.6769639348571
51,1437234513273,50.5719503381347
52,1437234513721,39.92082850229
53,1437234514155,35.3727637958691
54,1437234514601,50.0537240542887
55,1437234515093,46.5055248699709
56,1437234515585,56.737548143578
57,1437234516059,58.8923063687454
58,1437234516563,55.5985224738265
59,1437234516889,44.5539247371951
60,1437234517316,53.5574773201634
61,1437234517803,41.8288575651579
62,1437234518237,42.0059775082187
63,1437234518671,59.2120008097514
64,1437234519144,52.9336759688961
65,1437234519617,47.6352267775869
66,1437234521219,43.1215496539906
67,1437234521657,48.8934365478085
68,1437234522142,54.5832944792562
69,1437234522627,60.1923962661914
70,1437234523109,39.8073490595616
71,1437234523619,36.8955137412993
72,1437234524121,40.381917284952
73,1437234524600,39.9562692306945
74,1437234525020,37.1659313426029
75,1437234525523,54.6022702677307
76,1437234526021,45.6233890694492
77,1437234526512,49.5068076697945
78,1437234527004,31.3036898844707
79,1437234527485,34.5977112815547
80,1437234528000,38.9972598849535
81,1437234528484,56.0994551005611
82,1437234528964,42.7949385044912
83,1437234529459,35.2396638877604
84,1437234530038,43.143026261827
85,1437234530542,51.9691182517222
86,1437234531037,52.7240067256234
87,1437234531551,41.6412519640791
88,1437234532041,39.3405404536253
89,1437234532485,59.5893500743215
90,1437234533694,55.2535447916903
91,1437234534112,51.3073418293758
92,1437234534569,41.5845241931281
93,1437234535092,37.482324197253
94,1437234535563,36.2492966605598
95,1437234536066,39.4317289736011
96,1437234536544,39.3155048355131
97,1437234537032,56.0995037918246
98,1437234537526,57.2115187291726
99,1437234537992,50.1045692545755
100,1437234538418,58.8257076700374
101,1437234538891,51.9140856832029
102,1437234539462,49.9687515831538
103,1437234539838,36.1789194085751
104,1437234540255,42.536706086469
105,1437234540687,39.4208730994129
106,1437234541182,46.9869069641105
107,1437234541639,44.2355448349522
108,1437234542091,48.5683489940026
109,1437234542590,41.1993624652402
110,1437234543071,42.1798881092333
111,1437234543577,45.4338495947066
112,1437234544049,40.9283487176802
113,1437234544540,38.9547218785236
114,1437234545057,36.4674200992331
115,1437234545552,32.6223132069021
116,1437234546052,37.8565385976107
117,1437234546541,42.9482200327552
118,1437234547031,40.009151416053
119,1437234547519,36.0531433360707
120,1437234548065,49.3058729150928
121,1437234548562,39.6112931508504
122,1437234549039,37.7732630824609
123,1437234549535,37.437587070591
124,1437234550063,39.3921123689389
125,1437234550539,29.3943904956107
126,1437234550924,39.3566372596052
127,1437234551345,41.4153416466401
128,1437234551817,32.7236006346433
129,1437234552310,39.8825219488301
130,1437234552811,40.724006046422
131,1437234553297,35.922559258836
132,1437234553790,56.4236315382752
133,1437234554302,41.3437429333166
134,1437234554799,35.958858749842
135,1437234555362,38.6914390690087
136,1437234555854,41.367610469181
137,1437234556369,34.4969687020414
138,1437234556820,35.7106796542956
139,1437234557236,34.964898143207
140,1437234557713,41.4120115967946
141,1437234558267,37.6936822073879
142,1437234558672,29.6891586885586
143,1437234559135,43.2572248072158
144,1437234559637,38.6704892279881
145,1437234560136,56.4904198963988
146,1437234560623,45.882458825177
147,1437234561117,56.7803139312652
148,1437234561615,33.1062401748439
149,1437234562097,33.8623761802537
150,1437234562537,31.2037488568845
151,1437234563004,32.3565381598807
152,1437234563487,44.401198277645
153,1437234563969,29.5054233378968
154,1437234564460,44.8008484873398
155,1437234565012,43.4804642750306
156,1437234565496,33.5315357597977
157,1437234565999,50.0018007123061
158,1437234566481,41.0062172336583
159,1437234566961,41.4649210635574
160,1437234567422,44.7077132786143
161,1437234567879,45.3868325902129
162,1437234568377,38.4850759714934
163,1437234568862,41.825083688508
164,1437234569354,42.0108406099136
165,1437234569841,42.2361106297245
166,1437234570401,45.0779407771038
167,1437234570873,38.0455929167466
168,1437234571359,45.321243808018
169,1437234571835,39.1866687722219
170,1437234572328,42.6577033931529
171,1437234572810,41.3425820301346
172,1437234573299,38.2770931911929
173,1437234573795,46.8486434020244
174,1437234574290,51.0235293096748
175,1437234574793,39.0699635847863
176,1437234575287,43.7162604041329
177,1437234575794,35.5519979842261
178,1437234576305,41.6653579539341
179,1437234576800,38.2724807078075
180,1437234577281,37.4065289180888
181,1437234577800,44.4375469563005
182,1437234578283,33.3243480034415
183,1437234578672,44.5924746939183
184,1437234579119,51.1362122780904
185,1437234579599,39.4611278214248
186,1437234580118,33.3054743255344
187,1437234580603,40.8772947761486
188,1437234581073,23.4212580427092
189,1437234581495,36.5154113588486
190,1437234581913,38.8974632092761
191,1437234582357,41.1265093045168
192,1437234582817,37.6120005767005
193,1437234583299,37.2799675799156
194,1437234583792,39.2247010099445
195,1437234584293,47.6831744094964
196,1437234584721,46.6035467033877
197,1437234585145,43.7091564973697
198,1437234585587,35.868680251308
199,1437234586045,36.240912419702
200,1437234586536,32.3337745512959
201,1437234587015,41.5276082407979
202,1437234587504,45.5697287652124
203,1437234587976,22.6456448597619
204,1437234588439,34.7185530966396
205,1437234588936,34.6404636981311
206,1437234589416,32.4853003266463
207,1437234589890,36.6666409297943
208,1437234590372,41.4483878569502
209,1437234590850,36.3469292776646
210,1437234591338,33.1414314536378
211,1437234591836,34.3199102437527
212,1437234592339,39.8694168723059
213,1437234592817,41.6767367854585
214,1437234593293,45.2706843324095
215,1437234593705,41.3571230569212
216,1437234594085,59.5658721949864
217,1437234594497,46.1886254288324
218,1437234594931,39.9180536958428
219,1437234595363,51.2140055525058
220,1437234595780,52.5456087866236
221,1437234596232,46.3533214181472
222,1437234596710,52.961268528382
223,1437234597201,28.7942919290898
224,1437234597681,42.836482586679
225,1437234598181,41.121893140672
226,1437234598669,48.0351725727014
227,1437234599149,47.2288876564189
228,1437234599595,49.9065148394278
229,1437234600115,41.9425578935245
230,1437234600672,48.7341068867065
231,1437234601164,49.6483949519546
232,1437234601649,42.0679498365617
233,1437234602112,55.8409184642078
234,1437234602594,27.2849721739063
235,1437234603080,56.5579976270153
236,1437234603569,44.830937213039
237,1437234604053,46.7445597218989
238,1437234604512,43.7858153592034
239,1437234604996,40.8497465491758
240,1437234605470,37.4703370190087
241,1437234605967,26.1737556269532
242,1437234606449,49.6649556473223
243,1437234606927,46.0492048263018
244,1437234607440,37.1562731731101
245,1437234607835,31.432975165704
246,1437234608204,41.9699508809109
247,1437234608606,50.4256421219156
248,1437234609089,36.0445340649019
249,1437234609560,40.8033293989021
250,1437234610007,33.7542974654907
251,1437234610434,36.2036012904438
252,1437234610877,47.8888875435297
253,1437234611362,55.6064926786673
254,1437234611837,44.5116075190963
255,1437234612345,56.3794280286489
256,1437234612835,55.2133485986837
257,1437234613366,54.7766285356376
258,1437234613845,52.4035585527978
259,1437234614321,47.5532443665426
260,1437234614828,47.2990732176448
261,1437234615392,42.9982411371593
262,1437234615881,42.7293290676339
263,1437234616387,39.1674658565691
264,1437234616908,48.0553387864275
265,1437234617401,50.6560157230715
266,1437234617895,56.0861233371138
267,1437234618380,47.2466073436327
268,1437234618797,58.0824160265381
269,1437234619135,49.8861270413857
270,1437234619600,59.5329303676714
271,1437234620082,54.1327018728843
272,1437234620571,49.5564009011497
273,1437234621052,45.6510802230769
274,1437234621533,39.8927492870228
275,1437234622005,50.0790148335031
276,1437234622462,40.5250303462039
277,1437234622930,53.9393129502527
278,1437234623425,39.3414059244934
279,1437234623862,47.9423686746927
280,1437234624320,48.3872034058162
281,1437234624811,56.5376435241914
282,1437234625316,53.1145049459879
283,1437234625870,52.2892814727376
284,1437234626359,50.1082417790054
285,1437234626850,41.7854917120832
286,1437234627336,46.0768597419337
287,1437234627829,49.5085950651135
288,1437234628318,53.6810036994853
289,1437234628806,50.641609547877
290,1437234629266,45.1251958046115
291,1437234629705,48.2568138749595
292,1437234630204,46.1686388382334
293,1437234630671,46.8977431618101
294,1437234631163,52.0435827938265
295,1437234631644,46.2448781915009
296,1437234632126,47.9944125500467
297,1437234632612,45.6138741428748
298,1437234633100,45.973409880436
299,1437234633576,58.7920708594853
300,1437234634061,57.0948041589511
301,1437234634604,55.9260208188183
302,1437234635047,57.7391965979852
303,1437234635456,52.8010740202667
304,1437234635872,47.0183555196622
305,1437234636325,53.2625823977871
306,1437234636811,50.8948451491415
307,1437234637308,52.9775857553003
308,1437234637793,46.0437217502321
309,1437234638289,57.6088384380545
310,1437234638774,43.1208449546894
311,1437234639218,44.7451244197398
312,1437234639591,51.4076064727938
313,1437234640005,39.1041020046081
314,1437234640493,45.0848701012688
315,1437234640971,40.37816056821
316,1437234641446,48.893857103246
317,1437234641949,59.7028417867491
318,1437234642438,54.271882312506
319,1437234642907,48.76594511785
320,1437234643398,49.15997424187
321,1437234643888,49.7907927659692
322,1437234644401,42.9862457364984
323,1437234644906,41.5822631096935
324,1437234645357,39.3733295101719
325,1437234645859,43.9940588148346
326,1437234646352,35.6509153969847
327,1437234646842,41.8102854442445
328,1437234647330,40.4205674646447
329,1437234647830,44.05642572227
330,1437234648332,43.5338315317791
331,1437234648834,42.3411543237359
332,1437234649322,60.1356007548555
333,1437234649809,56.6147067210331
334,1437234650273,46.1829701586974
335,1437234650670,37.6341602012858
336,1437234651075,46.9235759785895
337,1437234651518,44.2655105665093
338,1437234651987,38.3647162511044
339,1437234652475,60.2590424477598
340,1437234652946,37.2340976256046
341,1437234653415,55.2928218210358
342,1437234653858,48.8464466470401
343,1437234654322,51.2319527651412
344,1437234654863,62.8412190388286
345,1437234655365,58.7440709779179
346,1437234655860,44.436731743965
347,1437234656365,57.314472461513
348,1437234656866,48.7720230080952
349,1437234657367,48.6320461138728
350,1437234657851,47.4037845758755
351,1437234658342,55.0910623585627
352,1437234658830,42.6506097553044
353,1437234659295,52.5304870770732
354,1437234659816,44.6392921775497
355,1437234660296,41.2002874851357
356,1437234660737,44.0475474269267
357,1437234661150,39.6599098045613
358,1437234661611,58.7608800580068
359,1437234662079,55.0999759212409
360,1437234662527,58.3717923245943
361,1437234662987,51.1724446171149
362,1437234663405,41.1191577597972
363,1437234663907,41.8724349209289
364,1437234664388,40.1047942003766
365,1437234664832,36.321523013888
366,1437234665280,49.7021533520053
367,1437234665757,47.4861147847804
368,1437234666256,45.7581664326893
369,1437234667224,43.6530971018049
370,1437234667600,35.2386967800959
371,1437234668090,46.670198577954
372,1437234668570,49.5874058773655
373,1437234669123,55.757426110553
374,1437234669610,48.5895006560546
375,1437234670162,52.4689749881614
376,1437234670654,45.2309017595509
377,1437234671152,54.8250784721113
378,1437234671585,58.8778568611263
379,1437234672035,33.9206390787269
380,1437234672544,36.4889519237358
381,1437234673011,43.5574313673304
382,1437234673479,48.1916618021708
383,1437234673917,59.2652402980157
384,1437234674433,41.9456042795556
385,1437234674860,47.8787149978313
386,1437234675293,37.4373879954534
387,1437234675773,44.3580167985852
388,1437234676265,34.782512287497
389,1437234676764,56.6124341859173
390,1437234677286,59.8113186619291
391,1437234677761,37.8910982762082
392,1437234678260,49.7013856865309
393,1437234678751,60.2101145398088
394,1437234679197,45.3295465173566
395,1437234679585,47.8659812377272
396,1437234680015,36.5836469437927
397,1437234680478,50.8699655124563
398,1437234680964,41.8252789190474
399,1437234681442,64.5424595320509
400,1437234681874,38.4089400430076
401,1437234682312,38.988445851972
402,1437234682773,47.0641641993942
403,1437234683263,50.9225330839829
404,1437234683741,44.675830024185
405,1437234684252,50.2270974290457
406,1437234684728,49.5160609586794
407,1437234685251,44.1710387596621
408,1437234685626,58.6364774424214
409,1437234686050,51.9117018322928
410,1437234686522,37.8137177510092
411,1437234688250,54.3312655785688
412,1437234688703,57.8426388324871
413,1437234689162,56.1695453491028
414,1437234689634,36.5589277609549
415,1437234690136,37.5083513195909
416,1437234690641,32.7774129897214
417,1437234691132,36.5562483175087
418,1437234691619,29.5171263619363
419,1437234692120,40.4104353201927
420,1437234692622,41.5526093557937
421,1437234693070,39.3819135998
422,1437234693517,52.049404819815
423,1437234693994,47.306828959118
424,1437234694483,41.2033606390557
425,1437234694944,47.0546799865685
426,1437234695485,52.4789509981835
427,1437234695947,54.4766700007272
428,1437234696404,41.798708576834
429,1437234696829,35.2379223600698
430,1437234697306,56.6454289145485
431,1437234697781,29.634298390098
432,1437234698303,41.589425350621
433,1437234698808,38.2286213762215
434,1437234699312,54.8687407767801
435,1437234699726,33.6136766308324
436,1437234700159,46.7713682936791
437,1437234700602,38.7065390813983
438,1437234701093,35.660470332148
439,1437234701587,41.3906120118735
440,1437234702083,60.1328430110256
441,1437234702574,39.8840821394271
442,1437234703072,47.7638720205081
443,1437234703525,59.3741099690357
444,1437234703905,44.344176723009
445,1437234704429,39.6155482398443
446,1437234704894,59.0775281210439
447,1437234706676,50.3427283169047
448,1437234707160,48.4496170552869
449,1437234707627,46.2804883247373
450,1437234708109,36.0259656353627
451,1437234708590,51.5012503602246
452,1437234709065,45.8878086855886
453,1437234709549,46.0875348812972
454,1437234710054,35.5211042466752
455,1437234710572,50.1835384790835
456,1437234711013,46.7453736442996
457,1437234711501,54.7065245029445
458,1437234711991,34.9967722627167
459,1437234712471,40.549181687304
460,1437234712965,58.4470243445678
461,1437234713463,59.9292036322574
462,1437234713872,33.9699133373345
463,1437234714313,45.2738036552654
464,1437234714738,44.3622410533848
465,1437234715306,54.5308444995865
466,1437234715778,37.4921002415614
467,1437234716283,39.4777075588345
468,1437234716744,54.7934113039623
469,1437234717184,38.1794670289013
470,1437234717638,58.0532866985911
471,1437234718127,47.0211807372369
472,1437234718622,56.7693890766113
473,1437234719120,40.5119087072885
474,1437234719600,44.7115081477611
475,1437234720031,42.854884437652
476,1437234720582,41.4247775348682
477,1437234721083,43.3473357038053
478,1437234721590,46.6025827509603
479,1437234722069,47.7634342000417
480,1437234722572,50.0106861420102
481,1437234723071,49.0646367564905
482,1437234723551,48.3744875935485
483,1437234724024,45.1344944686017
484,1437234724497,50.5106998696243
485,1437234724905,54.6999823526066
486,1437234725388,61.1265687195198
487,1437234725859,61.9583460999285
488,1437234726333,49.8099535319961
489,1437234726835,54.041557605824
490,1437234727321,43.2650222704165
491,1437234727807,44.8524136946803
492,1437234728323,41.9614980088482
493,1437234728807,43.3891724057627
494,1437234729318,41.0970557826946
495,1437234729819,45.2494396719606
496,1437234730366,45.7385353582679
497,1437234730852,42.6867215798646
498,1437234731329,41.5486813620836
499,1437234731783,49.5011823904665
500,1437234732240,45.0178048412135
501,1437234732711,51.8342823760862
502,1437234733224,43.0728541262662
503,1437234733714,51.9456835240919
504,1437234734262,51.1775901615274
505,1437234734741,52.1632177447702
506,1437234735190,44.653988212247
507,1437234735572,48.508485028339
508,1437234735970,45.3914703617761
509,1437234737377,46.3429006071083
510,1437234737792,48.9468043503179
511,1437234738264,54.1354265039465
512,1437234738740,50.0195010030351
513,1437234739262,48.3110587188963
514,1437234739789,54.1173005650035
515,1437234740281,54.3875817473037
516,1437234740660,50.5936266726337
517,1437234741105,47.3345504796722
518,1437234741581,45.7797601452567
519,1437234742071,43.9272163795927
520,1437234742570,44.9175953500694
521,1437234743042,61.6973837776853
522,1437234743498,41.4509513910477
523,1437234743931,46.6003615197592
524,1437234744379,49.4641425898459
525,1437234744824,44.2418100943049
526,1437234745265,42.4104132791358
527,1437234745677,41.5236421111647
528,1437234746164,39.1194163194155
529,1437234746654,43.627346447438
530,1437234747134,47.582697418999
531,1437234747615,49.4620694661052
532,1437234748099,59.4241351488802
533,1437234748576,41.5935462714546
534,1437234749063,62.3558175318551
535,1437234749562,57.6139595766049
536,1437234750051,46.2602691252396
537,1437234750549,43.6826661115488
538,1437234751050,59.0716411469452
539,1437234751550,51.401901639726
540,1437234752043,44.8859270766831
541,1437234752509,48.6616901178838
542,1437234754131,55.6982971962324
543,1437234754558,56.1571733650128
544,1437234755036,46.3869769210289
545,1437234755550,46.284370636586
546,1437234756055,58.4904708005492
547,1437234756544,57.2392170610128
548,1437234757024,61.9713724585213
549,1437234757498,61.174279695889
550,1437234757996,53.0714240182561
551,1437234758500,58.1561327450434
552,1437234758994,46.7681932219596
553,1437234759489,50.3385528787
554,1437234759963,47.2824106595521
555,1437234760381,42.2738991489771
556,1437234760847,45.0421243880364
557,1437234761300,44.9894907962735
558,1437234761789,51.9789024636205
559,1437234762282,56.0849559973342
560,1437234762786,51.169925629217
561,1437234763282,46.6413076954369
562,1437234763789,49.0804170119377
563,1437234764275,49.0165968174487
564,1437234764739,50.9293608820747
565,1437234765197,50.0350279328365
566,1437234765594,39.7108768908161
567,1437234766028,56.1306027211238
568,1437234766509,53.5388678485489
569,1437234766994,48.2943722240406
570,1437234767502,43.6897169383193
571,1437234767985,54.2480602500123
572,1437234768471,49.9872171687598
573,1437234768943,54.4947269143774
574,1437234769421,41.8271177233364
575,1437234769901,51.8706565770659
576,1437234770376,48.6977587428287
