id,attr_time,attr_x,attr_y,attr_z
1,1437234488006,-54.928,-17.628,0.0
2,1437234488029,-54.928,-17.628,0.0
3,1437234488050,-54.928,-17.628,0.0
4,1437234488069,-54.928,-17.628,0.0
5,1437234488089,-54.928,-17.628,0.366
6,1437234488109,-54.928,-17.628,0.366
7,1437234488126,-54.928,-17.628,0.366
8,1437234488147,-54.928,-17.628,0.366
9,1437234488166,-54.928,-17.628,0.366
10,1437234488187,-54.928,-17.628,0.366
11,1437234488207,-55.238,-17.628,0.366
12,1437234488232,-55.238,-17.628,0.366
13,1437234488246,-55.238,-17.628,0.366
14,1437234488268,-55.238,-17.628,0.366
15,1437234488287,-55.238,-17.628,0.366
16,1437234488307,-55.238,-17.628,0.366
17,1437234488327,-55.238,-17.628,0.366
18,1437234488350,-55.238,-17.628,0.366
19,1437234488412,-55.238,-17.628,0.366
20,1437234488413,-55.238,-17.628,0.019
21,1437234488414,-55.238,-17.628,0.019
22,1437234488437,-55.238,-17.628,0.019
23,1437234488447,-55.238,-17.628,0.019
24,1437234488480,-55.238,-17.628,-0.335
25,1437234488488,-55.238,-17.628,-0.335
26,1437234488510,-55.238,-17.628,-0.335
27,1437234488532,-55.238,-17.628,-0.677
28,1437234488549,-55.238,-17.628,-0.677
29,1437234488569,-55.238,-17.628,-0.677
30,1437234488587,-55.238,-17.628,-0.677
31,1437234488608,-55.238,-17.628,-1.045
32,1437234488627,-55.238,-17.628,-1.045
33,1437234488648,-55.238,-17.628,-1.045
34,1437234488667,-55.238,-17.628,-1.045
35,1437234488691,-55.238,-17.628,-1.045
36,1437234488707,-55.238,-17.628,-1.364
37,1437234488730,-55.238,-17.628,-1.364
38,1437234488747,-55.238,-17.628,-1.364
39,1437234488767,-55.238,-17.628,-1.364
40,1437234488787,-55.238,-17.628,-1.364
41,1437234488810,-55.238,-17.628,-1.692
42,1437234488916,-55.238,-17.628,-1.692
43,1437234488917,-55.238,-17.628,-1.692
44,1437234488949,-55.238,-17.628,-1.692
45,1437234488950,-55.238,-17.628,-1.692
46,1437234488951,-55.238,-17.628,-2.043
47,1437234488952,-54.934,-17.628,-2.043
48,1437234488953,-54.934,-17.628,-2.043
49,1437234488969,-54.934,-17.628,-2.043
50,1437234489000,-54.934,-17.628,-2.043
51,1437234489007,-54.934,-17.628,-2.36
52,1437234489030,-54.934,-17.628,-2.36
53,1437234489050,-54.934,-17.628,-2.36
54,1437234489069,-54.934,-17.628,-2.36
55,1437234489092,-54.934,-17.628,-2.734
56,1437234489107,-54.934,-17.628,-2.734
57,1437234489127,-54.934,-17.628,-2.734
58,1437234489148,-54.934,-17.628,-2.734
59,1437234489167,-54.934,-17.628,-3.096
60,1437234489194,-54.934,-17.628,-3.096
61,1437234489212,-54.934,-17.628,-3.096
62,1437234489233,-54.934,-17.628,-3.096
63,1437234489249,-54.934,-17.628,-3.437
64,1437234489267,-54.934,-17.628,-3.437
65,1437234489287,-54.934,-17.628,-3.437
66,1437234489307,-54.934,-17.628,-3.437
67,1437234489330,-54.934,-17.628,-3.437
68,1437234489350,-54.934,-17.628,-3.791
69,1437234489395,-54.934,-17.628,-3.791
70,1437234489397,-54.934,-17.628,-3.791
71,1437234489414,-54.934,-17.628,-3.791
72,1437234489440,-54.934,-17.628,-4.139
73,1437234489448,-54.934,-17.628,-4.139
74,1437234489467,-54.934,-17.628,-4.139
75,1437234489488,-54.934,-17.628,-4.139
76,1437234489508,-54.934,-17.628,-4.139
77,1437234489530,-54.934,-17.628,-4.139
78,1437234489549,-54.934,-17.628,-4.139
79,1437234489569,-54.934,-17.628,-4.139
80,1437234489588,-54.934,-17.628,-4.139
81,1437234489609,-54.934,-17.628,-4.139
82,1437234489628,-54.934,-17.628,-4.139
83,1437234489648,-54.934,-17.628,-4.139
84,1437234489668,-54.934,-17.628,-3.814
85,1437234489690,-54.934,-17.628,-3.814
86,1437234489714,-54.934,-17.628,-3.507
87,1437234489730,-54.934,-17.628,-3.507
88,1437234489750,-54.934,-17.628,-2.857
89,1437234489769,-54.934,-17.628,-2.42
90,1437234489788,-54.934,-17.628,-2.069
91,1437234489808,-54.934,-17.628,-2.069
92,1437234489828,-54.934,-17.628,-1.556
93,1437234489937,-54.934,-17.628,-1.556
94,1437234489938,-54.934,-17.628,-1.556
95,1437234489939,-54.934,-17.628,-1.17
96,1437234489940,-54.934,-17.628,-1.17
97,1437234489941,-54.934,-17.628,-1.17
98,1437234489973,-54.934,-17.628,-1.17
99,1437234489974,-54.934,-17.628,-0.842
100,1437234489988,-54.934,-17.628,-0.842
101,1437234490012,-54.934,-17.628,-0.509
102,1437234490033,-54.934,-17.628,-0.509
103,1437234490049,-54.934,-17.628,-0.199
104,1437234490071,-54.934,-17.628,-0.199
105,1437234490091,-54.934,-17.628,0.099
106,1437234490111,-54.934,-17.628,0.099
107,1437234490128,-54.934,-17.628,0.099
108,1437234490150,-54.934,-17.628,0.515
109,1437234490171,-54.934,-17.628,0.515
110,1437234490188,-54.934,-17.628,0.515
111,1437234490209,-54.934,-17.628,0.909
112,1437234490233,-54.934,-17.628,0.909
113,1437234490250,-54.934,-17.628,0.909
114,1437234490271,-54.934,-17.628,1.266
115,1437234490290,-54.934,-17.628,1.266
116,1437234490309,-54.934,-17.628,1.266
117,1437234490340,-54.934,-17.628,1.266
118,1437234490401,-54.934,-17.628,1.611
119,1437234490402,-54.934,-17.628,1.611
120,1437234490403,-54.934,-17.628,1.611
121,1437234490428,-54.934,-17.628,1.611
122,1437234490429,-54.934,-17.628,1.611
123,1437234490472,-54.934,-17.628,1.611
124,1437234490473,-54.934,-17.628,1.611
125,1437234490488,-54.934,-17.628,1.611
126,1437234490511,-54.934,-17.628,1.611
127,1437234490529,-54.934,-17.628,1.611
128,1437234490550,-54.934,-17.628,1.611
129,1437234490572,-54.934,-17.628,1.611
130,1437234490598,-54.934,-17.628,1.611
131,1437234490611,-54.934,-17.628,1.611
132,1437234490632,-54.934,-17.628,1.24
133,1437234490649,-54.934,-17.628,1.24
134,1437234490670,-54.934,-17.628,1.24
135,1437234490691,-54.934,-17.628,0.859
136,1437234490710,-54.934,-17.628,0.859
137,1437234490732,-54.934,-17.628,0.859
138,1437234490749,-54.934,-17.628,0.521
139,1437234490770,-54.934,-17.628,0.521
140,1437234490789,-54.934,-17.628,0.521
141,1437234490937,-54.934,-17.628,0.163
142,1437234490938,-54.934,-17.628,0.163
143,1437234490939,-54.934,-17.628,0.163
144,1437234490940,-54.934,-17.628,0.163
145,1437234490941,-54.934,-17.628,-0.228
146,1437234490942,-54.934,-17.628,-0.228
147,1437234490943,-54.934,-17.628,-0.228
148,1437234491032,-54.934,-17.628,-0.595
149,1437234491033,-54.934,-17.628,-0.595
150,1437234491034,-54.934,-17.628,-0.595
151,1437234491035,-54.934,-17.628,-0.944
152,1437234491036,-54.934,-17.628,-0.944
153,1437234491049,-54.934,-17.628,-0.944
154,1437234491069,-54.934,-17.628,-0.944
155,1437234491089,-54.934,-17.628,-1.277
156,1437234491109,-54.934,-17.628,-1.277
157,1437234491131,-54.934,-17.628,-1.277
158,1437234491151,-54.934,-17.628,-1.277
159,1437234491171,-54.934,-17.628,-1.623
160,1437234491194,-54.934,-17.628,-1.623
161,1437234491215,-54.934,-17.628,-1.623
162,1437234491234,-54.934,-17.628,-1.623
163,1437234491252,-54.934,-17.628,-1.971
164,1437234491269,-54.934,-17.628,-1.971
165,1437234491289,-54.934,-17.628,-1.971
166,1437234491309,-54.934,-17.628,-1.971
167,1437234491333,-54.934,-17.628,-2.31
168,1437234491351,-54.934,-17.628,-2.31
169,1437234491417,-54.934,-17.628,-2.31
170,1437234491418,-54.934,-17.628,-2.31
171,1437234491419,-54.934,-17.628,-2.665
172,1437234491444,-54.934,-17.628,-2.665
173,1437234491450,-54.934,-17.628,-2.665
174,1437234491493,-54.934,-17.628,-2.665
175,1437234491494,-54.934,-17.628,-3.067
176,1437234491510,-54.934,-17.628,-3.067
177,1437234491532,-54.934,-17.628,-3.067
178,1437234491550,-54.934,-17.628,-3.067
179,1437234491571,-54.934,-17.628,-3.451
180,1437234491592,-54.934,-17.628,-3.451
181,1437234491609,-54.934,-17.628,-3.451
182,1437234491633,-54.934,-17.628,-3.79
183,1437234491654,-54.629,-17.628,-3.79
184,1437234491673,-54.629,-17.628,-3.79
185,1437234491693,-54.629,-17.628,-3.79
186,1437234491712,-54.629,-17.628,-4.125
187,1437234491733,-54.629,-17.628,-4.125
188,1437234491753,-54.629,-17.628,-4.125
189,1437234491771,-54.629,-17.628,-4.125
190,1437234491793,-54.629,-17.628,-4.125
191,1437234491811,-54.629,-17.628,-4.125
192,1437234491935,-54.629,-17.628,-4.125
193,1437234491936,-54.629,-17.628,-4.463
194,1437234491937,-54.629,-17.628,-4.463
195,1437234491938,-54.629,-17.628,-4.463
196,1437234491939,-54.629,-17.628,-4.463
197,1437234491940,-54.629,-17.628,-4.463
198,1437234491971,-54.629,-17.628,-4.463
199,1437234491972,-54.629,-17.628,-4.463
200,1437234491990,-54.629,-17.628,-4.463
201,1437234492013,-54.629,-17.628,-4.463
202,1437234492032,-54.629,-17.628,-4.463
203,1437234492050,-54.629,-17.628,-4.463
204,1437234492071,-54.629,-17.628,-4.463
205,1437234492091,-54.629,-17.628,-4.463
206,1437234492115,-54.629,-17.628,-4.463
207,1437234492133,-54.629,-17.628,-4.463
208,1437234492152,-54.629,-17.628,-4.463
209,1437234492172,-54.629,-17.628,-4.463
210,1437234492192,-54.629,-17.628,-4.158
211,1437234492216,-54.629,-17.628,-4.158
212,1437234492236,-54.629,-17.628,-4.158
213,1437234492256,-54.629,-17.628,-3.782
214,1437234492273,-54.629,-17.628,-3.782
215,1437234492290,-54.629,-17.628,-3.309
216,1437234492310,-54.629,-17.628,-3.309
217,1437234492333,-54.629,-17.628,-2.796
218,1437234492359,-54.629,-17.628,-2.796
219,1437234492421,-54.629,-17.628,-2.796
220,1437234492422,-54.629,-17.628,-2.45
221,1437234492423,-54.629,-17.628,-2.45
222,1437234492443,-54.629,-17.628,-2.091
223,1437234492454,-54.629,-17.628,-2.091
224,1437234492498,-54.629,-17.628,-1.696
225,1437234492499,-54.629,-17.628,-1.696
226,1437234492512,-54.629,-17.628,-1.368
227,1437234492535,-54.629,-17.628,-1.368
228,1437234492551,-54.629,-17.628,-1.368
229,1437234492573,-54.629,-17.628,-0.946
230,1437234492594,-54.629,-17.628,-0.946
231,1437234492614,-54.629,-17.628,-0.946
232,1437234492634,-54.629,-17.628,-0.595
233,1437234492650,-54.629,-17.628,-0.595
234,1437234492671,-54.629,-17.628,-0.595
235,1437234492717,-54.629,-17.628,-0.248
236,1437234492718,-54.629,-17.628,-0.248
237,1437234492735,-54.629,-17.628,-0.248
238,1437234492751,-54.629,-17.628,0.117
239,1437234492771,-54.629,-17.628,0.117
240,1437234492791,-54.629,-17.628,0.117
241,1437234492817,-54.943,-17.628,0.117
242,1437234492842,-54.943,-17.628,0.476
243,1437234492859,-54.943,-17.628,0.476
244,1437234492896,-54.943,-17.628,0.476
245,1437234492897,-54.943,-17.628,0.476
246,1437234492910,-54.943,-17.628,0.476
247,1437234492934,-54.943,-17.628,0.793
248,1437234492953,-54.943,-17.628,0.793
249,1437234492970,-54.943,-17.628,0.793
250,1437234492992,-54.943,-17.628,0.793
251,1437234493010,-54.943,-17.628,0.793
252,1437234493032,-54.943,-17.628,0.793
253,1437234493050,-54.943,-17.628,0.793
254,1437234493069,-54.943,-17.628,0.793
255,1437234493089,-54.943,-17.628,0.793
256,1437234493110,-54.943,-17.628,0.793
257,1437234493129,-54.943,-17.628,0.793
258,1437234493149,-54.943,-17.628,0.793
259,1437234493169,-54.943,-17.628,0.793
260,1437234493189,-54.943,-17.628,0.793
261,1437234493210,-54.943,-17.628,0.44
262,1437234493230,-54.943,-17.628,0.44
263,1437234493250,-54.943,-17.628,0.44
264,1437234493270,-54.943,-17.628,0.44
265,1437234493290,-54.943,-17.628,0.074
266,1437234493310,-54.943,-17.628,0.074
267,1437234493330,-54.943,-17.628,0.074
268,1437234493350,-54.943,-17.628,0.074
269,1437234493370,-54.943,-17.628,-0.296
270,1437234493390,-54.943,-17.628,-0.296
271,1437234493410,-54.943,-17.628,-0.296
272,1437234493430,-54.943,-17.628,-0.296
273,1437234493450,-54.943,-17.628,-0.596
274,1437234493472,-54.943,-17.628,-0.596
275,1437234493492,-54.943,-17.628,-0.596
276,1437234493514,-54.943,-17.628,-0.596
277,1437234493532,-54.943,-17.628,-0.596
278,1437234493553,-54.943,-17.628,-0.967
279,1437234493575,-54.943,-17.628,-0.967
280,1437234493593,-54.943,-17.628,-0.967
281,1437234493613,-54.943,-17.628,-0.967
282,1437234493632,-54.943,-17.628,-1.286
283,1437234493652,-54.943,-17.628,-1.286
284,1437234493745,-54.943,-17.628,-1.286
285,1437234493746,-54.943,-17.628,-1.286
286,1437234493747,-54.943,-17.628,-1.286
287,1437234493748,-54.943,-17.628,-1.609
288,1437234493810,-54.943,-17.628,-1.609
289,1437234493818,-54.943,-17.628,-1.609
290,1437234493819,-54.943,-17.628,-1.609
291,1437234493820,-54.943,-17.628,-1.609
292,1437234493839,-54.943,-17.628,-1.609
293,1437234493857,-54.943,-17.628,-1.609
294,1437234493888,-54.943,-17.628,-1.962
295,1437234493892,-54.943,-17.628,-1.962
296,1437234493913,-54.943,-17.628,-1.962
297,1437234493934,-54.943,-17.628,-1.962
298,1437234493952,-54.943,-17.628,-1.962
299,1437234493972,-54.943,-17.628,-1.962
300,1437234493997,-54.943,-17.628,-1.962
301,1437234494018,-54.943,-17.628,-1.962
302,1437234494039,-54.943,-17.628,-2.285
303,1437234494056,-54.943,-17.628,-2.285
304,1437234494072,-54.943,-17.628,-2.285
305,1437234494093,-54.943,-17.628,-2.285
306,1437234494113,-54.943,-17.628,-2.285
307,1437234494134,-54.943,-17.628,-2.285
308,1437234494153,-54.943,-17.628,-2.615
309,1437234494216,-54.943,-17.628,-2.615
310,1437234494217,-54.943,-17.628,-2.615
311,1437234494218,-54.943,-17.628,-2.615
312,1437234494246,-54.943,-17.628,-2.615
313,1437234494252,-54.943,-17.628,-2.615
314,1437234494287,-54.943,-17.628,-2.96
315,1437234494293,-54.943,-17.628,-2.96
316,1437234494313,-54.943,-17.628,-2.96
317,1437234494334,-54.943,-17.628,-2.96
318,1437234494353,-54.943,-17.628,-3.266
319,1437234494373,-54.943,-17.628,-3.266
320,1437234494395,-54.943,-17.628,-3.266
321,1437234494412,-54.943,-17.628,-3.266
322,1437234494433,-54.943,-17.628,-3.64
323,1437234494453,-54.943,-17.628,-3.64
324,1437234494478,-54.943,-17.628,-3.64
325,1437234494495,-54.943,-17.628,-3.64
326,1437234494515,-54.943,-17.628,-3.953
327,1437234494535,-54.64,-17.628,-3.953
328,1437234494553,-54.64,-17.628,-3.953
329,1437234494574,-54.64,-17.628,-3.953
330,1437234494595,-54.64,-17.628,-3.953
331,1437234494613,-54.64,-17.628,-4.301
332,1437234494633,-54.64,-17.628,-4.301
333,1437234494698,-54.64,-17.628,-4.301
334,1437234494699,-54.64,-17.628,-4.301
335,1437234494700,-54.64,-17.628,-4.301
336,1437234494724,-54.64,-17.628,-4.301
337,1437234494735,-54.64,-17.628,-4.301
338,1437234494766,-54.64,-17.628,-4.301
339,1437234494774,-54.64,-17.628,-4.301
340,1437234494794,-54.64,-17.628,-4.605
341,1437234494825,-54.64,-17.628,-4.605
342,1437234494834,-54.64,-17.628,-4.605
343,1437234494859,-54.64,-17.628,-4.605
344,1437234494880,-54.64,-17.628,-4.605
345,1437234494898,-54.64,-17.628,-4.605
346,1437234494919,-54.64,-17.628,-4.605
347,1437234494932,-54.64,-17.628,-4.605
348,1437234494956,-54.64,-17.628,-4.605
349,1437234494974,-54.64,-17.628,-4.605
350,1437234494994,-54.64,-17.628,-4.202
351,1437234495015,-54.64,-17.628,-4.202
352,1437234495038,-54.64,-17.628,-4.202
353,1437234495060,-54.64,-17.628,-3.793
354,1437234495079,-54.64,-17.628,-3.28
355,1437234495094,-54.64,-17.628,-3.28
356,1437234495120,-54.64,-17.628,-2.76
357,1437234495168,-54.64,-17.628,-2.76
358,1437234495169,-54.64,-17.628,-2.311
359,1437234495176,-54.64,-17.628,-2.311
360,1437234495197,-54.64,-17.628,-2.311
361,1437234495214,-54.64,-17.628,-2.311
362,1437234495233,-54.64,-17.628,-2.311
363,1437234495253,-54.64,-17.628,-1.925
364,1437234495277,-54.64,-17.628,-1.925
365,1437234495294,-54.64,-17.628,-1.538
366,1437234495315,-54.64,-17.628,-1.538
367,1437234495334,-54.64,-17.628,-1.144
368,1437234495353,-54.64,-17.628,-1.144
369,1437234495375,-54.942,-17.628,-0.785
370,1437234495395,-54.942,-17.628,-0.785
371,1437234495414,-54.942,-17.628,-0.476
372,1437234495434,-54.942,-17.628,-0.476
373,1437234495486,-54.942,-17.628,-0.476
374,1437234495487,-54.942,-17.628,-0.096
375,1437234495494,-54.942,-17.628,-0.096
376,1437234495517,-54.942,-17.628,-0.096
377,1437234495534,-54.942,-17.628,0.325
378,1437234495555,-54.942,-17.628,0.325
379,1437234495573,-54.942,-17.628,0.325
380,1437234495594,-54.942,-17.628,0.695
381,1437234495694,-54.942,-17.628,0.695
382,1437234495695,-54.942,-17.628,0.695
383,1437234495696,-54.942,-17.628,1.031
384,1437234495697,-54.942,-17.628,1.031
385,1437234495698,-54.942,-17.628,1.031
386,1437234495714,-54.942,-17.628,1.031
387,1437234495744,-54.942,-17.628,1.031
388,1437234495758,-54.942,-17.628,1.361
389,1437234495775,-54.942,-17.628,1.361
390,1437234495801,-54.942,-17.628,1.361
391,1437234495818,-54.942,-17.628,1.361
392,1437234495836,-54.942,-17.628,1.361
393,1437234495858,-54.942,-17.628,1.361
394,1437234495883,-54.942,-17.628,1.361
395,1437234495898,-54.942,-17.628,1.361
396,1437234495918,-54.942,-17.628,1.361
397,1437234495935,-54.942,-17.628,1.361
398,1437234495957,-54.942,-17.628,1.361
399,1437234495977,-54.942,-17.628,1.361
400,1437234495994,-54.942,-17.628,1.361
401,1437234496017,-54.942,-17.628,1.361
402,1437234496037,-54.942,-17.628,1.361
403,1437234496057,-54.942,-17.628,1.055
404,1437234496074,-54.942,-17.628,1.055
405,1437234496103,-54.942,-17.628,1.055
406,1437234496154,-54.942,-17.628,1.055
407,1437234496155,-54.942,-17.628,0.752
408,1437234496156,-54.942,-17.628,0.752
409,1437234496178,-54.942,-17.628,0.752
410,1437234496195,-54.942,-17.628,0.752
411,1437234496214,-54.942,-17.628,0.43
412,1437234496238,-54.942,-17.628,0.43
413,1437234496258,-54.942,-17.628,0.43
414,1437234496274,-54.942,-17.628,0.43
415,1437234496295,-54.942,-17.628,0.125
416,1437234496315,-54.942,-17.628,0.125
417,1437234496337,-54.942,-17.628,0.125
418,1437234496355,-54.942,-17.628,0.125
419,1437234496374,-54.942,-17.628,-0.233
420,1437234496394,-54.942,-17.628,-0.233
421,1437234496414,-54.942,-17.628,-0.233
422,1437234496435,-54.942,-17.628,-0.233
423,1437234496454,-54.942,-17.628,-0.233
424,1437234496474,-54.942,-17.628,-0.582
425,1437234496494,-54.942,-17.628,-0.582
426,1437234496515,-54.942,-17.628,-0.582
427,1437234496535,-54.942,-17.628,-0.582
428,1437234496555,-54.942,-17.628,-0.909
429,1437234496575,-54.942,-17.628,-0.909
430,1437234496642,-54.942,-17.628,-0.909
431,1437234496643,-54.942,-17.628,-0.909
432,1437234496644,-54.942,-17.628,-1.272
433,1437234496661,-54.942,-17.628,-1.272
434,1437234496674,-54.942,-17.628,-1.272
435,1437234496710,-54.942,-17.628,-1.603
436,1437234496715,-54.942,-17.628,-1.603
437,1437234496736,-54.942,-17.628,-1.603
438,1437234496758,-54.942,-17.628,-1.603
439,1437234496777,-54.942,-17.628,-1.931
440,1437234496799,-54.942,-17.628,-1.931
441,1437234496819,-54.942,-17.628,-1.931
442,1437234496835,-54.942,-17.628,-1.931
443,1437234496857,-54.942,-17.628,-2.275
444,1437234496882,-54.942,-17.628,-2.275
445,1437234496897,-54.942,-17.628,-2.275
446,1437234496915,-54.942,-17.628,-2.275
447,1437234496936,-54.942,-17.628,-2.275
448,1437234496958,-54.942,-17.628,-2.275
449,1437234496975,-54.942,-17.628,-2.275
450,1437234496997,-54.942,-17.628,-2.275
451,1437234497015,-54.942,-17.628,-2.275
452,1437234497036,-54.942,-17.628,-2.275
453,1437234497055,-54.942,-17.628,-2.275
454,1437234497100,-54.942,-17.628,-2.275
455,1437234497101,-54.942,-17.628,-2.275
456,1437234497119,-54.942,-17.628,-2.275
457,1437234497143,-54.942,-17.628,-2.275
458,1437234497156,-54.942,-17.628,-2.275
459,1437234497175,-54.942,-17.628,-2.275
460,1437234497197,-54.942,-17.628,-2.275
461,1437234497216,-54.942,-17.628,-2.275
462,1437234497237,-54.942,-17.628,-2.275
463,1437234497256,-54.942,-17.628,-2.275
464,1437234497276,-54.942,-17.628,-2.275
465,1437234497298,-54.942,-17.628,-2.275
466,1437234497316,-54.942,-17.628,-2.578
467,1437234497337,-54.942,-17.628,-2.578
468,1437234497357,-54.942,-17.628,-2.578
469,1437234497377,-54.942,-17.628,-2.578
470,1437234497398,-54.942,-17.628,-2.98
471,1437234497416,-54.942,-17.628,-2.98
472,1437234497437,-54.942,-17.628,-2.98
473,1437234497458,-54.942,-17.628,-3.294
474,1437234497478,-54.629,-17.628,-3.294
475,1437234497497,-54.629,-17.628,-3.294
476,1437234497517,-54.629,-17.628,-3.294
477,1437234497539,-54.629,-17.628,-3.639
478,1437234497600,-54.629,-17.628,-3.639
479,1437234497601,-54.629,-17.628,-3.639
480,1437234497602,-54.629,-17.628,-3.639
481,1437234497622,-54.629,-17.628,-3.639
482,1437234497635,-54.629,-17.628,-3.941
483,1437234497667,-54.629,-17.628,-3.941
484,1437234497688,-54.629,-17.628,-3.941
485,1437234497711,-54.629,-17.628,-3.941
486,1437234497736,-54.629,-17.628,-3.941
487,1437234497737,-54.629,-17.628,-4.289
488,1437234497757,-54.629,-17.628,-4.289
489,1437234497776,-54.629,-17.628,-4.289
490,1437234497796,-54.629,-17.628,-4.289
491,1437234497819,-54.629,-17.628,-4.289
492,1437234497841,-54.629,-17.628,-4.289
493,1437234497857,-54.629,-17.628,-4.289
494,1437234497875,-54.629,-17.628,-4.289
495,1437234497896,-54.629,-17.628,-4.289
