id,attr_time,attr_light
1,1436185163417,0.0
2,1436185163440,0.0
3,1436185163457,0.0
4,1436185163477,0.0
5,1436185163499,0.0
6,1436185163520,0.0
7,1436185163540,0.0
8,1436185163560,0.0
9,1436185163580,0.0
10,1436185163598,0.0
11,1436185163619,0.0
12,1436185163639,0.0
13,1436185163659,0.0
14,1436185163679,0.0
15,1436185163729,0.0
16,1436185163730,0.0
17,1436185163746,0.0
18,1436185163767,0.0
19,1436185163778,0.0
20,1436185163797,0.0
21,1436185163818,0.0
22,1436185163841,0.0
23,1436185163858,0.0
24,1436185163878,0.0
25,1436185163901,0.0
26,1436185163921,0.0
27,1436185163937,0.0
28,1436185163961,0.0
29,1436185163981,0.0
30,1436185164001,0.0
31,1436185164020,0.0
32,1436185164040,0.0
33,1436185164061,0.0
34,1436185164081,0.0
35,1436185164098,0.0
36,1436185164121,0.0
37,1436185164138,0.0
38,1436185164167,0.0
39,1436185164221,0.0
40,1436185164229,0.0
41,1436185164230,0.0
42,1436185164306,0.0
43,1436185164307,0.0
44,1436185164308,0.0
45,1436185164309,0.0
46,1436185164332,0.0
47,1436185164338,0.0
48,1436185164375,0.0
49,1436185164379,0.0
50,1436185164400,0.0
51,1436185164427,0.0
52,1436185164439,0.0
53,1436185164461,0.0
54,1436185164481,0.0
55,1436185164500,0.0
56,1436185164520,0.0
57,1436185164539,0.0
58,1436185164561,0.0
59,1436185164582,0.0
60,1436185164602,0.0
61,1436185164621,0.0
62,1436185164638,0.0
63,1436185164660,0.0
64,1436185164680,0.0
65,1436185164699,0.0
66,1436185164720,0.0
67,1436185164769,0.0
68,1436185164770,0.0
69,1436185164781,0.0
70,1436185164802,0.0
71,1436185164820,0.0
72,1436185164840,0.0
73,1436185164858,0.0
74,1436185164884,0.0
75,1436185164901,0.0
76,1436185164922,0.0
77,1436185164939,0.0
78,1436185164960,0.0
79,1436185164995,0.0
80,1436185164999,0.0
81,1436185165018,0.0
82,1436185165039,0.0
83,1436185165059,0.0
84,1436185165079,0.0
85,1436185165102,0.0
86,1436185165122,0.0
87,1436185165141,0.0
88,1436185165160,0.0
89,1436185165180,0.0
90,1436185165200,0.0
91,1436185165219,0.0
92,1436185165281,0.0
93,1436185165294,0.0
94,1436185165295,0.0
95,1436185165326,0.0
96,1436185165327,0.0
97,1436185165342,0.0
98,1436185165373,0.0
99,1436185165380,0.0
100,1436185165400,0.0
101,1436185165426,0.0
102,1436185165440,0.0
103,1436185165459,0.0
104,1436185165482,0.0
105,1436185165502,0.0
106,1436185165522,0.0
107,1436185165543,0.0
108,1436185165562,0.0
109,1436185165581,0.0
110,1436185165602,0.0
111,1436185165622,0.0
112,1436185165642,0.0
113,1436185165664,0.0
114,1436185165684,0.0
115,1436185165703,0.0
116,1436185165727,0.0
117,1436185165785,0.0
118,1436185165793,0.0
119,1436185165794,0.0
120,1436185165799,0.0
121,1436185165823,0.0
122,1436185165842,0.0
123,1436185165863,0.0
124,1436185165880,0.0
125,1436185165899,0.0
126,1436185165920,0.0
127,1436185165940,0.0
128,1436185165962,0.0
129,1436185165983,0.0
130,1436185166002,0.0
131,1436185166023,0.0
132,1436185166043,0.0
133,1436185166063,0.0
134,1436185166115,0.0
135,1436185166116,0.0
136,1436185166120,0.0
137,1436185166143,0.0
138,1436185166163,0.0
139,1436185166183,0.0
140,1436185166202,0.0
141,1436185166227,0.0
142,1436185166293,0.0
143,1436185166294,0.0
144,1436185166295,0.0
145,1436185166313,0.0
146,1436185166327,0.0
147,1436185166342,0.0
148,1436185166360,0.0
149,1436185166382,0.0
150,1436185166400,0.0
151,1436185166421,0.0
152,1436185166440,0.0
153,1436185166461,0.0
154,1436185166484,0.0
155,1436185166501,0.0
156,1436185166522,0.0
157,1436185166543,0.0
158,1436185166563,0.0
159,1436185166583,0.0
160,1436185166603,0.0
161,1436185166623,0.0
162,1436185166643,0.0
163,1436185166663,0.0
164,1436185166684,0.0
165,1436185166700,0.0
166,1436185166723,0.0
167,1436185166767,0.0
168,1436185166768,0.0
169,1436185166789,0.0
170,1436185166802,0.0
171,1436185166820,0.0
172,1436185166840,0.0
173,1436185166860,0.0
174,1436185166883,0.0
175,1436185166901,0.0
176,1436185166923,0.0
177,1436185166941,0.0
178,1436185166962,0.0
179,1436185166982,0.0
180,1436185167002,0.0
181,1436185167023,0.0
182,1436185167044,0.0
183,1436185167064,0.0
184,1436185167084,0.0
185,1436185167101,0.0
186,1436185167123,0.0
187,1436185167144,0.0
188,1436185167163,0.0
189,1436185167183,0.0
190,1436185167200,0.0
191,1436185167222,0.0
192,1436185167268,0.0
193,1436185167269,0.0
194,1436185167289,0.0
195,1436185167316,0.0
196,1436185167322,0.0
197,1436185167341,0.0
198,1436185167368,0.0
199,1436185167384,0.0
200,1436185167405,0.0
201,1436185167425,0.0
202,1436185167441,0.0
203,1436185167462,0.0
204,1436185167483,0.0
205,1436185167503,0.0
206,1436185167523,0.0
207,1436185167543,0.0
208,1436185167564,0.0
209,1436185167584,0.0
210,1436185167603,0.0
211,1436185167623,0.0
212,1436185167642,0.0
213,1436185167663,0.0
214,1436185167684,0.0
215,1436185167704,0.0
216,1436185167722,0.0
217,1436185167770,0.0
218,1436185167771,0.0
219,1436185167787,0.0
220,1436185167815,0.0
221,1436185167822,0.0
222,1436185167844,0.0
223,1436185167861,0.0
224,1436185167882,0.0
225,1436185167907,0.0
226,1436185167922,0.0
227,1436185167942,0.0
228,1436185167964,0.0
229,1436185167983,0.0
230,1436185168002,0.0
231,1436185168022,0.0
232,1436185168046,0.0
233,1436185168067,0.0
234,1436185168086,0.0
235,1436185168104,0.0
236,1436185168121,0.0
237,1436185168142,0.0
238,1436185168162,0.0
239,1436185168181,0.0
240,1436185168204,0.0
241,1436185168254,0.0
242,1436185168255,0.0
243,1436185168262,0.0
244,1436185168282,0.0
245,1436185168302,0.0
246,1436185168322,0.0
247,1436185168342,0.0
248,1436185168364,0.0
249,1436185168385,0.0
250,1436185168409,0.0
251,1436185168423,0.0
252,1436185168443,0.0
253,1436185168463,0.0
254,1436185168482,0.0
255,1436185168502,0.0
256,1436185168523,0.0
257,1436185168543,0.0
258,1436185168568,0.0
259,1436185168583,0.0
260,1436185168605,0.0
261,1436185168622,0.0
262,1436185168642,0.0
263,1436185168663,0.0
264,1436185168685,0.0
265,1436185168707,0.0
266,1436185168770,0.0
267,1436185168771,0.0
268,1436185168772,0.0
269,1436185168793,0.0
270,1436185168803,0.0
271,1436185168847,0.0
272,1436185168848,0.0
273,1436185168863,0.0
274,1436185168885,0.0
275,1436185168904,0.0
276,1436185168923,0.0
277,1436185168944,0.0
278,1436185168963,0.0
279,1436185168983,0.0
280,1436185169003,0.0
281,1436185169024,0.0
282,1436185169047,0.0
283,1436185169066,0.0
284,1436185169087,0.0
285,1436185169106,0.0
286,1436185169122,0.0
287,1436185169143,0.0
288,1436185169164,0.0
289,1436185169183,0.0
290,1436185169225,0.0
291,1436185169226,0.0
292,1436185169337,0.0
293,1436185169338,0.0
294,1436185169339,0.0
295,1436185169340,0.0
296,1436185169341,0.0
297,1436185169412,0.0
298,1436185169413,0.0
299,1436185169414,0.0
300,1436185169415,0.0
301,1436185169452,0.0
302,1436185169453,0.0
303,1436185169465,0.0
304,1436185169483,0.0
305,1436185169503,0.0
306,1436185169523,0.0
307,1436185169543,0.0
308,1436185169563,0.0
309,1436185169583,0.0
310,1436185169603,0.0
311,1436185169623,0.0
312,1436185169643,0.0
313,1436185169663,0.0
314,1436185169683,0.0
315,1436185169703,0.0
316,1436185169723,0.0
317,1436185169743,0.0
318,1436185169763,0.0
319,1436185169782,0.0
320,1436185169802,0.0
321,1436185169824,0.0
322,1436185169844,0.0
323,1436185169864,0.0
324,1436185169882,0.0
325,1436185169904,0.0
326,1436185169923,0.0
327,1436185169943,0.0
328,1436185169963,0.0
329,1436185169983,0.0
330,1436185170002,0.0
331,1436185170025,0.0
332,1436185170045,0.0
333,1436185170063,0.0
334,1436185170085,0.0
335,1436185170103,0.0
336,1436185170122,0.0
337,1436185170143,0.0
338,1436185170168,0.0
339,1436185170197,0.0
340,1436185170203,0.0
341,1436185170222,0.0
342,1436185170243,0.0
343,1436185170263,0.0
344,1436185170283,0.0
345,1436185170305,0.0
346,1436185170324,0.0
347,1436185170343,0.0
348,1436185170367,0.0
349,1436185170385,0.0
350,1436185170403,0.0
351,1436185170426,0.0
352,1436185170446,0.0
353,1436185170468,0.0
354,1436185170484,0.0
355,1436185170506,0.0
356,1436185170526,0.0
357,1436185170547,0.0
358,1436185170567,0.0
359,1436185170585,0.0
360,1436185170604,0.0
361,1436185170635,0.0
362,1436185170644,0.0
363,1436185170670,0.0
364,1436185170684,0.0
365,1436185170707,0.0
366,1436185170725,0.0
367,1436185170743,0.0
368,1436185170764,0.0
369,1436185170787,0.0
370,1436185170810,0.0
371,1436185170832,0.0
372,1436185170850,0.0
373,1436185170865,0.0
374,1436185170890,0.0
375,1436185170907,0.0
376,1436185170926,0.0
377,1436185170948,0.0
378,1436185170969,0.0
379,1436185170990,0.0
380,1436185171007,0.0
381,1436185171028,0.0
382,1436185171081,0.0
383,1436185171092,0.0
384,1436185171093,0.0
385,1436185171119,0.0
386,1436185171126,0.0
387,1436185171144,0.0
388,1436185171170,0.0
389,1436185171187,0.0
390,1436185171210,0.0
391,1436185171226,0.0
392,1436185171248,0.0
393,1436185171267,0.0
394,1436185171286,0.0
395,1436185171307,0.0
396,1436185171324,0.0
397,1436185171345,0.0
398,1436185171370,0.0
399,1436185171400,0.0
400,1436185171407,0.0
401,1436185171425,0.0
402,1436185171446,0.0
403,1436185171465,0.0
404,1436185171487,0.0
405,1436185171509,0.0
406,1436185171553,0.0
407,1436185171554,0.0
408,1436185171573,0.0
409,1436185171599,0.0
410,1436185171605,0.0
411,1436185171625,0.0
412,1436185171647,0.0
413,1436185171665,0.0
414,1436185171687,0.0
415,1436185171710,0.0
416,1436185171726,0.0
417,1436185171747,0.0
418,1436185171765,0.0
419,1436185171786,0.0
420,1436185171805,0.0
421,1436185171825,0.0
422,1436185171851,0.0
423,1436185171871,0.0
424,1436185171888,0.0
425,1436185171908,0.0
426,1436185171926,0.0
427,1436185171945,0.0
428,1436185171965,0.0
429,1436185171989,0.0
430,1436185172006,0.0
431,1436185172052,0.0
432,1436185172053,0.0
433,1436185172071,0.0
434,1436185172089,0.0
435,1436185172107,0.0
436,1436185172127,0.0
437,1436185172146,0.0
438,1436185172168,0.0
439,1436185172186,0.0
440,1436185172206,0.0
441,1436185172230,0.0
442,1436185172248,0.0
443,1436185172266,0.0
444,1436185172290,0.0
445,1436185172310,0.0
446,1436185172326,0.0
447,1436185172346,0.0
448,1436185172368,0.0
449,1436185172391,0.0
450,1436185172408,0.0
451,1436185172431,0.0
452,1436185172451,0.0
453,1436185172469,0.0
454,1436185172493,0.0
455,1436185172553,0.0
456,1436185172554,0.0
457,1436185172555,0.0
458,1436185172573,0.0
459,1436185172586,0.0
460,1436185172623,0.0
461,1436185172626,0.0
462,1436185172649,0.0
463,1436185172672,1.0
464,1436185172689,1.0
465,1436185172709,1.0
466,1436185172729,1.0
467,1436185172746,1.0
468,1436185172767,1.0
469,1436185172789,1.0
470,1436185172811,1.0
471,1436185172832,1.0
472,1436185172852,1.0
473,1436185172869,1.0
474,1436185172886,1.0
475,1436185172906,1.0
476,1436185172928,1.0
477,1436185172947,1.0
478,1436185172966,1.0
479,1436185173011,1.0
480,1436185173012,1.0
481,1436185173031,1.0
482,1436185173049,1.0
483,1436185173067,1.0
484,1436185173086,1.0
485,1436185173106,1.0
486,1436185173128,1.0
487,1436185173150,1.0
488,1436185173167,1.0
489,1436185173186,1.0
490,1436185173210,1.0
491,1436185173227,1.0
492,1436185173250,1.0
493,1436185173269,1.0
494,1436185173289,1.0
495,1436185173308,1.0
496,1436185173326,1.0
497,1436185173431,1.0
498,1436185173432,1.0
499,1436185173433,1.0
500,1436185173434,1.0
501,1436185173509,1.0
502,1436185173510,1.0
503,1436185173511,1.0
504,1436185173512,1.0
505,1436185173513,1.0
506,1436185173640,1.0
507,1436185173641,1.0
508,1436185173642,1.0
509,1436185173643,1.0
510,1436185173644,1.0
511,1436185173645,1.0
512,1436185173670,1.0
513,1436185173671,1.0
514,1436185173688,1.0
515,1436185173707,1.0
516,1436185173727,1.0
517,1436185173747,1.0
518,1436185173767,1.0
519,1436185173786,1.0
520,1436185173810,1.0
521,1436185173830,1.0
522,1436185173848,1.0
523,1436185173867,1.0
524,1436185173888,1.0
525,1436185173912,1.0
526,1436185173929,1.0
527,1436185173949,1.0
528,1436185173967,1.0
529,1436185173987,1.0
530,1436185174006,1.0
531,1436185174028,1.0
532,1436185174049,1.0
533,1436185174067,1.0
534,1436185174087,1.0
535,1436185174107,1.0
536,1436185174129,1.0
537,1436185174151,1.0
538,1436185174167,1.0
539,1436185174188,1.0
540,1436185174212,0.0
541,1436185174227,0.0
542,1436185174247,0.0
543,1436185174274,0.0
544,1436185174288,0.0
545,1436185174308,0.0
546,1436185174336,0.0
547,1436185174390,0.0
548,1436185174399,0.0
549,1436185174400,0.0
550,1436185174425,0.0
551,1436185174429,0.0
552,1436185174470,0.0
553,1436185174471,0.0
554,1436185174491,0.0
555,1436185174509,0.0
556,1436185174529,1.0
557,1436185174549,1.0
558,1436185174571,1.0
559,1436185174593,1.0
560,1436185174611,1.0
561,1436185174631,1.0
562,1436185174651,1.0
563,1436185174670,1.0
564,1436185174691,2.0
565,1436185174708,2.0
566,1436185174731,2.0
567,1436185174751,2.0
568,1436185174772,2.0
569,1436185174789,3.0
570,1436185174816,3.0
571,1436185174861,3.0
572,1436185174862,3.0
573,1436185174869,3.0
574,1436185174888,3.0
575,1436185174911,3.0
576,1436185174929,3.0
577,1436185174948,3.0
578,1436185174972,3.0
579,1436185174991,4.0
580,1436185175010,4.0
581,1436185175029,4.0
582,1436185175051,4.0
583,1436185175072,4.0
584,1436185175092,5.0
585,1436185175109,5.0
586,1436185175132,4.0
587,1436185175152,4.0
588,1436185175171,4.0
589,1436185175191,4.0
590,1436185175211,3.0
591,1436185175232,3.0
592,1436185175252,3.0
593,1436185175269,3.0
594,1436185175289,2.0
595,1436185175319,2.0
596,1436185175329,2.0
597,1436185175381,1.0
598,1436185175382,1.0
599,1436185175400,1.0
600,1436185175410,1.0
601,1436185175455,0.0
602,1436185175456,0.0
603,1436185175472,0.0
604,1436185175492,0.0
605,1436185175512,0.0
606,1436185175530,0.0
607,1436185175551,0.0
608,1436185175572,0.0
609,1436185175590,0.0
610,1436185175609,0.0
611,1436185175638,0.0
612,1436185175649,0.0
613,1436185175669,0.0
614,1436185175690,0.0
615,1436185175709,0.0
616,1436185175729,0.0
617,1436185175750,0.0
618,1436185175770,0.0
619,1436185175790,0.0
620,1436185175809,0.0
621,1436185175858,0.0
622,1436185175859,0.0
623,1436185175875,0.0
624,1436185175892,0.0
625,1436185175909,0.0
626,1436185175933,0.0
627,1436185175950,0.0
628,1436185175970,0.0
629,1436185175991,0.0
630,1436185176011,0.0
631,1436185176030,0.0
632,1436185176051,0.0
633,1436185176069,0.0
634,1436185176124,0.0
635,1436185176125,0.0
636,1436185176129,0.0
637,1436185176153,0.0
638,1436185176175,0.0
639,1436185176195,0.0
640,1436185176213,0.0
641,1436185176230,0.0
642,1436185176251,0.0
643,1436185176271,0.0
644,1436185176292,0.0
645,1436185176312,0.0
646,1436185176357,0.0
647,1436185176358,0.0
648,1436185176377,0.0
649,1436185176404,0.0
650,1436185176410,0.0
651,1436185176429,0.0
652,1436185176450,0.0
653,1436185176473,0.0
654,1436185176491,0.0
655,1436185176510,0.0
656,1436185176530,0.0
657,1436185176556,0.0
658,1436185176573,0.0
659,1436185176593,0.0
660,1436185176613,0.0
661,1436185176633,0.0
662,1436185176650,0.0
663,1436185176673,0.0
664,1436185176693,0.0
665,1436185176714,0.0
666,1436185176733,0.0
667,1436185176751,0.0
668,1436185176772,0.0
669,1436185176790,0.0
670,1436185176810,0.0
671,1436185176831,0.0
672,1436185176891,0.0
673,1436185176892,0.0
674,1436185176893,0.0
675,1436185176913,0.0
676,1436185176931,0.0
677,1436185176978,0.0
678,1436185176979,0.0
679,1436185176991,0.0
680,1436185177010,0.0
681,1436185177030,0.0
682,1436185177050,0.0
683,1436185177070,0.0
684,1436185177090,0.0
685,1436185177110,0.0
686,1436185177130,0.0
687,1436185177150,0.0
688,1436185177170,0.0
689,1436185177190,0.0
690,1436185177210,0.0
691,1436185177230,0.0
692,1436185177250,0.0
693,1436185177271,0.0
694,1436185177289,0.0
695,1436185177309,0.0
696,1436185177330,0.0
697,1436185177350,0.0
698,1436185177369,0.0
699,1436185177389,0.0
700,1436185177410,0.0
701,1436185177429,0.0
702,1436185177450,0.0
703,1436185177469,0.0
704,1436185177490,0.0
705,1436185177510,0.0
706,1436185177530,0.0
707,1436185177550,0.0
708,1436185177572,0.0
709,1436185177591,0.0
710,1436185177612,0.0
711,1436185177632,0.0
712,1436185177652,0.0
713,1436185177670,0.0
714,1436185177701,0.0
715,1436185177710,0.0
716,1436185177731,0.0
717,1436185177753,0.0
718,1436185177771,0.0
719,1436185177791,0.0
720,1436185177812,0.0
721,1436185177830,0.0
722,1436185177854,0.0
723,1436185177873,0.0
724,1436185177892,0.0
725,1436185177911,0.0
726,1436185177932,0.0
727,1436185177954,0.0
728,1436185177974,0.0
729,1436185177992,0.0
730,1436185178012,0.0
731,1436185178033,0.0
732,1436185178052,0.0
733,1436185178071,0.0
734,1436185178102,0.0
735,1436185178111,0.0
736,1436185178130,0.0
737,1436185178151,0.0
738,1436185178174,0.0
739,1436185178190,0.0
740,1436185178212,0.0
741,1436185178235,0.0
742,1436185178255,0.0
743,1436185178273,0.0
744,1436185178293,0.0
745,1436185178315,0.0
746,1436185178334,0.0
747,1436185178353,0.0
748,1436185178375,0.0
749,1436185178392,0.0
750,1436185178413,0.0
751,1436185178432,0.0
752,1436185178453,0.0
753,1436185178473,0.0
754,1436185178537,0.0
755,1436185178546,0.0
756,1436185178547,0.0
757,1436185178552,0.0
758,1436185178579,0.0
759,1436185178592,0.0
760,1436185178622,0.0
761,1436185178636,0.0
762,1436185178653,0.0
763,1436185178678,0.0
764,1436185178693,0.0
765,1436185178712,0.0
766,1436185178733,0.0
767,1436185178754,0.0
768,1436185178772,0.0
769,1436185178793,0.0
770,1436185178812,0.0
771,1436185178833,0.0
772,1436185178858,0.0
773,1436185178875,0.0
774,1436185178892,0.0
775,1436185178914,0.0
776,1436185178933,0.0
777,1436185178953,0.0
778,1436185178977,0.0
779,1436185179026,0.0
780,1436185179027,0.0
781,1436185179041,0.0
782,1436185179063,0.0
783,1436185179072,0.0
784,1436185179092,0.0
785,1436185179119,0.0
786,1436185179134,0.0
787,1436185179155,0.0
788,1436185179180,0.0
789,1436185179194,0.0
790,1436185179213,0.0
791,1436185179233,0.0
792,1436185179252,0.0
793,1436185179272,0.0
794,1436185179299,0.0
795,1436185179350,0.0
796,1436185179379,0.0
797,1436185179380,0.0
798,1436185179381,0.0
799,1436185179409,0.0
800,1436185179412,0.0
801,1436185179432,0.0
802,1436185179452,0.0
803,1436185179498,0.0
804,1436185179499,0.0
805,1436185179516,0.0
806,1436185179533,0.0
807,1436185179553,0.0
808,1436185179573,0.0
809,1436185179593,0.0
810,1436185179614,0.0
811,1436185179633,0.0
812,1436185179653,0.0
813,1436185179673,0.0
814,1436185179693,0.0
815,1436185179715,0.0
816,1436185179733,0.0
817,1436185179753,0.0
818,1436185179772,0.0
819,1436185179792,0.0
820,1436185179814,0.0
821,1436185179832,0.0
822,1436185179853,0.0
823,1436185179872,0.0
824,1436185179893,0.0
825,1436185179914,0.0
826,1436185179941,0.0
827,1436185179952,0.0
828,1436185179972,0.0
829,1436185179995,0.0
830,1436185180013,0.0
831,1436185180033,0.0
832,1436185180052,0.0
833,1436185180073,0.0
834,1436185180093,0.0
835,1436185180113,0.0
836,1436185180132,0.0
837,1436185180152,0.0
838,1436185180174,0.0
839,1436185180194,0.0
840,1436185180217,0.0
841,1436185180233,0.0
842,1436185180255,0.0
843,1436185180275,0.0
844,1436185180294,0.0
845,1436185180316,0.0
846,1436185180348,0.0
847,1436185180356,0.0
848,1436185180382,0.0
849,1436185180393,0.0
850,1436185180415,0.0
851,1436185180434,0.0
852,1436185180454,0.0
853,1436185180474,0.0
854,1436185180494,0.0
855,1436185180546,0.0
856,1436185180547,0.0
857,1436185180558,0.0
858,1436185180573,0.0
859,1436185180593,0.0
860,1436185180616,0.0
861,1436185180636,0.0
862,1436185180659,0.0
863,1436185180674,0.0
864,1436185180694,0.0
865,1436185180714,0.0
866,1436185180733,0.0
867,1436185180753,0.0
868,1436185180861,0.0
869,1436185180862,0.0
870,1436185180863,0.0
871,1436185180864,0.0
872,1436185180865,0.0
873,1436185180897,0.0
874,1436185180898,0.0
875,1436185180975,0.0
876,1436185180976,0.0
877,1436185180982,0.0
878,1436185180983,0.0
879,1436185181000,0.0
880,1436185181014,0.0
881,1436185181034,0.0
882,1436185181054,0.0
883,1436185181075,0.0
884,1436185181096,0.0
885,1436185181118,0.0
886,1436185181139,0.0
887,1436185181158,0.0
888,1436185181177,0.0
889,1436185181197,0.0
890,1436185181215,0.0
891,1436185181235,0.0
892,1436185181258,0.0
893,1436185181279,0.0
894,1436185181322,0.0
895,1436185181323,0.0
896,1436185181345,0.0
897,1436185181356,0.0
898,1436185181387,0.0
899,1436185181396,0.0
900,1436185181416,0.0
901,1436185181452,0.0
902,1436185181458,0.0
903,1436185181476,0.0
904,1436185181495,0.0
905,1436185181516,0.0
906,1436185181535,0.0
907,1436185181557,0.0
908,1436185181575,0.0
909,1436185181598,1.0
910,1436185181617,1.0
911,1436185181635,0.0
912,1436185181655,0.0
