id,attr_time,attr_x,attr_y,attr_z
1,1436896820642,-41.453,11.686,-25.68
2,1436896820654,-41.453,11.686,-25.68
3,1436896820676,-41.453,11.686,-25.68
4,1436896820695,-41.453,11.686,-25.68
5,1436896820714,-41.453,11.686,-25.68
6,1436896820733,-41.453,11.686,-25.68
7,1436896820756,-41.453,11.364,-25.68
8,1436896820775,-41.453,11.364,-25.68
9,1436896820795,-41.453,11.364,-25.68
10,1436896820815,-41.453,11.364,-25.68
11,1436896820834,-41.831,11.364,-25.68
12,1436896820856,-41.831,11.044,-25.68
13,1436896820877,-41.831,11.044,-25.68
14,1436896820894,-41.831,11.044,-25.68
15,1436896820915,-41.831,11.044,-25.68
16,1436896820937,-41.831,10.684,-25.68
17,1436896820957,-42.195,10.684,-25.68
18,1436896820977,-42.195,10.684,-25.68
19,1436896820995,-42.195,10.302,-25.259
20,1436896821018,-42.195,10.302,-25.259
21,1436896821036,-42.591,9.954,-25.259
22,1436896821059,-42.591,9.954,-24.88
23,1436896821075,-42.591,9.078,-24.88
24,1436896821101,-43.009,8.602,-24.565
25,1436896821119,-43.009,8.026,-24.07
26,1436896821138,-43.469,7.53,-23.422
27,1436896821157,-43.469,6.898,-23.025
28,1436896821176,-43.957,6.275,-22.534
29,1436896821195,-43.957,6.275,-21.974
30,1436896821214,-44.564,5.201,-21.406
31,1436896821237,-44.564,4.835,-21.035
32,1436896821260,-45.088,4.125,-20.23
33,1436896821277,-45.484,3.518,-18.788
34,1436896821296,-45.884,2.885,-18.788
35,1436896821317,-46.461,2.29,-18.008
36,1436896821392,-46.461,2.29,-17.561
37,1436896821394,-46.902,1.478,-16.368
38,1436896821395,-47.309,1.026,-15.899
39,1436896821396,-47.309,1.026,-15.397
40,1436896821414,-47.836,0.236,-14.755
41,1436896821436,-47.836,0.236,-13.719
42,1436896821454,-48.342,0.236,-13.043
43,1436896821474,-48.342,-0.468,-12.481
44,1436896821496,-48.814,-0.468,-12.014
45,1436896821515,-48.814,-0.468,-10.824
46,1436896821536,-48.814,-0.468,-10.151
47,1436896821555,-49.272,-0.772,-9.501
48,1436896821577,-49.272,-0.772,-8.869
49,1436896821597,-49.272,-0.772,-7.667
50,1436896821618,-49.272,-0.772,-7.667
51,1436896821637,-49.272,-0.772,-6.506
52,1436896821657,-49.572,-0.772,-5.764
53,1436896821678,-49.572,-0.772,-4.924
54,1436896821698,-49.946,-0.772,-4.304
55,1436896821719,-49.946,-1.084,-3.961
56,1436896821734,-50.256,-1.084,-3.038
57,1436896821754,-50.256,-1.084,-2.502
58,1436896821777,-50.556,-1.411,-1.986
59,1436896821799,-50.556,-1.411,-1.986
60,1436896821815,-50.556,-1.411,-1.272
61,1436896821839,-50.912,-1.411,-0.814
62,1436896821857,-50.912,-1.411,-0.814
63,1436896821878,-50.912,-1.411,-0.814
64,1436896821899,-50.912,-1.411,-0.814
65,1436896821917,-51.214,-1.411,-0.419
66,1436896821939,-51.214,-1.411,-0.419
67,1436896821958,-51.214,-1.091,-0.419
68,1436896821978,-51.214,-1.091,-0.419
69,1436896821997,-51.214,-0.579,-0.419
70,1436896822020,-51.214,0.363,-0.419
71,1436896822035,-51.214,0.975,-0.419
72,1436896822149,-51.214,1.635,-0.419
73,1436896822150,-51.214,2.436,-0.419
74,1436896822162,-51.214,3.157,-0.419
75,1436896822163,-51.214,3.625,-0.419
76,1436896822164,-51.214,4.284,-0.021
77,1436896822165,-51.214,4.959,-0.021
78,1436896822200,-51.214,5.442,-0.021
79,1436896822201,-51.214,6.344,0.285
80,1436896822217,-51.214,6.915,0.285
81,1436896822235,-51.214,7.473,0.285
82,1436896822259,-51.214,8.007,0.285
83,1436896822513,-51.214,8.793,0.285
84,1436896822515,-51.214,9.243,0.285
85,1436896822516,-51.214,9.747,0.602
86,1436896822517,-51.214,10.444,0.602
87,1436896822518,-51.214,10.444,0.602
88,1436896822519,-50.9,11.209,0.602
89,1436896822520,-50.9,11.209,0.602
90,1436896822521,-50.9,11.842,0.602
91,1436896822522,-50.9,11.842,0.602
92,1436896822523,-50.575,12.35,0.602
93,1436896822524,-50.575,12.35,0.602
94,1436896822525,-50.575,12.35,0.3
95,1436896822526,-50.575,12.35,0.3
96,1436896822763,-50.177,12.35,-0.062
97,1436896822764,-50.177,12.35,-0.062
98,1436896822765,-50.177,12.35,-1.174
99,1436896822766,-50.177,12.35,-2.14
100,1436896822767,-49.832,12.35,-3.315
101,1436896822768,-49.832,12.35,-4.484
102,1436896822769,-49.832,12.35,-4.837
103,1436896822770,-49.832,12.35,-5.648
104,1436896822771,-49.526,12.69,-6.73
105,1436896822772,-49.526,12.69,-7.102
106,1436896822773,-49.526,13.024,-7.595
107,1436896822774,-49.526,13.024,-8.457
108,1436896822779,-49.142,13.351,-9.5
109,1436896822796,-49.142,13.351,-9.996
110,1436896822815,-49.142,13.677,-10.652
111,1436896822834,-48.735,13.677,-11.293
112,1436896822854,-48.735,14.01,-12.118
113,1436896822875,-48.735,14.346,-12.545
114,1436896822894,-48.31,14.877,-13.475
115,1436896822914,-48.31,15.391,-13.475
116,1436896822934,-47.952,15.849,-14.668
117,1436896822954,-47.434,16.247,-15.396
118,1436896822979,-47.032,16.564,-15.396
119,1436896822999,-46.345,16.564,-15.725
120,1436896823018,-45.996,16.973,-16.227
121,1436896823036,-45.512,18.254,-17.297
122,1436896823056,-45.162,17.552,-17.652
123,1436896823079,-44.79,17.552,-17.652
124,1436896823099,-44.236,17.552,-18.428
125,1436896823119,-43.87,18.531,-19.096
126,1436896823135,-43.376,18.531,-19.798
127,1436896823156,-43.376,18.138,-20.317
128,1436896823178,-42.826,18.138,-21.127
129,1436896823199,-42.411,18.138,-21.85
130,1436896823219,-41.918,18.138,-21.85
131,1436896823238,-41.564,18.138,-22.561
132,1436896823259,-41.172,18.594,-23.193
133,1436896823277,-40.791,18.594,-23.544
134,1436896823299,-40.476,18.594,-23.544
135,1436896823318,-40.092,18.983,-24.137
136,1436896823340,-40.092,18.983,-24.456
137,1436896823359,-39.791,18.983,-24.783
138,1436896823379,-39.791,18.983,-25.184
139,1436896823398,-39.791,19.334,-25.184
140,1436896823416,-39.791,19.334,-25.904
141,1436896823446,-39.424,19.334,-25.904
142,1436896823465,-39.424,19.334,-25.904
143,1436896823479,-39.424,19.334,-25.904
144,1436896823496,-39.424,19.334,-25.596
145,1436896823517,-39.424,19.334,-26.484
146,1436896823535,-39.424,19.334,-26.484
147,1436896823560,-39.056,19.334,-26.484
148,1436896823579,-39.056,19.334,-26.484
149,1436896823596,-38.636,19.334,-26.484
150,1436896823620,-38.636,19.334,-26.484
151,1436896823640,-38.258,19.334,-26.828
152,1436896823655,-38.258,19.334,-26.828
153,1436896823680,-37.933,19.334,-26.828
154,1436896823700,-37.933,19.334,-26.828
155,1436896823716,-37.933,19.334,-27.249
156,1436896823736,-37.481,19.334,-27.249
157,1436896823756,-37.481,19.334,-27.633
158,1436896823779,-37.481,19.334,-27.633
159,1436896823810,-37.023,19.334,-27.951
160,1436896823816,-37.023,19.334,-27.951
161,1436896823837,-36.7,19.334,-28.295
162,1436896823857,-36.7,19.334,-28.295
163,1436896823876,-36.358,19.334,-28.625
164,1436896823896,-36.358,19.334,-28.625
165,1436896823916,-36.026,19.334,-28.976
166,1436896823937,-36.026,19.334,-28.976
167,1436896823957,-35.678,19.334,-29.312
168,1436896823977,-35.678,19.334,-29.312
169,1436896823997,-35.342,19.334,-29.678
170,1436896824017,-35.342,19.334,-29.678
171,1436896824037,-35.02,19.334,-30.012
172,1436896824057,-35.02,19.334,-30.012
173,1436896824077,-34.7,19.334,-30.366
174,1436896824097,-34.7,19.334,-30.366
175,1436896824117,-34.7,19.334,-30.699
176,1436896824137,-34.278,19.334,-30.699
177,1436896824157,-34.278,19.334,-30.699
178,1436896824177,-34.278,19.334,-31.146
179,1436896824197,-33.883,19.334,-31.146
180,1436896824217,-33.883,19.334,-31.146
181,1436896824237,-33.883,19.334,-31.542
182,1436896824257,-33.506,19.334,-31.542
183,1436896824276,-33.506,19.334,-31.542
184,1436896824296,-33.506,19.334,-31.884
185,1436896824316,-33.197,19.334,-31.884
186,1436896824336,-33.197,19.334,-31.884
187,1436896824356,-33.197,19.334,-31.884
188,1436896824377,-33.197,19.334,-32.252
189,1436896824396,-33.197,19.334,-32.252
190,1436896824418,-33.197,19.334,-32.252
191,1436896824436,-32.875,19.334,-32.252
192,1436896824456,-32.875,19.334,-32.585
193,1436896824476,-32.875,19.021,-32.585
194,1436896824496,-32.875,19.021,-32.585
195,1436896824516,-32.875,19.021,-32.585
196,1436896824536,-32.875,19.021,-32.585
197,1436896824556,-32.875,19.021,-32.934
198,1436896824576,-32.875,19.021,-32.934
199,1436896824596,-32.875,18.716,-32.934
200,1436896824616,-32.875,18.716,-32.934
201,1436896824636,-32.875,18.716,-32.934
202,1436896824656,-32.875,18.716,-32.934
203,1436896824676,-32.875,18.716,-32.934
204,1436896824696,-32.875,18.716,-32.934
205,1436896824716,-32.875,18.716,-33.259
206,1436896824736,-32.875,18.406,-33.259
207,1436896824756,-32.875,18.406,-33.259
208,1436896824780,-32.875,18.406,-33.259
209,1436896824800,-32.875,18.406,-33.259
210,1436896824820,-32.875,18.406,-33.259
211,1436896824840,-32.875,18.406,-33.259
212,1436896824860,-32.875,18.406,-33.259
213,1436896824880,-32.875,18.406,-33.259
214,1436896824900,-32.875,18.406,-33.259
215,1436896824921,-32.875,18.406,-33.259
216,1436896824941,-32.554,18.406,-33.259
217,1436896824960,-32.554,18.406,-33.259
218,1436896825042,-32.554,18.406,-33.259
219,1436896825043,-32.554,18.406,-33.259
220,1436896825044,-32.554,18.406,-33.259
221,1436896825045,-32.554,18.406,-33.259
222,1436896825069,-32.246,18.406,-33.259
223,1436896825077,-32.246,18.406,-33.259
224,1436896825109,-32.246,18.406,-33.259
225,1436896825120,-32.246,18.406,-33.259
226,1436896825137,-32.246,18.406,-33.259
227,1436896825184,-31.88,18.722,-33.259
228,1436896825185,-31.88,18.722,-33.259
229,1436896825202,-31.88,18.722,-33.259
230,1436896825218,-31.88,18.722,-33.259
231,1436896825241,-31.541,18.722,-33.621
232,1436896825261,-31.541,18.722,-33.621
233,1436896825279,-31.541,19.03,-33.621
234,1436896825301,-31.227,19.03,-33.621
235,1436896825320,-31.227,19.03,-33.934
236,1436896825341,-31.227,19.03,-33.934
237,1436896825361,-31.227,19.03,-33.934
238,1436896825381,-30.841,19.03,-33.934
239,1436896825401,-30.841,19.03,-34.313
240,1436896825418,-30.841,19.45,-34.313
241,1436896825440,-30.841,19.45,-34.313
242,1436896825461,-30.841,19.45,-34.313
243,1436896825479,-30.54,19.45,-34.313
244,1436896825500,-30.54,19.45,-34.313
245,1436896825520,-30.54,19.45,-34.683
246,1436896825543,-30.54,19.45,-34.683
247,1436896825563,-30.218,19.45,-34.683
248,1436896825583,-30.218,19.45,-34.683
249,1436896825601,-30.218,19.45,-35.148
250,1436896825628,-29.867,19.45,-35.148
251,1436896825639,-29.867,19.45,-35.148
252,1436896825660,-29.867,19.45,-35.519
253,1436896825679,-29.498,19.45,-35.519
254,1436896825723,-29.498,19.45,-35.519
255,1436896825724,-29.498,19.113,-35.945
256,1436896825747,-29.116,19.113,-35.945
257,1436896825760,-29.116,19.113,-35.945
258,1436896825778,-29.116,19.113,-36.318
259,1436896825798,-28.675,19.113,-36.318
260,1436896825818,-28.675,18.71,-36.318
261,1436896825839,-28.324,18.71,-36.676
262,1436896825860,-28.324,18.71,-36.676
263,1436896825880,-27.926,18.71,-36.676
264,1436896825900,-27.926,18.71,-37.074
265,1436896825919,-27.534,18.71,-37.074
266,1436896825940,-27.534,18.71,-37.074
267,1436896825959,-27.227,18.71,-37.074
268,1436896825979,-27.227,18.71,-37.074
269,1436896826002,-27.227,18.71,-37.074
270,1436896826026,-26.919,18.71,-37.39
271,1436896826041,-26.919,18.71,-37.39
272,1436896826061,-26.919,18.71,-37.39
273,1436896826080,-26.919,18.71,-37.39
274,1436896826101,-26.919,18.71,-37.39
275,1436896826122,-26.919,18.71,-37.39
276,1436896826142,-26.605,18.71,-37.39
277,1436896826162,-26.605,18.71,-37.39
278,1436896826183,-26.605,18.71,-37.39
279,1436896826200,-26.605,18.71,-37.39
280,1436896826223,-26.605,18.71,-37.39
281,1436896826242,-26.605,18.71,-37.39
282,1436896826262,-26.605,18.71,-37.39
283,1436896826283,-26.605,18.71,-37.39
284,1436896826301,-26.605,18.71,-37.39
285,1436896826322,-26.605,18.71,-37.069
286,1436896826341,-26.605,18.71,-37.069
287,1436896826362,-26.605,18.71,-37.069
288,1436896826382,-26.605,19.012,-37.069
289,1436896826403,-26.994,19.012,-36.769
290,1436896826423,-26.994,19.012,-36.769
291,1436896826440,-26.994,19.012,-36.769
292,1436896826463,-27.348,19.012,-36.769
293,1436896826530,-27.348,19.012,-36.454
294,1436896826531,-27.348,19.012,-36.454
295,1436896826532,-27.749,19.012,-36.454
296,1436896826541,-27.749,19.012,-36.454
297,1436896826569,-27.749,19.012,-36.103
298,1436896826580,-28.166,19.012,-36.103
299,1436896826600,-28.166,19.012,-36.103
300,1436896826621,-28.166,19.012,-36.103
301,1436896826640,-28.529,19.012,-36.103
302,1436896826661,-28.529,19.012,-36.103
303,1436896826680,-28.529,19.012,-35.745
304,1436896826699,-28.529,19.012,-35.745
305,1436896826719,-28.845,19.012,-35.745
306,1436896826744,-28.845,19.012,-35.745
307,1436896826762,-28.845,19.012,-35.745
308,1436896826783,-28.845,18.701,-35.745
309,1436896826802,-28.845,18.701,-35.745
310,1436896826822,-28.845,18.701,-35.745
311,1436896826841,-28.845,18.701,-35.745
312,1436896826863,-28.845,18.701,-35.745
313,1436896826882,-28.845,18.701,-35.745
314,1436896826903,-28.845,18.701,-35.745
315,1436896826920,-28.845,18.701,-35.745
316,1436896826940,-28.845,18.701,-35.745
317,1436896826960,-28.845,18.701,-35.745
318,1436896826980,-28.845,18.701,-35.745
319,1436896827000,-28.845,18.701,-36.061
320,1436896827021,-28.845,18.701,-36.061
321,1436896827041,-28.543,18.701,-36.061
322,1436896827061,-28.543,18.701,-36.061
323,1436896827083,-28.543,18.701,-36.364
324,1436896827105,-28.543,18.701,-36.364
325,1436896827122,-28.543,18.701,-36.364
326,1436896827169,-28.178,18.701,-36.364
327,1436896827170,-28.178,18.701,-36.364
328,1436896827271,-28.178,18.701,-36.364
329,1436896827272,-27.865,18.701,-36.72
330,1436896827273,-27.865,18.701,-36.72
331,1436896827274,-27.865,18.701,-36.72
332,1436896827275,-27.496,18.701,-36.72
333,1436896827297,-27.496,18.701,-37.034
334,1436896827303,-27.496,19.003,-37.034
335,1436896827326,-27.069,19.003,-37.034
336,1436896827340,-27.069,19.003,-37.034
337,1436896827360,-26.733,19.003,-37.42
338,1436896827380,-26.733,19.003,-37.42
339,1436896827403,-26.733,19.003,-37.42
340,1436896827419,-26.733,19.003,-37.42
341,1436896827441,-26.38,19.003,-37.42
342,1436896827459,-26.38,19.003,-37.42
343,1436896827481,-26.38,19.003,-37.42
344,1436896827503,-26.38,19.003,-37.42
345,1436896827520,-26.38,19.003,-37.727
346,1436896827541,-26.052,19.003,-37.727
347,1436896827559,-26.052,19.003,-37.727
348,1436896827581,-26.052,19.003,-37.727
349,1436896827601,-26.052,19.003,-37.727
350,1436896827623,-26.052,19.003,-37.727
351,1436896827644,-25.746,19.003,-37.727
352,1436896827662,-25.746,19.003,-37.727
353,1436896827682,-25.746,19.003,-37.727
354,1436896827700,-25.746,19.003,-37.727
355,1436896827720,-25.746,19.003,-38.029
356,1436896827741,-25.746,19.003,-38.029
357,1436896827763,-25.436,19.003,-38.029
358,1436896827784,-25.436,19.003,-38.029
359,1436896827804,-25.436,19.003,-38.029
360,1436896827822,-25.436,19.003,-38.029
361,1436896827841,-25.436,19.003,-38.029
362,1436896827862,-25.436,19.003,-38.336
363,1436896827881,-25.094,19.003,-38.336
364,1436896827901,-25.094,19.003,-38.336
365,1436896827921,-25.094,19.003,-38.336
366,1436896827988,-25.094,19.003,-38.336
367,1436896827989,-25.094,19.003,-38.336
368,1436896827990,-25.094,19.003,-38.336
369,1436896828006,-25.094,19.003,-38.336
370,1436896828021,-25.094,19.003,-38.336
371,1436896828043,-25.094,19.003,-38.336
372,1436896828060,-25.094,19.003,-38.336
373,1436896828084,-25.094,19.003,-38.336
374,1436896828100,-25.094,19.003,-38.336
375,1436896828121,-25.094,19.003,-38.336
376,1436896828144,-25.094,19.003,-38.336
377,1436896828161,-25.094,19.003,-38.336
378,1436896828184,-25.094,19.003,-38.336
379,1436896828203,-25.094,19.003,-38.336
380,1436896828223,-25.094,19.003,-38.336
381,1436896828244,-25.094,19.003,-38.336
382,1436896828265,-25.094,19.329,-38.336
383,1436896828283,-25.094,19.329,-38.336
384,1436896828304,-25.094,19.329,-38.027
385,1436896828324,-25.094,19.329,-38.027
386,1436896828343,-25.094,19.329,-38.027
387,1436896828363,-25.094,19.329,-38.027
388,1436896828381,-25.094,19.329,-38.027
389,1436896828403,-25.408,19.329,-38.027
390,1436896828421,-25.408,19.329,-38.027
391,1436896828444,-25.408,19.329,-38.027
392,1436896828464,-25.408,19.639,-38.027
393,1436896828483,-25.828,19.639,-37.638
394,1436896828504,-25.828,19.639,-37.638
395,1436896828524,-26.156,19.639,-37.638
396,1436896828544,-26.562,19.639,-37.223
397,1436896828564,-27.265,19.639,-37.223
398,1436896828582,-27.696,19.639,-36.848
399,1436896828603,-28.097,19.639,-36.494
400,1436896828623,-28.553,19.639,-36.148
401,1436896828642,-28.553,19.639,-35.035
402,1436896828662,-28.958,19.639,-35.035
403,1436896828714,-28.958,19.639,-35.035
404,1436896828715,-29.495,19.639,-34.675
405,1436896828761,-29.806,19.955,-34.342
406,1436896828762,-29.806,19.955,-34.342
407,1436896828763,-30.152,19.955,-33.874
408,1436896828783,-30.152,19.955,-33.874
409,1436896828804,-30.505,19.955,-33.403
410,1436896828821,-30.505,20.301,-33.403
411,1436896828841,-30.505,20.301,-32.997
412,1436896828863,-30.818,20.301,-32.997
413,1436896828884,-30.818,20.301,-32.56
414,1436896828902,-30.818,20.683,-32.56
415,1436896828922,-31.219,20.683,-31.9
416,1436896828944,-31.219,20.683,-31.9
417,1436896828964,-31.219,20.683,-31.9
418,1436896828985,-31.681,21.06,-31.459
419,1436896829004,-31.681,21.06,-31.459
420,1436896829025,-32.064,21.06,-31.079
421,1436896829045,-32.064,21.06,-31.079
422,1436896829065,-32.467,21.389,-31.079
423,1436896829085,-32.467,21.389,-30.499
424,1436896829104,-32.861,21.389,-30.499
425,1436896829125,-32.861,21.389,-30.499
426,1436896829144,-33.221,21.389,-30.499
427,1436896829163,-33.221,21.713,-30.107
428,1436896829185,-33.593,21.713,-30.107
429,1436896829202,-33.593,21.713,-29.667
430,1436896829222,-33.985,21.713,-29.667
431,1436896829241,-33.985,21.713,-29.306
432,1436896829266,-34.359,21.713,-29.306
433,1436896829287,-34.359,21.713,-28.958
434,1436896829307,-34.719,21.713,-28.958
435,1436896829329,-34.719,21.713,-28.553
436,1436896829342,-35.086,21.713,-28.553
437,1436896829362,-35.086,21.713,-28.16
438,1436896829382,-35.476,21.713,-28.16
439,1436896829402,-35.476,21.713,-27.804
440,1436896829425,-35.879,21.713,-27.804
441,1436896829509,-35.879,21.713,-27.42
442,1436896829510,-36.26,21.713,-27.42
443,1436896829511,-36.26,21.713,-27.014
444,1436896829512,-36.654,21.713,-27.014
445,1436896829522,-36.654,21.713,-26.625
446,1436896829545,-37.037,21.713,-26.625
447,1436896829562,-37.037,21.713,-26.237
448,1436896829582,-37.391,21.713,-26.237
449,1436896829602,-37.391,21.713,-25.914
450,1436896829623,-37.716,21.713,-25.914
451,1436896829644,-37.716,21.713,-25.555
452,1436896829663,-38.038,21.713,-25.555
453,1436896829683,-38.038,21.713,-25.233
454,1436896829702,-38.371,21.713,-25.233
455,1436896829724,-38.371,21.359,-25.233
456,1436896829745,-38.681,21.359,-24.829
457,1436896829765,-38.681,21.359,-24.829
458,1436896829785,-38.681,21.359,-24.829
459,1436896829805,-39.044,21.034,-24.52
460,1436896829824,-39.044,21.034,-24.52
461,1436896829844,-39.044,21.034,-24.52
462,1436896829865,-39.044,21.034,-24.52
463,1436896829884,-39.393,20.71,-24.52
464,1436896829905,-39.393,20.71,-24.52
465,1436896829924,-39.393,20.71,-24.52
466,1436896829943,-39.393,20.71,-24.52
467,1436896829963,-39.393,20.364,-24.52
468,1436896829983,-39.729,20.364,-24.52
469,1436896830007,-39.729,20.364,-24.52
470,1436896830026,-39.729,20.364,-24.52
471,1436896830046,-39.729,20.008,-24.52
472,1436896830066,-39.729,20.008,-24.52
473,1436896830084,-39.729,20.008,-24.52
474,1436896830102,-39.729,20.008,-24.52
475,1436896830124,-39.729,20.008,-24.52
476,1436896830144,-39.729,20.008,-24.52
477,1436896830163,-39.729,19.685,-24.52
478,1436896830215,-39.729,19.685,-24.52
479,1436896830216,-39.729,19.685,-24.52
480,1436896830223,-39.729,19.685,-24.52
481,1436896830242,-39.729,19.685,-24.52
482,1436896830263,-39.729,19.685,-24.52
483,1436896830283,-39.729,19.685,-24.855
484,1436896830302,-39.729,19.685,-24.855
485,1436896830324,-39.729,19.685,-24.855
486,1436896830342,-39.729,19.381,-24.855
487,1436896830363,-39.729,19.381,-24.855
488,1436896830388,-39.729,19.381,-25.172
489,1436896830404,-39.729,19.381,-25.172
490,1436896830422,-39.729,19.381,-25.172
491,1436896830444,-39.343,19.381,-25.532
492,1436896830466,-39.343,19.381,-25.532
493,1436896830486,-39.343,19.381,-25.834
494,1436896830506,-38.98,19.381,-25.834
495,1436896830523,-38.98,19.381,-26.191
496,1436896830544,-38.98,19.381,-26.545
497,1436896830566,-38.517,19.381,-27.296
