id,attr_time,attr_x,attr_y,attr_z
1,1436896820653,38.5513,24.2752,-22.2
2,1436896820673,38.2019,21.463,-22.5357
3,1436896820695,38.0264,24.0997,-22.0306
4,1436896820712,38.0264,24.0997,-22.0306
5,1436896820732,36.9751,22.6929,-22.0306
6,1436896820751,37.5,23.2208,-20.5185
7,1436896820772,37.5,23.2208,-20.5185
8,1436896820794,37.5,23.2208,-22.8714
9,1436896820811,37.5,24.2752,-22.5357
10,1436896820831,37.5,24.2752,-22.5357
11,1436896820851,38.9023,22.1664,-22.2
12,1436896820870,36.7996,22.1664,-20.1813
13,1436896820892,36.7996,22.1664,-20.1813
14,1436896820910,38.3759,23.7488,-21.6949
15,1436896820930,38.2019,24.2752,-21.5271
16,1436896820950,38.2019,24.2752,-21.5271
17,1436896820969,38.0264,24.0997,-20.6863
18,1436896820989,38.5513,23.5718,-22.5357
19,1436896821009,38.5513,23.5718,-22.5357
20,1436896821032,37.6755,22.6929,-22.0306
21,1436896821048,36.9751,23.7488,-21.3593
22,1436896821067,36.9751,23.7488,-21.3593
23,1436896821088,35.2234,23.3963,-22.0306
24,1436896821108,37.5,22.5174,-20.8542
25,1436896821130,37.5,22.5174,-20.8542
26,1436896821147,37.5,24.6277,-22.5357
27,1436896821166,37.1506,24.9786,-22.8714
28,1436896821187,37.1506,24.9786,-22.8714
29,1436896821206,36.7996,22.8699,-22.5357
30,1436896821227,37.851,24.9786,-21.1899
31,1436896821247,37.851,24.9786,-21.1899
32,1436896821266,37.1506,22.5174,-20.8542
33,1436896821286,36.2747,24.4507,-21.6949
34,1436896821306,36.2747,24.4507,-21.6949
35,1436896821328,38.2019,21.814,-20.8542
36,1436896821343,37.851,23.5718,-21.1899
37,1436896821365,37.851,23.5718,-21.1899
38,1436896821384,37.1506,23.9243,-21.8628
39,1436896821404,38.0264,23.0453,-20.3491
40,1436896821427,38.0264,23.0453,-20.3491
41,1436896821444,38.5513,22.8699,-22.2
42,1436896821464,38.9023,24.2752,-20.8542
43,1436896821483,38.9023,24.2752,-20.8542
44,1436896821503,38.5513,22.5174,-20.8542
45,1436896821525,36.2747,24.0997,-20.3491
46,1436896821543,36.2747,24.0997,-20.3491
47,1436896821563,38.0264,21.991,-22.3679
48,1436896821583,37.1506,23.5718,-22.5357
49,1436896821602,37.1506,23.5718,-22.5357
50,1436896821622,38.0264,22.6929,-23.0408
51,1436896821641,37.3261,24.8032,-22.3679
52,1436896821660,37.3261,24.8032,-22.3679
53,1436896821682,38.0264,22.3419,-21.6949
54,1436896821700,37.6755,24.0997,-21.6949
55,1436896821720,37.6755,24.0997,-21.6949
56,1436896821741,38.0264,23.7488,-22.7036
57,1436896821760,37.5,24.6277,-20.8542
58,1436896821780,37.5,24.6277,-20.8542
59,1436896821799,38.0264,23.7488,-22.3679
60,1436896821820,37.5,23.9243,-21.1899
61,1436896821839,37.5,23.9243,-21.1899
62,1436896821859,37.5,23.5718,-21.8628
63,1436896821879,37.1506,23.5718,-21.1899
64,1436896821899,37.1506,23.5718,-21.1899
65,1436896821921,38.2019,23.2208,-21.8628
66,1436896821938,36.4502,23.5718,-22.5357
67,1436896821958,36.4502,23.5718,-22.5357
68,1436896821977,37.5,23.2208,-21.5271
69,1436896821998,38.0264,23.3963,-20.6863
70,1436896822019,38.0264,23.3963,-20.6863
71,1436896822037,37.851,22.1664,-21.5271
72,1436896822056,37.6755,25.5066,-22.0306
73,1436896822077,37.6755,25.5066,-22.0306
74,1436896822097,39.0778,25.5066,-19.3405
75,1436896822117,37.5,24.2752,-20.5185
76,1436896822136,37.5,24.2752,-20.5185
77,1436896822158,37.6755,24.4507,-19.3405
78,1436896822176,39.7781,27.2644,-19.6762
79,1436896822196,39.7781,27.2644,-19.6762
80,1436896822216,38.5513,26.3855,-18.8355
81,1436896822235,37.3261,29.0222,-18.3319
82,1436896822257,37.3261,29.0222,-18.3319
83,1436896822275,37.3261,28.3188,-15.6418
84,1436896822293,37.3261,30.78,-16.3132
85,1436896822315,37.3261,30.78,-16.3132
86,1436896822333,38.9023,30.2521,-15.4724
87,1436896822354,38.9023,30.9555,-13.118
88,1436896822374,38.9023,30.9555,-13.118
89,1436896822392,39.4272,31.4819,-11.6058
90,1436896822414,39.4272,31.131,-12.9501
91,1436896822433,39.4272,31.131,-12.9501
92,1436896822453,39.0778,31.131,-11.6058
93,1436896822472,39.4272,31.131,-11.2686
94,1436896822492,39.4272,31.131,-11.2686
95,1436896822523,41.0049,29.9011,-11.4365
96,1436896822528,41.7053,30.603,-11.1008
97,1436896822554,41.7053,30.603,-11.1008
98,1436896822571,42.9321,30.4276,-9.5871
99,1436896822591,42.7567,30.9555,-11.7737
100,1436896822610,42.7567,30.9555,-11.7737
101,1436896822631,42.4057,28.8452,-12.1094
102,1436896822652,43.457,27.7908,-10.4279
103,1436896822670,43.457,27.7908,-10.4279
104,1436896822690,41.8808,26.9119,-12.9501
105,1436896822709,41.1804,25.5066,-11.9415
106,1436896822729,41.1804,25.5066,-11.9415
107,1436896822752,41.8808,23.7488,-11.6058
108,1436896822768,40.8295,23.7488,-10.9329
109,1436896822789,40.8295,23.7488,-10.9329
110,1436896822809,42.0563,20.7596,-13.118
111,1436896822828,40.654,21.1121,-14.7995
112,1436896822851,40.654,21.1121,-14.7995
113,1436896822868,41.8808,18.1229,-17.3233
114,1436896822887,42.4057,19.0018,-18.1641
115,1436896822908,42.4057,19.0018,-18.1641
116,1436896822925,41.5298,17.4194,-20.0134
117,1436896822950,41.3544,19.3542,-18.4998
118,1436896822966,41.3544,19.3542,-18.4998
119,1436896822987,40.654,17.244,-19.8456
120,1436896823007,39.9536,17.244,-21.1899
121,1436896823026,39.9536,17.244,-21.1899
122,1436896823046,40.303,16.5405,-20.8542
123,1436896823066,42.5812,15.3107,-22.3679
124,1436896823085,42.5812,15.3107,-22.3679
125,1436896823106,41.5298,14.9597,-19.3405
126,1436896823125,40.4785,10.7407,-22.0306
127,1436896823144,40.4785,10.7407,-22.0306
128,1436896823165,42.2302,11.0916,-20.6863
129,1436896823187,42.5812,10.7407,-21.022
130,1436896823204,42.5812,10.7407,-21.022
131,1436896823224,42.2302,9.3338,-21.6949
132,1436896823242,42.9321,10.7407,-20.0134
133,1436896823264,42.9321,10.7407,-20.0134
134,1436896823283,44.5084,8.10394,-20.8542
135,1436896823303,42.7567,7.75146,-21.1899
136,1436896823323,42.7567,7.75146,-21.1899
137,1436896823343,43.457,5.6427,-19.5084
138,1436896823362,44.5084,4.58832,-19.8456
139,1436896823382,44.5084,4.58832,-19.8456
140,1436896823402,42.7567,4.93927,-21.1899
141,1436896823424,44.5084,5.99365,-20.1813
142,1436896823442,44.5084,5.99365,-20.1813
143,1436896823460,44.6838,4.06036,-20.6863
144,1436896823481,45.3842,6.17065,-20.0134
145,1436896823501,45.3842,6.17065,-20.0134
146,1436896823521,42.7567,5.99365,-19.8456
147,1436896823540,45.9106,5.6427,-18.8355
148,1436896823558,45.9106,5.6427,-18.8355
149,1436896823580,44.1574,4.23584,-18.8355
150,1436896823599,44.6838,5.81818,-17.659
151,1436896823620,44.6838,5.81818,-17.659
152,1436896823639,43.808,7.40051,-17.8268
153,1436896823659,43.6325,6.17065,-16.3132
154,1436896823679,43.6325,6.17065,-16.3132
155,1436896823698,45.2087,8.4549,-17.1539
156,1436896823718,44.8593,7.75146,-15.8096
157,1436896823737,44.8593,7.75146,-15.8096
158,1436896823758,45.0333,8.63037,-15.9775
159,1436896823777,43.9835,9.3338,-15.9775
160,1436896823797,43.9835,9.3338,-15.9775
161,1436896823820,44.8593,9.50928,-16.4825
162,1436896823837,45.0333,11.0916,-15.3046
163,1436896823857,45.0333,11.0916,-15.3046
164,1436896823876,43.2816,12.4985,-15.6418
165,1436896823896,43.9835,12.4985,-14.9689
166,1436896823918,43.9835,12.4985,-14.9689
167,1436896823936,42.7567,13.7283,-15.1367
168,1436896823956,42.9321,16.3651,-13.9587
169,1436896823976,42.9321,16.3651,-13.9587
170,1436896823995,41.3544,16.1896,-15.4724
171,1436896824018,41.7053,17.9474,-15.4724
172,1436896824035,41.7053,17.9474,-15.4724
173,1436896824053,39.4272,19.5297,-15.9775
174,1436896824075,39.7781,21.6385,-14.9689
175,1436896824093,39.7781,21.6385,-14.9689
176,1436896824114,37.6755,21.6385,-16.9861
177,1436896824134,37.851,24.6277,-15.8096
178,1436896824153,37.851,24.6277,-15.8096
179,1436896824174,35.7483,25.6821,-16.8182
180,1436896824192,33.9966,30.2521,-16.1453
181,1436896824213,33.9966,30.2521,-16.1453
182,1436896824232,33.1207,30.0766,-14.9689
183,1436896824252,31.7184,32.5378,-15.3046
184,1436896824272,31.7184,32.5378,-15.3046
185,1436896824292,30.1422,33.7677,-15.1367
186,1436896824312,29.2664,36.0535,-14.296
187,1436896824331,29.2664,36.0535,-14.296
188,1436896824354,26.1124,36.4044,-14.296
189,1436896824369,25.061,36.7554,-13.623
190,1436896824390,25.061,36.7554,-13.623
191,1436896824410,24.0112,37.8113,-12.2772
192,1436896824430,22.9599,40.271,-13.9587
193,1436896824453,22.9599,40.271,-13.9587
194,1436896824469,22.258,39.5691,-13.623
195,1436896824490,22.9599,42.0288,-15.3046
196,1436896824509,22.9599,42.0288,-15.3046
197,1436896824529,21.9086,40.6235,-13.623
198,1436896824551,21.7331,42.2058,-16.8182
199,1436896824569,21.7331,42.2058,-16.8182
200,1436896824588,21.0327,39.3921,-21.1899
201,1436896824609,20.8572,39.5691,-21.022
202,1436896824628,20.8572,39.5691,-21.022
203,1436896824648,19.8059,38.8657,-23.3765
204,1436896824668,17.3538,37.8113,-24.7223
205,1436896824686,17.3538,37.8113,-24.7223
206,1436896824708,19.455,38.1622,-26.4038
207,1436896824725,18.4036,38.5132,-22.0306
208,1436896824749,18.4036,38.5132,-22.0306
209,1436896824767,18.5791,40.7989,-23.2086
210,1436896824786,18.5791,39.3921,-22.2
211,1436896824807,18.5791,39.3921,-22.2
212,1436896824826,17.8787,39.3921,-21.1899
213,1436896824848,17.0029,40.9744,-21.022
214,1436896824865,17.0029,40.9744,-21.022
215,1436896824885,16.6519,39.5691,-21.022
216,1436896824905,16.4764,40.0955,-21.5271
217,1436896824924,16.4764,40.0955,-21.5271
218,1436896824945,13.8489,40.9744,-22.0306
219,1436896824964,13.6734,41.1499,-23.2086
220,1436896824984,13.6734,41.1499,-23.2086
221,1436896825003,13.1485,38.1622,-22.7036
222,1436896825024,14.5508,40.271,-23.7122
223,1436896825043,14.5508,40.271,-23.7122
224,1436896825062,13.324,39.0411,-24.5544
225,1436896825083,12.7975,40.9744,-23.7122
226,1436896825103,12.7975,40.9744,-23.7122
227,1436896825123,10.3455,38.1622,-24.0494
228,1436896825143,11.0458,38.8657,-25.7309
229,1436896825162,11.0458,38.8657,-25.7309
230,1436896825182,10.5209,37.6343,-27.9175
231,1436896825202,9.4696,35.8765,-28.5904
232,1436896825222,9.4696,35.8765,-28.5904
233,1436896825244,8.94318,33.5922,-31.4484
234,1436896825261,8.2428,32.5378,-34.4757
235,1436896825281,8.2428,32.5378,-34.4757
236,1436896825301,7.19147,29.3732,-37.5031
237,1436896825319,6.49109,27.6154,-36.1572
238,1436896825343,6.49109,27.6154,-36.1572
239,1436896825359,3.51257,25.6821,-39.0152
240,1436896825382,4.73938,24.8032,-39.5203
241,1436896825399,4.73938,24.8032,-39.5203
242,1436896825419,4.039,23.7488,-40.1932
243,1436896825439,4.38843,23.0453,-38.8473
244,1436896825459,4.38843,23.0453,-38.8473
245,1436896825478,6.84204,20.9351,-40.5289
246,1436896825498,7.19147,22.3419,-40.5289
247,1436896825518,7.19147,22.3419,-40.5289
248,1436896825537,7.36694,19.3542,-41.7069
249,1436896825558,7.89185,18.1229,-42.2104
250,1436896825578,7.89185,18.1229,-42.2104
251,1436896825597,9.29413,13.9038,-43.8919
252,1436896825617,8.06732,11.9705,-44.397
253,1436896825635,8.06732,11.9705,-44.397
254,1436896825657,9.99451,11.4441,-45.2377
255,1436896825678,8.94318,11.4441,-43.8919
256,1436896825696,8.94318,11.4441,-43.8919
257,1436896825716,10.3455,10.7407,-45.2377
258,1436896825735,8.41827,10.9161,-45.0699
259,1436896825755,8.41827,10.9161,-45.0699
260,1436896825777,7.89185,12.146,-45.2377
261,1436896825795,8.2428,11.795,-43.8919
262,1436896825815,8.2428,11.795,-43.8919
263,1436896825835,7.19147,10.7407,-45.2377
264,1436896825853,8.41827,11.9705,-43.3884
265,1436896825875,8.41827,11.9705,-43.3884
266,1436896825894,8.76923,11.2671,-47.4243
267,1436896825914,9.81903,12.323,-44.397
268,1436896825934,9.81903,12.323,-44.397
269,1436896825951,7.36694,11.2671,-45.0699
270,1436896825975,8.76923,13.3774,-44.7327
271,1436896825992,8.76923,13.3774,-44.7327
272,1436896826012,9.4696,12.323,-43.7241
273,1436896826032,7.89185,12.146,-44.5648
274,1436896826051,7.89185,12.146,-44.5648
275,1436896826069,9.4696,11.2671,-45.0699
276,1436896826092,9.4696,12.6739,-43.3884
277,1436896826111,9.4696,12.6739,-43.3884
278,1436896826132,10.17,10.5652,-45.0699
279,1436896826151,9.4696,12.323,-46.7514
280,1436896826170,9.4696,12.323,-46.7514
281,1436896826191,9.99451,11.795,-44.2291
282,1436896826210,7.89185,13.9038,-44.2291
283,1436896826230,7.89185,13.9038,-44.2291
284,1436896826250,10.3455,16.3651,-43.2205
285,1436896826270,8.94318,18.4753,-42.5476
286,1436896826289,8.94318,18.4753,-42.5476
287,1436896826308,7.36694,20.7596,-41.3696
288,1436896826329,7.01599,24.2752,-39.6881
289,1436896826349,7.01599,24.2752,-39.6881
290,1436896826371,5.08881,25.5066,-36.8301
291,1436896826388,5.61523,29.1977,-35.3165
292,1436896826408,5.61523,29.1977,-35.3165
293,1436896826428,5.43976,29.3732,-34.4757
294,1436896826447,2.81219,30.603,-33.2977
295,1436896826467,2.81219,30.603,-33.2977
296,1436896826486,2.98767,28.3188,-34.1385
297,1436896826507,1.93634,28.3188,-34.8114
298,1436896826527,1.93634,28.3188,-34.8114
299,1436896826546,1.06049,25.3296,-37.3337
300,1436896826567,1.06049,24.6277,-37.3337
301,1436896826585,1.06049,24.6277,-37.3337
302,1436896826606,0.709534,22.8699,-39.0152
303,1436896826625,0.00915527,20.4086,-40.0253
304,1436896826646,0.00915527,20.4086,-40.0253
305,1436896826666,1.40991,18.2983,-42.3798
306,1436896826685,1.06049,18.6508,-41.3696
307,1436896826705,1.06049,18.6508,-41.3696
308,1436896826724,1.40991,17.244,-43.3884
309,1436896826744,1.58539,19.1772,-41.8747
310,1436896826763,1.58539,19.1772,-41.8747
311,1436896826784,0.184631,19.8807,-42.2104
312,1436896826805,-0.166321,21.991,-37.5031
313,1436896826823,-0.166321,21.991,-37.5031
314,1436896826843,-1.91803,18.8263,-40.5289
315,1436896826863,-4.02069,21.2875,-39.5203
316,1436896826883,-4.02069,21.2875,-39.5203
317,1436896826904,-3.84521,20.7596,-39.3524
318,1436896826922,-5.2475,21.1121,-39.3524
319,1436896826942,-5.2475,21.1121,-39.3524
320,1436896826962,-4.72107,21.991,-38.8473
321,1436896826982,-4.54559,22.8699,-37.3337
322,1436896827004,-4.54559,22.8699,-37.3337
323,1436896827021,-5.7724,25.1541,-36.1572
324,1436896827041,-7.52411,27.2644,-34.1385
325,1436896827060,-7.52411,27.2644,-34.1385
326,1436896827079,-8.05054,28.1433,-32.6263
327,1436896827103,-8.57544,30.4276,-30.1025
328,1436896827119,-8.57544,30.4276,-30.1025
329,1436896827140,-11.203,31.3065,-30.2719
330,1436896827160,-11.203,31.6589,-27.9175
331,1436896827179,-11.203,31.6589,-27.9175
332,1436896827200,-11.0291,33.5922,-27.4124
333,1436896827218,-14.1815,32.5378,-28.0853
334,1436896827239,-14.1815,32.5378,-28.0853
335,1436896827259,-13.4811,30.4276,-28.0853
336,1436896827278,-14.357,32.0099,-29.9347
337,1436896827301,-14.357,32.0099,-29.9347
338,1436896827318,-16.6351,27.2644,-30.7755
339,1436896827338,-16.9846,27.6154,-33.1299
340,1436896827358,-16.9846,27.6154,-33.1299
341,1436896827377,-18.2114,25.3296,-32.6263
342,1436896827396,-19.7876,23.0453,-35.82
343,1436896827417,-19.7876,23.0453,-35.82
344,1436896827435,-22.4167,20.7596,-35.9894
345,1436896827456,-25.5692,21.1121,-31.6162
346,1436896827475,-25.5692,21.1121,-31.6162
347,1436896827498,-25.2197,20.7596,-30.6076
348,1436896827516,-28.8986,21.2875,-28.421
349,1436896827537,-28.8986,21.2875,-28.421
350,1436896827555,-29.2496,21.991,-25.3952
351,1436896827575,-30.1254,23.2208,-23.8815
352,1436896827595,-30.1254,23.2208,-23.8815
353,1436896827615,-30.8258,22.8699,-22.5357
354,1436896827635,-29.7745,26.7365,-22.8714
355,1436896827654,-29.7745,26.7365,-22.8714
356,1436896827674,-29.2496,26.2085,-21.022
357,1436896827694,-30.4749,30.2521,-17.1539
358,1436896827712,-30.4749,30.2521,-17.1539
359,1436896827733,-27.8473,31.4819,-14.6317
360,1436896827752,-29.599,31.4819,-9.92279
361,1436896827773,-29.599,31.4819,-9.92279
362,1436896827793,-29.599,33.5922,-9.92279
363,1436896827812,-29.7745,32.7133,-8.74634
364,1436896827832,-29.7745,32.7133,-8.74634
365,1436896827852,-29.4235,33.0643,-8.07343
366,1436896827871,-30.6503,32.1854,-8.57849
367,1436896827892,-30.6503,32.1854,-8.57849
368,1436896827911,-30.8258,32.0099,-9.75494
369,1436896827932,-29.7745,32.0099,-11.1008
370,1436896827951,-29.7745,32.0099,-11.1008
371,1436896827970,-30.6503,31.131,-10.26
372,1436896827991,-29.4235,33.0643,-10.4279
373,1436896828010,-29.4235,33.0643,-10.4279
374,1436896828031,-29.2496,30.78,-10.26
375,1436896828049,-30.8258,32.3608,-10.0922
376,1436896828069,-30.8258,32.3608,-10.0922
377,1436896828090,-29.7745,31.6589,-10.4279
378,1436896828109,-29.2496,31.8344,-9.2514
379,1436896828131,-29.2496,31.8344,-9.2514
380,1436896828148,-30.6503,30.78,-10.26
381,1436896828168,-30.1254,34.1187,-11.4365
382,1436896828188,-30.1254,34.1187,-11.4365
383,1436896828206,-30.4749,31.6589,-11.7737
384,1436896828228,-29.7745,31.3065,-13.4552
385,1436896828246,-29.7745,31.3065,-13.4552
386,1436896828267,-30.6503,27.2644,-17.9947
387,1436896828287,-30.1254,24.9786,-19.5084
388,1436896828307,-30.1254,24.9786,-19.5084
389,1436896828327,-30.2994,24.0997,-23.0408
390,1436896828344,-31.5262,21.1121,-24.8901
391,1436896828366,-31.5262,21.1121,-24.8901
392,1436896828384,-30.2994,15.6616,-28.7582
393,1436896828406,-32.0526,17.7719,-29.0939
394,1436896828426,-32.0526,17.7719,-29.0939
395,1436896828445,-32.0526,13.9038,-30.4398
396,1436896828464,-31.3507,13.2019,-29.4312
397,1436896828485,-31.3507,13.2019,-29.4312
398,1436896828504,-33.2779,10.9161,-30.2719
399,1436896828525,-33.4534,13.9038,-28.7582
400,1436896828544,-33.4534,13.9038,-28.7582
401,1436896828563,-32.5775,15.1352,-26.5717
402,1436896828584,-33.6288,20.4086,-23.5443
403,1436896828603,-33.6288,20.4086,-23.5443
404,1436896828633,-34.3292,22.8699,-19.1727
405,1436896828639,-33.2779,25.6821,-13.7909
406,1436896828661,-33.2779,25.6821,-13.7909
407,1436896828682,-32.402,31.4819,-9.5871
408,1436896828701,-32.0526,30.4276,-7.23267
409,1436896828722,-32.0526,30.4276,-7.23267
410,1436896828742,-31.5262,30.2521,-8.07343
411,1436896828762,-32.2266,32.3608,-7.40051
412,1436896828781,-32.2266,32.3608,-7.40051
413,1436896828801,-31.0013,29.3732,-8.91418
414,1436896828821,-33.9798,29.5486,-10.4279
415,1436896828841,-33.9798,29.5486,-10.4279
416,1436896828861,-32.753,28.3188,-12.6144
417,1436896828879,-33.6288,25.6821,-14.4638
418,1436896828900,-33.6288,25.6821,-14.4638
419,1436896828920,-34.6802,22.8699,-16.4825
420,1436896828940,-35.3806,22.8699,-17.4912
421,1436896828960,-35.3806,22.8699,-17.4912
422,1436896828977,-35.0296,18.2983,-21.8628
423,1436896828999,-34.5047,14.2563,-24.7223
424,1436896829018,-34.5047,14.2563,-24.7223
425,1436896829038,-34.8556,11.0916,-26.0666
426,1436896829058,-33.6288,11.6196,-27.9175
427,1436896829078,-33.6288,11.6196,-27.9175
428,1436896829098,-33.9798,8.80737,-25.8987
429,1436896829118,-34.5047,8.27942,-28.421
430,1436896829137,-34.5047,8.27942,-28.421
431,1436896829160,-36.2564,4.76379,-27.4124
432,1436896829177,-34.6802,8.10394,-26.9073
433,1436896829196,-34.6802,8.10394,-26.9073
434,1436896829217,-34.3292,11.2671,-25.5631
435,1436896829236,-34.1537,17.4194,-21.6949
436,1436896829257,-34.1537,17.4194,-21.6949
437,1436896829276,-33.8043,23.3963,-16.9861
438,1436896829294,-35.2051,25.8575,-14.296
439,1436896829316,-35.2051,25.8575,-14.296
440,1436896829336,-34.1537,27.6154,-12.9501
441,1436896829355,-33.8043,27.6154,-11.9415
442,1436896829375,-33.8043,27.6154,-11.9415
443,1436896829394,-33.9798,27.4399,-13.7909
444,1436896829415,-33.4534,27.6154,-13.9587
445,1436896829434,-33.4534,27.6154,-13.9587
446,1436896829454,-32.5775,26.7365,-15.8096
447,1436896829472,-33.8043,27.6154,-13.9587
448,1436896829493,-35.6186,27.1881,-14.1678
449,1436896829513,-36.1435,23.848,-17.7002
450,1436896829533,-36.319,19.8059,-18.541
451,1436896829553,-36.319,19.8059,-18.541
452,1436896829573,-36.4944,17.8711,-22.7448
453,1436896829592,-35.6186,16.6412,-22.9126
454,1436896829611,-35.6186,16.6412,-22.9126
455,1436896829631,-35.0922,13.6536,-24.0906
456,1436896829652,-35.7941,15.0589,-26.445
457,1436896829671,-35.7941,15.0589,-26.445
458,1436896829691,-35.7941,15.0589,-25.7721
459,1436896829711,-33.3405,16.4658,-25.4349
460,1436896829730,-33.3405,16.4658,-25.4349
461,1436896829751,-33.6914,15.7623,-25.7721
462,1436896829770,-34.2163,18.0481,-25.267
463,1436896829789,-34.2163,18.0481,-25.267
464,1436896829810,-34.2163,19.1025,-24.2584
465,1436896829829,-34.0408,20.3323,-23.7534
466,1436896829848,-34.0408,20.3323,-23.7534
467,1436896829869,-33.3405,21.0358,-26.1078
