id,attr_time,attr_db
1,1436291534852,44.5886717491695
2,1436291535558,43.9607224794164
3,1436291536234,46.4592693953811
4,1436291536911,52.8193249535239
5,1436291537642,58.1373626004014
6,1436291538385,49.5613361234207
7,1436291539130,48.967561080627
8,1436291539886,43.8171778431406
9,1436291540611,56.309562469459
10,1436291541320,43.7003088590358
11,1436291542040,44.2509569796555
12,1436291542763,44.6197030275009
13,1436291543501,57.9797163551222
14,1436291544228,56.7086161143218
15,1436291544938,53.3936209375737
16,1436291545640,55.2102926193575
17,1436291546327,51.0464459574636
18,1436291547001,53.9455358017875
19,1436291547722,56.1396720673302
20,1436291548483,56.1978926386445
21,1436291549209,46.6709657910142
22,1436291549811,49.7148920078008
23,1436291550491,54.5493981926189
24,1436291551252,46.1134586978703
25,1436291551999,50.9471822322223
26,1436291552723,64.1768580990708
27,1436291553460,59.8577420268392
28,1436291554187,44.5942937995821
29,1436291554912,52.2682882020373
30,1436291555624,57.1945182230983
31,1436291556302,42.2766134524878
32,1436291556937,51.0019598077654
33,1436291557640,51.8730703608003
34,1436291558407,50.7030464440722
35,1436291559147,44.766520193727
36,1436291559890,43.5019236670991
37,1436291560605,47.8440948003938
38,1436291561346,57.4058756341749
39,1436291562061,44.9803855858206
40,1436291562820,53.8731895432499
41,1436291563454,45.7295450509152
42,1436291564185,42.8559574079555
43,1436291564925,43.4124784932404
44,1436291565641,42.4104931013691
45,1436291566332,50.4162811609161
46,1436291567172,53.5872561638635
47,1436291567902,49.790494423893
48,1436291568636,64.3424596520215
49,1436291569355,42.5003894986867
50,1436291570075,55.2609466294312
51,1436291570804,54.0649378339806
52,1436291571552,47.2033243020342
53,1436291572278,52.3669451457707
54,1436291573015,48.4858441690694
55,1436291573760,45.3343789860531
56,1436291574492,51.2627397020667
57,1436291575224,56.5024556613734
58,1436291575976,61.6966693586604
59,1436291576774,61.1850169818768
60,1436291577331,65.9223419981874
61,1436291577964,46.3746531882398
62,1436291579411,43.6357574487564
63,1436291580096,44.9602243513944
64,1436291580861,60.6685083798609
65,1436291581517,41.2503217134993
66,1436291582234,56.6879119134345
67,1436291582932,47.9843636198766
68,1436291583661,62.4014874753814
69,1436291584366,45.8616317772553
70,1436291585836,45.4560533229597
71,1436291586533,56.8267476394893
72,1436291587261,45.9116176126615
73,1436291587968,46.2502026356245
74,1436291588657,52.6676188977955
75,1436291589392,53.4367012856808
76,1436291590121,42.0182819376492
77,1436291590865,45.41276399773
78,1436291592748,60.8310121167266
79,1436291593447,48.8529594740129
80,1436291594202,52.4363864602863
81,1436291594959,56.2979711541239
82,1436291595661,56.6196444164627
83,1436291597713,54.5062541928544
84,1436291598353,57.4538808239047
85,1436291599027,56.3564419433975
86,1436291599765,43.0174302781409
87,1436291600495,44.8174126559294
88,1436291601226,49.4569228056741
89,1436291601943,53.6648947480476
90,1436291602654,49.3525167864433
91,1436291603378,48.1781272294985
92,1436291604118,56.9233458347586
93,1436291604890,62.5269765345028
94,1436291605561,60.9854343002441
95,1436291606269,61.7530882231331
96,1436291606976,62.6217260129995
97,1436291607703,65.1923877841391
98,1436291608437,67.4691123726559
99,1436291609137,64.1938439783428
100,1436291609803,64.7844886477585
101,1436291610502,65.6523595856139
102,1436291611230,66.7263260663788
103,1436291611953,69.710133204147
104,1436291612663,59.6136001312044
105,1436291613379,73.05883154387
106,1436291614072,55.1532199661914
107,1436291614723,58.9860106974667
108,1436291615451,59.6004573074847
109,1436291616176,54.2626618070658
110,1436291616916,51.871576075755
111,1436291617625,65.4255403747074
112,1436291618307,46.8466730241742
113,1436291618994,47.1826365680059
114,1436291619606,45.9642933032306
115,1436291620296,46.8238073993787
116,1436291621013,57.5916979488696
117,1436291621795,62.8899354505189
118,1436291622518,45.3483424435026
119,1436291623220,65.2947361997159
120,1436291623908,51.2537171963584
121,1436291624614,50.4707521556402
122,1436291625335,45.7014608740313
123,1436291626060,56.3769387750378
124,1436291626788,56.4605602120757
125,1436291627555,49.5987129920512
126,1436291628284,55.770938941118
127,1436291628963,62.0256472926079
128,1436291629640,61.8253712302859
129,1436291630377,55.0979215869419
130,1436291631107,54.6137886631854
131,1436291631907,58.4707878093119
132,1436291632674,45.8587871996589
133,1436291633333,57.9872313919307
134,1436291634036,60.4338924088887
135,1436291634761,56.4805108511179
136,1436291635483,46.7778322250808
137,1436291636217,57.5987365272897
138,1436291636963,49.6940960526679
139,1436291637740,43.7556127204265
140,1436291638375,59.6343487749926
141,1436291639049,65.3275622617315
142,1436291639754,58.8833672235493
143,1436291640437,51.8352166836952
144,1436291641128,53.4990480304318
145,1436291641993,60.1750059432624
146,1436291642742,59.7052799897714
147,1436291643466,54.1422527168309
148,1436291644200,59.270941146299
149,1436291644940,54.6021546531741
150,1436291645626,51.7049209717854
151,1436291646366,54.3487671923386
152,1436291647088,67.6650101669507
153,1436291647817,52.6784925041824
154,1436291648543,49.9640203047041
155,1436291649232,61.7071250972664
156,1436291649883,56.372102820694
157,1436291650594,48.1558209119476
158,1436291651335,47.2714012011357
159,1436291652058,54.5813956767584
160,1436291652771,44.9937766680801
161,1436291653449,44.9838440788644
162,1436291654195,62.7897015327976
163,1436291654917,42.2443153354838
164,1436291655653,40.6095154212825
165,1436291656394,51.5052272103741
166,1436291657126,56.1461490981185
167,1436291657844,40.3626887948292
168,1436291658476,59.1980750415603
169,1436291659179,48.6239063965906
170,1436291659886,48.2565453022789
171,1436291660550,44.4922639687297
172,1436291661274,54.9709695805684
173,1436291662000,46.7147732755265
174,1436291662812,43.7983538491558
175,1436291663478,49.8985433430173
176,1436291664099,58.4688934466894
177,1436291664787,64.8507085216003
178,1436291665526,47.5974429507575
179,1436291666255,50.7823631974569
180,1436291666981,69.2137478778615
181,1436291667693,38.9349250126098
182,1436291668395,42.3510899137829
183,1436291669109,45.4804422858267
184,1436291669755,54.7841039652399
185,1436291670418,39.6994929219482
186,1436291671140,43.3137101575225
187,1436291671894,63.5056674008762
188,1436291672631,42.0402282381359
189,1436291673342,48.7369351578864
190,1436291674057,67.5070324564388
191,1436291674784,44.4976786977042
192,1436291675463,42.6557947248807
193,1436291676178,53.8161275707778
194,1436291676912,60.8828094398335
195,1436291677638,41.4425314545304
196,1436291678333,65.6591670254409
197,1436291679068,40.9443112524516
198,1436291679849,38.0034150676797
199,1436291680402,48.5694753365581
200,1436291680958,49.0326179646315
201,1436291681515,52.7390985138807
202,1436291682091,67.7995911293907
203,1436291682728,64.3695431479026
204,1436291683461,55.9700529002691
205,1436291684226,60.3233180099884
206,1436291684947,61.8807287003564
207,1436291685494,61.2640890861935
208,1436291686044,64.9342783294503
209,1436291686616,60.5776201929214
210,1436291688068,42.3891112959442
211,1436291688814,65.8523167616503
212,1436291689565,53.1089846631063
213,1436291690311,55.5807726382918
214,1436291691076,59.1010108911137
215,1436291691656,45.3790293431203
216,1436291692214,52.8708201173255
217,1436291692767,41.6484733037727
218,1436291693336,67.9856464098725
219,1436291694018,69.5473561023184
220,1436291694793,60.3798154053214
221,1436291695526,41.3770431934383
222,1436291696159,51.7208582376686
223,1436291696735,53.3396489799602
224,1436291697300,51.4619054283476
225,1436291697852,43.3852368383925
226,1436291698425,49.0660338646891
227,1436291698995,58.3861407012977
228,1436291700027,49.8405445456104
229,1436291700641,44.306706874512
230,1436291701354,48.9421449224702
231,1436291702049,51.9084708197032
232,1436291702678,52.5675794565086
233,1436291703254,55.6537697173898
234,1436291703804,59.9084808181828
235,1436291704392,53.1227280150927
236,1436291705066,63.3048532802137
237,1436291705791,46.0258558365991
238,1436291706538,69.3894729887501
239,1436291707204,62.0263910135325
240,1436291707751,68.3582638479774
241,1436291708301,66.3985363588992
242,1436291708854,75.7725094975492
243,1436291709403,65.7574745826898
244,1436291710506,59.1804545694074
245,1436291711236,60.1341016536582
246,1436291711864,51.7497889971519
247,1436291712574,58.3482394412378
248,1436291713326,66.0678333804038
249,1436291714085,71.5898100360755
250,1436291714805,59.9272034256962
251,1436291715523,49.1517814855435
252,1436291716274,71.2601108918269
253,1436291717003,61.2901522823611
254,1436291717794,59.8338052578723
255,1436291718507,51.7579886624279
256,1436291719169,63.7197946347872
257,1436291719890,67.0397435204603
258,1436291720632,70.5256210524394
259,1436291721383,60.0175072512191
260,1436291722113,64.6507984451981
261,1436291722748,46.4167063104252
262,1436291723412,50.2045565540639
263,1436291724171,45.2201990951778
264,1436291724912,59.4284495062446
265,1436291725662,44.8681184688447
266,1436291726403,44.5451417592968
267,1436291727141,43.4709386833254
268,1436291727843,48.5094592406534
269,1436291728500,52.92797709853
270,1436291729242,48.6598670583615
271,1436291729945,42.1285497742033
272,1436291730688,44.7915068624021
273,1436291731403,54.9572194135534
274,1436291732064,62.0688096186559
275,1436291732789,41.656565326035
276,1436291733511,54.6135998380294
277,1436291734261,67.2670583171379
278,1436291734981,65.63249078848
279,1436291735728,62.8103557409943
280,1436291736438,69.7136558968518
281,1436291737154,67.9343440641282
282,1436291737822,63.8908985933825
283,1436291738571,62.3132174713583
284,1436291739245,56.0888462767505
285,1436291739992,47.417882849043
286,1436291740707,52.9710380115911
287,1436291741432,62.6214622719507
288,1436291742147,50.6502045337184
289,1436291742789,53.2038664183872
290,1436291743512,71.9364673678618
291,1436291744216,59.3948512773748
292,1436291744931,50.0760792746459
293,1436291745645,60.9977530978971
294,1436291746367,59.2824616609908
295,1436291747090,46.5276062838833
296,1436291747845,62.7143829351676
297,1436291748570,60.3462909419679
298,1436291749282,45.0022816267669
299,1436291749996,46.5171072936115
300,1436291750698,45.9400681004628
301,1436291751411,57.5760717923326
302,1436291752102,44.4425876146911
303,1436291752817,50.9207971128175
304,1436291753440,54.1874370500673
305,1436291754132,56.8047469425656
306,1436291754869,59.3838084018881
307,1436291755603,58.3404976876594
308,1436291756330,57.0517488853899
309,1436291757040,52.7109896144563
310,1436291757744,64.357347812726
311,1436291758354,45.6587595733114
312,1436291759053,46.166965143155
313,1436291759780,57.4808263038
314,1436291760517,46.501166010528
315,1436291761252,52.1331040124361
316,1436291761984,61.421211909024
317,1436291762717,65.928964746207
318,1436291763453,45.0122277060333
319,1436291764189,60.1708210492
320,1436291764850,53.4017979290145
321,1436291765566,47.4605548267797
322,1436291766280,62.7652345706618
323,1436291767012,65.3813242559876
324,1436291767786,50.7815607591094
325,1436291768578,47.060668584946
326,1436291769238,55.9406338254056
327,1436291769945,50.2025053473143
328,1436291770669,64.0080936671085
329,1436291771405,61.6537070745749
330,1436291772143,51.5753013078081
331,1436291772849,65.462243651386
332,1436291773572,65.9258597704782
333,1436291774293,39.0429467712433
334,1436291774983,59.6522359284846
335,1436291775702,44.6575682822103
336,1436291776414,45.6291110164363
337,1436291777143,41.4949960767558
338,1436291777919,58.0580599349024
339,1436291778561,43.9316316536661
340,1436291779154,61.4870074954237
341,1436291779854,48.381647539654
342,1436291780565,44.2461650998858
343,1436291781280,53.6929333185242
344,1436291781995,46.2191015546928
345,1436291783850,49.0832578418723
346,1436291784487,49.7399545263953
347,1436291785216,51.5606579584636
348,1436291785945,52.5147991092593
349,1436291786657,59.8650402085159
350,1436291787380,45.3599588783337
351,1436291788107,50.1103348828048
352,1436291788823,54.2342629102648
353,1436291789471,50.6954557728419
354,1436291790199,58.1799766374526
355,1436291790941,67.7679406330209
356,1436291791667,57.9945892061573
357,1436291792379,47.3345381094226
358,1436291794027,54.4773549516091
359,1436291794758,53.8758055671581
360,1436291795468,67.6610702840095
361,1436291796184,51.7122577750432
362,1436291796920,59.1818937015542
363,1436291797626,59.7846289547531
364,1436291798352,51.7165777178877
365,1436291799172,59.6428398090415
366,1436291799829,55.7474398778253
367,1436291800494,53.0445359564756
368,1436291801215,60.8868246983339
369,1436291801940,56.9768986325889
370,1436291802694,58.2048644615433
371,1436291803362,59.5268934753352
372,1436291804088,52.5781508226654
373,1436291804748,59.6019741940993
374,1436291805452,59.2892171647967
375,1436291806181,59.8609862240334
376,1436291806905,68.2906267108919
377,1436291807673,61.1037156905542
378,1436291809149,47.0915416458946
379,1436291809894,60.8427098149231
380,1436291810613,57.3904141875174
381,1436291811321,46.8019720497357
382,1436291812007,41.0474927010026
383,1436291812744,45.3144873701717
384,1436291813477,49.3335263318863
385,1436291814202,50.9998307320769
386,1436291814840,70.2262180631179
387,1436291815555,62.5440205138534
388,1436291816249,70.142989586025
389,1436291817640,49.7814396880389
390,1436291818361,62.8356486900074
391,1436291819088,61.7925417496695
392,1436291819762,43.772046989472
393,1436291820496,57.7824136835616
394,1436291821216,63.1390156238788
395,1436291821942,46.4763968297324
396,1436291822641,57.940335531502
397,1436291823317,58.9059771358615
398,1436291824080,47.1877485825704
399,1436291824822,46.0886133021519
400,1436291825550,62.6543423477875
401,1436291826249,51.7100337321668
402,1436291826968,43.2405020492205
403,1436291827656,55.9599035770498
404,1436291828395,59.084142685084
405,1436291829229,40.5429776284757
406,1436291829906,66.8084157081751
407,1436291830571,57.6767159129588
408,1436291831279,53.7253764235416
409,1436291831990,70.1230903348401
410,1436291832727,62.8422962935854
411,1436291833506,46.2067749444072
412,1436291834153,51.1396406225754
413,1436291834718,36.7659208710179
414,1436291835292,57.0873598918453
415,1436291835844,39.632591302819
416,1436291836448,43.87870309846
417,1436291837188,66.583086226654
418,1436291837919,55.6465464382312
419,1436291838671,43.9176912127012
420,1436291839231,65.6275974020067
421,1436291839838,62.2745296406404
422,1436291840419,60.707028399823
423,1436291840990,47.879388815321
424,1436291842339,48.2536975000733
425,1436291843038,48.1194943034616
426,1436291843774,50.5322300029148
427,1436291844536,50.2434977345469
428,1436291845263,53.1369031657797
429,1436291845815,48.0219233361162
430,1436291846365,48.619214075815
431,1436291846923,36.2382645793686
432,1436291847543,63.6493995921662
433,1436291848272,54.4320039475644
434,1436291849007,58.3005345344706
435,1436291849858,46.0319284559718
436,1436291850427,42.7251258551901
437,1436291850999,56.8279298370834
438,1436291851573,42.3394551885816
439,1436291852548,48.14736300416
440,1436291853284,51.9978615719013
441,1436291854007,66.7042808869097
442,1436291854768,64.2468441772716
443,1436291855463,36.6265947026504
444,1436291856012,50.23368276582
445,1436291856562,45.8425806675174
446,1436291857129,70.5218866472522
447,1436291857806,38.5774292780935
448,1436291858513,60.1155712969483
449,1436291859222,45.8351210617559
450,1436291859847,51.4224196610363
451,1436291860493,53.3581176176775
452,1436291861129,36.6159514304504
453,1436291861675,38.5016945469214
454,1436291862239,52.3412437255116
455,1436291862793,51.5795234218893
456,1436291864336,47.8965659049271
457,1436291865023,38.3827326416945
458,1436291865705,49.1611988750587
459,1436291866441,48.4252081683593
460,1436291867197,66.7328848959519
461,1436291867920,54.1049993524954
462,1436291868652,66.6317724152451
463,1436291869388,65.2074897696347
464,1436291870095,51.1511584987376
465,1436291870816,56.5870373574955
466,1436291871536,51.972403643965
467,1436291872271,48.9710249215585
468,1436291872974,67.5482106721486
469,1436291873698,70.0685909146105
470,1436291874422,49.4435134513179
471,1436291875125,47.0858763093872
472,1436291875813,69.5011501143444
473,1436291876543,66.3601609578973
474,1436291877288,45.0109453402711
475,1436291878023,45.4374393904019
476,1436291878746,70.0702249023925
477,1436291879387,48.3031505120187
478,1436291880034,51.4457806634979
479,1436291880722,42.8425025192901
480,1436291881444,44.6806663800766
481,1436291882163,73.162047075961
482,1436291882915,67.03991902823
483,1436291883645,51.9148317959824
484,1436291884362,49.9373462952528
485,1436291885070,54.032777225436
486,1436291885804,58.4862337797027
487,1436291886479,66.7192913340062
488,1436291887142,66.9330367819531
489,1436291887875,59.3851145734657
490,1436291888595,42.3733146609266
491,1436291889360,67.5761740208983
492,1436291890032,67.8548982823558
493,1436291890771,44.5181753628032
494,1436291891484,56.6773431471202
495,1436291892214,46.7604129899314
496,1436291892934,41.1610445871175
497,1436291893645,72.1030603029828
498,1436291894425,67.553151923223
499,1436291895185,72.5160922549433
500,1436291895895,63.2258365354762
501,1436291896590,55.9090236259235
502,1436291897259,39.1405687124551
503,1436291897977,71.6828456194196
504,1436291898743,66.6292871638237
505,1436291899471,40.6566858593191
506,1436291900102,54.0302443383632
507,1436291900793,67.1084327601382
508,1436291901523,64.774388253178
509,1436291902231,54.5130924349637
510,1436291902954,51.1012183979191
511,1436291903668,49.4859314408329
512,1436291904416,46.7388171724969
513,1436291905101,43.0594941817668
514,1436291905717,71.2980801285759
515,1436291906329,56.827355072549
516,1436291907000,64.3111724496943
517,1436291907733,53.6583559288145
518,1436291908445,37.5937290272187
519,1436291909178,45.4171381479568
520,1436291909913,45.8623718902089
521,1436291910611,50.9088723118636
522,1436291911275,53.1693194119079
523,1436291911995,46.3143419701164
524,1436291912756,46.4115123814927
525,1436291913488,52.7278962335631
526,1436291914208,50.3577602621345
527,1436291914932,40.7027776538429
528,1436291915661,67.5877693017388
529,1436291916389,70.5332296355091
530,1436291917049,48.9394154280492
531,1436291917697,55.7460487478456
532,1436291918419,47.0097273013588
533,1436291919161,54.5423838591974
534,1436291919957,66.2452047748572
535,1436291920690,67.4669212208563
536,1436291921425,57.8114335527798
537,1436291922133,48.7518424237836
538,1436291922904,37.0448495667261
539,1436291923713,53.4786415139032
540,1436291924299,55.0659555701137
541,1436291924935,49.2821869845606
542,1436291925614,46.1611138111188
543,1436291926274,71.3545845164153
544,1436291926972,56.1937675419471
545,1436291927786,67.6813953844411
546,1436291928507,72.7543947465013
547,1436291929228,64.3042824658092
548,1436291929931,57.6170462764581
549,1436291930639,62.7473028064689
550,1436291931471,72.012574059805
551,1436291932127,54.9528015705897
552,1436291932755,74.0177001361545
553,1436291933437,72.1207795386506
554,1436291934184,66.7856249046914
555,1436291934925,68.2229685808922
556,1436291935641,54.8784824067281
557,1436291936347,65.1970524589622
558,1436291937045,53.4108729510414
559,1436291937817,63.6206904726755
560,1436291938536,66.1494904645931
561,1436291939247,56.2201051602646
562,1436291939987,64.4568300909092
563,1436291940719,71.2323408827993
564,1436291941431,67.7435380183395
565,1436291942147,67.994669095488
566,1436291942912,44.6562622371943
567,1436291943605,62.7228221569627
568,1436291944323,71.2187274152374
569,1436291945035,63.8254460135929
570,1436291945801,65.4378442859785
571,1436291946522,59.5635983089476
572,1436291947265,42.5413973264341
573,1436291947977,64.3622163242312
574,1436291948704,55.4553705080582
575,1436291949451,37.9728508930426
