id,attr_time,attr_db
1,1436291535420,58.3180115750224
2,1436291536114,47.0842112362801
3,1436291536835,45.9435541711213
4,1436291537576,67.7965371074494
5,1436291538311,46.8928051022084
6,1436291538964,54.3934576442603
7,1436291539698,48.5647928515998
8,1436291540423,47.520234719752
9,1436291541162,44.3966359339021
10,1436291541900,47.0207493583576
11,1436291542622,57.8833171333666
12,1436291543343,61.1879413135824
13,1436291544045,58.8752216287279
14,1436291544778,63.1631358147122
15,1436291545462,63.6807495224075
16,1436291546068,71.7682238843218
17,1436291546761,64.7342152970352
18,1436291547474,56.5819914483152
19,1436291548207,70.4446214494016
20,1436291548953,60.8311753334906
21,1436291549713,65.8805315809014
22,1436291550343,72.5855100228668
23,1436291551083,57.485568213254
24,1436291551788,54.5134024622574
25,1436291552497,70.5684116674457
26,1436291553215,64.8434416385261
27,1436291553957,55.0179923707337
28,1436291554691,67.1177163340513
29,1436291555434,65.0892532731865
30,1436291556165,61.9396729877719
31,1436291556889,67.7060135491797
32,1436291557568,68.4562015084591
33,1436291558298,56.2737026145343
34,1436291559038,65.5351291860824
35,1436291559744,57.0520188875454
36,1436291560437,60.6297655294186
37,1436291561040,62.6136105068992
38,1436291561723,60.1969609372984
39,1436291562445,59.9016134462747
40,1436291563171,66.1379597823698
41,1436291563907,58.1307767775133
42,1436291564628,62.9426267095117
43,1436291565341,57.3175169242359
44,1436291566087,65.1047428481186
45,1436291566796,61.3374897765239
46,1436291567457,47.6513716562865
47,1436291568184,64.6371073508146
48,1436291568936,64.2970548952693
49,1436291569700,47.8896027459384
50,1436291570420,65.2465622104342
51,1436291571133,63.4484239318483
52,1436291571905,49.219401994552
53,1436291572578,60.6707579051324
54,1436291573246,60.4805417741798
55,1436291573969,63.3707249136523
56,1436291574693,61.4481693738228
57,1436291575396,60.4540754837747
58,1436291576127,65.0527427913483
59,1436291576830,58.9360589803022
60,1436291577473,47.5359751537314
61,1436291578194,62.2909023572466
62,1436291578946,67.0922045973293
63,1436291579729,51.0194888765524
64,1436291580469,65.3426897081192
65,1436291581153,65.4086580794556
66,1436291581889,46.0698413418167
67,1436291582623,62.9794377651966
68,1436291583350,67.0113619242196
69,1436291584071,50.6038522192447
70,1436291584774,59.1618271005996
71,1436291585506,56.2559851527598
72,1436291586207,61.3781439385629
73,1436291586849,64.4532571816966
74,1436291587525,49.3724334522523
75,1436291588246,55.2178336061913
76,1436291588979,51.0338556899733
77,1436291589738,63.3174392738644
78,1436291590448,57.1339043959414
79,1436291591083,52.5946514181943
80,1436291591803,66.6336404766875
81,1436291592556,67.6276587867957
82,1436291593208,50.5279791526873
83,1436291593930,66.1032827355106
84,1436291594673,62.0815859087401
85,1436291595413,65.2036821980321
86,1436291596126,59.7392191554607
87,1436291596855,57.9225093834266
88,1436291597553,67.5503849241212
89,1436291598222,65.4075791314484
90,1436291598937,47.4951345224119
91,1436291599725,60.2522098411018
92,1436291600456,59.1990245721126
93,1436291601176,64.7273633445717
94,1436291601889,49.5723715326275
95,1436291602630,51.2123844851195
96,1436291603263,63.6405663560548
97,1436291603943,60.1904537010402
98,1436291604706,65.8159974343362
99,1436291605463,61.7939583647086
100,1436291606202,63.0075657222854
101,1436291606921,60.5885712916019
102,1436291607636,64.2739644135245
103,1436291608295,63.0443424128463
104,1436291608986,64.7464422662188
105,1436291609764,66.7449681950319
106,1436291610485,63.1809393234016
107,1436291611240,65.4036657603913
108,1436291611930,67.0322151399599
109,1436291612667,66.8449017685464
110,1436291613419,63.353463064539
111,1436291614135,60.3645857748828
112,1436291614857,65.1844582229506
113,1436291615596,61.4281402692271
114,1436291616323,58.5940132800267
115,1436291617053,61.5633340389481
116,1436291617792,58.5708906776903
117,1436291618437,57.8266219703704
118,1436291619133,70.2216057112438
119,1436291619899,67.9897847427057
120,1436291620626,47.3162608061326
121,1436291621344,67.8723389949729
122,1436291622076,67.053621688306
123,1436291622763,57.9690846696201
124,1436291623444,53.6364746818871
125,1436291624180,62.437664905648
126,1436291624925,56.3620937026858
127,1436291625668,58.0730851384916
128,1436291626406,63.7596718939076
129,1436291627140,60.5118437044266
130,1436291627834,56.6300427811973
131,1436291628488,57.0015351274495
132,1436291629267,71.8117596054129
133,1436291629989,67.1139862506835
134,1436291630713,60.3454890132336
135,1436291631466,63.3609036055779
136,1436291632165,66.0423147698609
137,1436291632895,49.4084965151898
138,1436291633567,60.3147319106588
139,1436291634272,60.1243888626776
140,1436291634998,63.6535741095693
141,1436291635772,61.0204059136871
142,1436291636530,61.8435334729433
143,1436291637220,66.044383328961
144,1436291637936,65.0856326476849
145,1436291638593,55.096538905841
146,1436291639334,59.1870220125902
147,1436291640058,62.6512807664106
148,1436291640810,61.6394401034808
149,1436291641540,64.0519295390323
150,1436291642277,70.1133652129391
151,1436291642996,58.6911503077916
152,1436291643717,60.8501371972532
153,1436291644471,51.985645673171
154,1436291645189,67.1434011086847
155,1436291645911,61.1564777734873
156,1436291646635,54.4459996673547
157,1436291647390,65.5459804510355
158,1436291648157,63.8452208655052
159,1436291648836,59.3477532792314
160,1436291649490,72.5467094272242
161,1436291650227,65.7242723481963
162,1436291650959,53.6192592960038
163,1436291651674,71.2595818839088
164,1436291652310,70.4067677828567
165,1436291654599,66.8196708757751
166,1436291655355,43.6911685770813
167,1436291656095,65.0238271882104
168,1436291656836,66.1158180045229
169,1436291657578,43.2036543425957
170,1436291658293,66.1538021829405
171,1436291658911,58.1703852790359
172,1436291660910,46.0719633833554
173,1436291661629,66.9361179885761
174,1436291662356,65.9596339563872
175,1436291663079,46.7167221203712
176,1436291663806,65.2628034921375
177,1436291664471,66.3251074547021
178,1436291665060,69.1217123195763
179,1436291665714,62.310668632585
180,1436291667742,61.8999186757613
181,1436291668451,67.8320641842836
182,1436291669134,64.1913822739883
183,1436291669806,49.6795321406724
184,1436291670513,70.5010931218064
185,1436291672335,69.6936302033132
186,1436291672992,44.7358435785057
187,1436291673705,64.9963678741787
188,1436291674408,66.3572801035816
189,1436291675136,56.5326016491174
190,1436291675860,64.9369125881087
191,1436291676581,66.207249932862
192,1436291677317,64.4647591778317
193,1436291678038,63.1932540058498
194,1436291678770,60.7873223355647
195,1436291679480,65.8269112725368
196,1436291680144,58.9644617728518
197,1436291680860,52.9823779286553
198,1436291681594,71.14132242227
199,1436291682313,68.0134015604213
200,1436291683127,64.1019400203194
201,1436291683869,69.8231715345712
202,1436291684632,63.7513107771786
203,1436291685357,58.0812872353543
204,1436291686098,72.0544356794885
205,1436291686822,68.2583989216207
206,1436291687539,58.3288183016209
207,1436291688287,69.7121840075124
208,1436291689007,64.1148471587027
209,1436291689684,47.8495407044396
210,1436291690342,65.3732318466766
211,1436291691028,57.8430355620598
212,1436291691753,67.3956392236878
213,1436291692467,54.2977096524481
214,1436291693159,60.9186996390335
215,1436291693789,69.2318503617325
216,1436291694459,69.9330128610007
217,1436291695183,49.6263024817417
218,1436291695923,65.4159155574476
219,1436291696599,69.8208019376723
220,1436291697337,64.9806789061696
221,1436291698062,60.067377740089
222,1436291698783,61.9382501776409
223,1436291699493,71.396224807144
224,1436291700168,64.8900319424607
225,1436291700885,46.2688662762149
226,1436291701643,64.2974395897225
227,1436291702393,68.4460300782263
228,1436291703098,47.8476717347308
229,1436291703818,61.9012626603155
230,1436291704541,56.1321227187038
231,1436291705216,64.9936314243578
232,1436291705929,63.8215881594636
233,1436291706651,60.041301076123
234,1436291707392,65.2869975759336
235,1436291708123,69.2612032992966
236,1436291708851,63.035489248461
237,1436291709587,69.2630444242161
238,1436291710309,58.7733686365455
239,1436291711037,68.3120788729918
240,1436291711753,60.1153112251546
241,1436291712484,63.9132681038921
242,1436291713191,68.8919533543577
243,1436291713902,59.6854948690367
244,1436291714545,59.002672071555
245,1436291715298,61.1296722738795
246,1436291716027,65.3503115736163
247,1436291716759,58.7442453890551
248,1436291717494,68.7462049374325
249,1436291718216,67.8830355407401
250,1436291718957,44.629770072151
251,1436291719671,65.6502154310837
252,1436291720319,60.4045647037622
253,1436291721034,66.1697764865761
254,1436291721763,62.7580910762976
255,1436291722453,60.068721980502
256,1436291723127,68.8252729262199
257,1436291723841,67.0534017851376
258,1436291724555,45.3193245017668
259,1436291725316,64.0354744244559
260,1436291726037,67.8495757912705
261,1436291726736,58.0356535886185
262,1436291727482,62.1394065793088
263,1436291728229,61.1932477027339
264,1436291728965,62.4589022334385
265,1436291729691,60.5100049514243
266,1436291730345,61.2293429398725
267,1436291731035,69.1934590670445
268,1436291731762,63.6619580109794
269,1436291732524,47.6431048014589
270,1436291733248,66.1675025053742
271,1436291733980,68.2119765774087
272,1436291734711,58.7062025693038
273,1436291735453,67.7418603105582
274,1436291736167,68.039619748447
275,1436291736885,46.3815091649283
276,1436291737618,70.902792920383
277,1436291738354,69.8745254994558
278,1436291739106,50.1922753913891
279,1436291739897,66.8345057548754
280,1436291740634,68.7116303959181
281,1436291741310,49.0506225542118
282,1436291742039,65.8364716962922
283,1436291742756,63.9572428876965
284,1436291743495,61.0662952411928
285,1436291744264,68.3453609013372
286,1436291745076,65.5611185582179
287,1436291745843,68.1289520842258
288,1436291746596,69.1568366332824
289,1436291747328,65.6153485510949
290,1436291748057,49.309331027897
291,1436291748789,64.333285312485
292,1436291749527,64.4023612969876
293,1436291750260,52.5104060663738
294,1436291750969,67.3203286646357
295,1436291751589,67.2038057682663
296,1436291752253,69.8952950388733
297,1436291752955,62.7611205456726
298,1436291753630,48.8436734798267
299,1436291754451,72.7143596868206
300,1436291755170,64.5128013751096
301,1436291755899,63.2274527610362
302,1436291756618,65.9308164194002
303,1436291757292,64.328026662367
304,1436291758052,60.0751982138363
305,1436291758746,69.623166849677
306,1436291759537,62.2812998035167
307,1436291760253,67.7626095796575
308,1436291760982,56.8023002426337
309,1436291761721,65.19062156359
310,1436291762451,69.2213789698421
311,1436291763178,44.8703012405453
312,1436291763916,67.2230225925541
313,1436291764631,68.0508715401244
314,1436291765388,46.4703727056165
315,1436291766119,67.939554846994
316,1436291766844,69.2383605742268
317,1436291767563,50.7513218095735
318,1436291768307,70.6196604243983
319,1436291769026,63.8075095096954
320,1436291769750,53.6874093193926
321,1436291770459,70.0721832589812
322,1436291771195,64.4876694368376
323,1436291771913,47.4164027095925
324,1436291772607,68.9379264168247
325,1436291773337,64.5691536460508
326,1436291774067,45.8271821512188
327,1436291774813,67.3666285973905
328,1436291775505,64.52145957277
329,1436291776241,49.8748095518857
330,1436291776900,63.350325707667
331,1436291777556,58.9705086435982
332,1436291778267,67.8489569153589
333,1436291778969,65.3671406116467
334,1436291779690,51.4873684900174
335,1436291780422,68.3668133648736
336,1436291781159,65.644673373718
337,1436291781899,53.603565423422
338,1436291782582,66.5306560341946
339,1436291783290,65.704736793196
340,1436291784042,61.9544302198106
341,1436291784759,68.474889580771
342,1436291785504,69.2423580575806
343,1436291786243,58.690358567761
344,1436291786982,70.7366510250186
345,1436291787761,59.3105442256476
346,1436291788466,53.1603350611262
347,1436291789198,71.024749764583
348,1436291789933,61.2492086542263
349,1436291790677,60.393428916753
350,1436291791412,67.9366268669966
351,1436291792065,60.6065044203862
352,1436291792805,57.083673912531
353,1436291793547,64.730492687713
354,1436291794283,62.7233450323518
355,1436291794991,58.6713382064718
356,1436291795619,70.7220444473674
357,1436291796303,66.5237615421882
358,1436291797047,59.2475833631037
359,1436291797787,65.9717186045292
360,1436291798517,66.6820312605962
361,1436291799239,57.779074927116
362,1436291799999,71.1019691350893
363,1436291800725,67.1519681011639
364,1436291801450,59.5285685073957
365,1436291802151,73.2458825535743
366,1436291802814,65.4765894828031
367,1436291803573,56.1601362974402
368,1436291804295,66.4941128658268
369,1436291805052,67.913938396962
370,1436291805772,55.2941122834191
371,1436291806430,70.2735952541927
372,1436291807122,64.7021198692295
373,1436291807867,55.7811959961266
374,1436291808556,63.5791751594296
375,1436291809233,52.1145368343133
376,1436291809958,63.878258204024
377,1436291810692,62.8628719441588
378,1436291811424,47.8150166884783
379,1436291812153,64.6292394249143
380,1436291812851,55.7440574936835
381,1436291813495,53.5824416699708
382,1436291814225,68.1430683566493
383,1436291814914,63.5265401356968
384,1436291815569,59.7664953514626
385,1436291816257,62.1296859175302
386,1436291817014,59.798408872176
387,1436291817804,56.8071162366106
388,1436291818510,63.2226191277947
389,1436291819209,53.038087468183
390,1436291819939,65.8304787732819
391,1436291820663,61.3287041758539
392,1436291821379,48.2132326085338
393,1436291822115,61.2211593655931
394,1436291822799,55.999053902792
395,1436291823529,57.5298407047873
396,1436291824251,61.4369396168048
397,1436291824987,51.141555422877
398,1436291825758,55.8409185187356
399,1436291826501,67.7560760204319
400,1436291827226,63.2139992773851
401,1436291827961,52.0753042753643
402,1436291828699,60.1077130533226
403,1436291829457,56.1294175637281
404,1436291830225,52.6908644293752
405,1436291830950,61.6135093523326
406,1436291831671,58.566993070632
407,1436291832419,60.6010558362208
408,1436291833115,64.0162516756427
409,1436291833865,61.1352086205731
410,1436291834534,54.2211084770752
411,1436291835218,66.7745840473098
412,1436291835824,62.2931604545959
413,1436291836595,44.7405333649323
414,1436291837324,56.2439757288759
415,1436291838048,64.9786892314793
416,1436291838915,55.6562072943095
417,1436291839557,65.0478273158189
418,1436291840259,69.5012675781578
419,1436291840986,53.3638569641158
420,1436291841724,61.498316998976
421,1436291842482,66.8206850085452
422,1436291843200,65.3385291482829
423,1436291843904,62.0250132160452
424,1436291844656,56.7018331849736
425,1436291845432,66.1308191972899
426,1436291846218,67.7013508653084
427,1436291846959,59.2581251001404
428,1436291847733,48.8783608628792
429,1436291848425,62.2347814522527
430,1436291849150,60.5274058721526
431,1436291849950,60.3817740119158
432,1436291850670,61.1661884080383
433,1436291851393,60.9243910865531
434,1436291852128,69.6376788683269
435,1436291852847,64.7290794849386
436,1436291853556,61.9315989739152
437,1436291854219,60.0351735190726
438,1436291855020,62.3219980251288
439,1436291855741,63.4157714946639
440,1436291856401,66.7484871690385
441,1436291857107,58.6234492823975
442,1436291858667,66.7674501153249
443,1436291859396,54.8550053779791
444,1436291860159,63.3009265294555
445,1436291860886,61.8465563181896
446,1436291861621,56.3454672712657
447,1436291862347,63.9070994057121
448,1436291863081,63.3626101998069
449,1436291863818,58.4217545211127
450,1436291864506,67.16955220893
451,1436291865195,67.9488569725691
452,1436291865888,61.394022220217
453,1436291866672,64.4806369915347
454,1436291867352,68.6001423690656
455,1436291868879,56.1471111237368
456,1436291869596,69.6067619681615
457,1436291870331,52.5963696268293
458,1436291871069,59.7469846239655
459,1436291871780,67.0981255208732
460,1436291872534,70.526206891316
461,1436291873261,61.8202171673785
462,1436291874003,65.2066010165805
463,1436291874743,60.8145372669914
464,1436291875433,61.6576170593765
465,1436291876184,54.5111385992157
466,1436291876844,68.5971388079922
467,1436291877627,63.6771666128449
468,1436291878334,64.6681545383838
469,1436291879032,70.3694755451974
470,1436291879716,64.5438665403823
471,1436291880303,61.2029856283395
472,1436291880984,53.2652164409732
473,1436291881719,58.3084588908141
474,1436291883674,58.2922187469268
475,1436291884402,62.2516455149726
476,1436291885109,64.4990157318501
477,1436291885776,62.4205426289965
478,1436291886474,54.5231826464044
479,1436291887196,50.6456183542085
480,1436291887958,72.8834828231957
481,1436291888681,52.8755226961291
482,1436291889289,43.8884889816834
483,1436291890005,65.7685454000924
484,1436291890830,65.4354091813238
485,1436291892620,44.8652416409733
486,1436291893308,60.5644976970357
487,1436291894064,68.8323930866412
488,1436291894782,62.2003709613855
489,1436291895408,62.7554603664247
490,1436291896088,53.4964638609995
491,1436291896787,70.3570105003912
492,1436291897505,68.5606239321837
493,1436291898234,57.8573057435071
494,1436291898966,69.4213461344389
495,1436291899725,64.1277572217586
496,1436291900417,58.0508265778402
497,1436291901072,67.2365523583179
498,1436291901786,63.6560692707985
499,1436291902524,52.6967858783529
500,1436291903255,62.2665724145867
501,1436291903988,71.3563906813844
502,1436291904717,61.9096948138837
503,1436291905501,64.2430817841153
504,1436291906186,64.2575802336501
505,1436291906840,58.1743314789512
506,1436291907596,64.648883789261
507,1436291908335,57.879423014971
508,1436291909053,60.3129369683136
509,1436291909792,64.7075461322864
510,1436291910497,58.0956209583441
511,1436291911225,61.0317437723586
512,1436291911957,58.27504271675
513,1436291912745,57.9824557709007
514,1436291913453,62.411845205221
515,1436291914188,60.2575146747131
516,1436291914979,61.9130769926583
517,1436291915674,67.0959545532927
518,1436291916336,61.5752662782249
519,1436291917080,58.567547104192
520,1436291917807,65.3626275402763
521,1436291918598,58.8941626622362
522,1436291919333,56.8828616226444
523,1436291920125,66.3913080671592
524,1436291920834,66.0179552280689
525,1436291921554,40.7163682065867
526,1436291922307,67.831291197204
527,1436291923005,58.6329867233488
528,1436291923687,47.1051079293704
529,1436291924424,65.4155341671632
530,1436291925133,67.808595133802
531,1436291925861,65.6209638052281
532,1436291926534,66.3761885164354
533,1436291927253,63.7556687415657
534,1436291927994,67.2292259446248
535,1436291928707,63.0447434700796
536,1436291929516,59.6511591157824
537,1436291930232,61.7482400023646
538,1436291930976,70.4553149538928
539,1436291931721,67.9635710099242
540,1436291932399,66.8754102522776
541,1436291933130,67.3602589407874
542,1436291933866,60.1238291100907
543,1436291934612,66.0920435255176
544,1436291935342,61.3546158789917
545,1436291936002,62.4205354240457
546,1436291936634,67.359476032432
547,1436291937354,69.7263895191166
548,1436291938090,61.4191270220085
549,1436291938826,67.0826343708733
550,1436291939581,70.7168361626507
551,1436291940257,54.395752373138
552,1436291940974,60.0561720185841
553,1436291941742,69.4571409752356
554,1436291942465,55.5158675065266
555,1436291943198,68.4091165178012
556,1436291943914,64.0470239606651
557,1436291944663,62.2128767717761
558,1436291945395,66.6151524060548
559,1436291946119,64.8560878522533
560,1436291946799,63.486519844071
561,1436291947494,67.9656260616689
562,1436291948206,55.6766458869405
563,1436291948888,70.2318640310862
564,1436291949620,66.4697077115594
565,1436291950319,48.3680155255932
566,1436291950998,65.4151987398143
567,1436291951724,64.2781280984753
568,1436291952374,62.4264851618642
569,1436291953057,64.1147730642819
570,1436291953798,59.5338656336532
571,1436291954559,59.8235800429277
572,1436291955284,64.6572000662469
573,1436291956010,53.0739072399429
574,1436291956629,67.8554117988732
575,1436291957305,70.4335779132485
