id,attr_time,attr_db
1,1436291535477,55.5975902251037
2,1436291536163,47.6190437596358
3,1436291536845,59.6072596285145
4,1436291537578,67.9405952379593
5,1436291538294,52.1302535786537
6,1436291538999,58.6746800044714
7,1436291539601,43.4805459093389
8,1436291540303,60.1231235856486
9,1436291540984,44.4027826543291
10,1436291541667,44.2818996232905
11,1436291542355,45.9865462602815
12,1436291543022,47.0563799412604
13,1436291543726,52.7913386569029
14,1436291544425,64.4627258584456
15,1436291545170,59.1181991736198
16,1436291545907,56.7168711988907
17,1436291546718,54.805354715244
18,1436291547440,54.9051714933978
19,1436291548181,54.4495474580854
20,1436291548942,53.037189094839
21,1436291549688,55.701772565666
22,1436291550391,50.9572955354288
23,1436291551026,51.7257596386318
24,1436291551695,49.6538542911134
25,1436291552355,48.4637008813567
26,1436291553032,48.1310579965542
27,1436291553838,49.6956607475914
28,1436291554495,52.6167711535258
29,1436291555212,50.096032706583
30,1436291555976,48.3516275251245
31,1436291556638,49.8203699358599
32,1436291557368,49.7957398603076
33,1436291558097,47.6945050764558
34,1436291558861,49.597923527117
35,1436291559570,48.8779515415645
36,1436291560302,48.9118133593142
37,1436291561026,50.3445060597306
38,1436291561840,50.3559354943983
39,1436291562582,48.6289513764131
40,1436291563219,48.3058833985294
41,1436291564032,46.5387975154246
42,1436291564815,48.2265308183022
43,1436291565515,47.3935699024178
44,1436291566180,47.3821173447551
45,1436291566980,46.9393084193665
46,1436291567711,45.3034276796326
47,1436291568439,44.157815305329
48,1436291569156,46.4638656041668
49,1436291569908,47.4589507552416
50,1436291570630,48.8995383569468
51,1436291571444,47.3709310202146
52,1436291572164,48.3769432592846
53,1436291572895,49.9015713853024
54,1436291573632,49.1479182412045
55,1436291574317,48.5851048408897
56,1436291575046,50.8086000922377
57,1436291575790,63.1577819194019
58,1436291576556,60.7588037186615
59,1436291577317,48.9475002494631
60,1436291578003,47.4360856371452
61,1436291578763,46.8361607644722
62,1436291579542,44.0092244781358
63,1436291580268,45.0506278208696
64,1436291580981,44.0822655428273
65,1436291581690,43.1375555604894
66,1436291582401,42.2932798091899
67,1436291583087,41.7455429979563
68,1436291583769,41.3156359561868
69,1436291584481,42.1843668507199
70,1436291585200,42.7298579721181
71,1436291585927,41.3511141204551
72,1436291586585,43.8928082710236
73,1436291587329,46.5759913099839
74,1436291588060,46.1031714129236
75,1436291588789,45.973278990382
76,1436291589515,47.4854590428156
77,1436291590254,42.9854370823418
78,1436291590996,44.2192814644569
79,1436291591724,45.1679920210823
80,1436291592460,48.2570948303251
81,1436291593182,46.871178339867
82,1436291593882,49.2796666888502
83,1436291594530,54.124495866222
84,1436291595246,48.7327256163825
85,1436291595989,53.0780861778671
86,1436291596730,50.7251852676174
87,1436291597401,50.8261776711774
88,1436291598138,48.1499658881974
89,1436291598877,46.9743104583258
90,1436291599544,42.7047304117252
91,1436291600178,43.4248946274753
92,1436291600928,44.6188055942202
93,1436291601674,46.3162088319688
94,1436291602407,46.894561717093
95,1436291603139,46.9008400738595
96,1436291603821,56.4838316071945
97,1436291604496,57.4756852497773
98,1436291605243,62.2327844009038
99,1436291605986,59.6867709437887
100,1436291606796,63.4315014686781
101,1436291607488,65.1862047568053
102,1436291608118,60.5004532503399
103,1436291608868,62.575480216222
104,1436291609649,60.5103146926469
105,1436291610404,62.1157776023986
106,1436291611144,64.126803496812
107,1436291611862,65.6407734883423
108,1436291612595,59.5949142390848
109,1436291613320,57.8443487038167
110,1436291613974,57.4125499809772
111,1436291614677,56.7970227917082
112,1436291615435,56.4000695341584
113,1436291616177,55.8441780533099
114,1436291616910,50.5679142239923
115,1436291617688,47.9803420149084
116,1436291618439,48.2230287660297
117,1436291619146,47.8283695044411
118,1436291619875,45.5038115999484
119,1436291620614,44.5701712829598
120,1436291621353,46.1338425370856
121,1436291622109,46.0822800536324
122,1436291622850,45.6657739604426
123,1436291623579,43.1796436992424
124,1436291624267,45.9210988848133
125,1436291624949,45.639696987864
126,1436291625727,46.423824364014
127,1436291626534,47.8243391268093
128,1436291627259,45.7226434565447
129,1436291627990,46.8491907867455
130,1436291628721,52.1763311794832
131,1436291629480,55.085469337742
132,1436291630211,57.1453502130611
133,1436291630947,53.1287361774267
134,1436291631687,47.4616054830284
135,1436291632453,46.5168842728935
136,1436291633170,46.8824988468699
137,1436291633916,46.4818787916983
138,1436291634592,47.4122628164663
139,1436291635231,48.7951591648545
140,1436291635904,47.5470817397784
141,1436291636679,46.5718584414566
142,1436291637476,46.1761408089701
143,1436291638108,46.5145062691306
144,1436291638810,46.8464764535546
145,1436291639556,52.8553061850292
146,1436291640283,55.0944428084061
147,1436291640910,56.6205299903726
148,1436291641615,58.1162517766843
149,1436291642334,61.5292074645196
150,1436291643066,58.606191907628
151,1436291643813,48.3190446309002
152,1436291644471,47.2264249447106
153,1436291645177,46.6147342806485
154,1436291645913,47.3764011377507
155,1436291646699,47.6048036464906
156,1436291647429,46.8162383790277
157,1436291648130,46.5901758223455
158,1436291648865,44.7231494592672
159,1436291649611,43.6517568867183
160,1436291650345,43.9136218966783
161,1436291651099,42.3742729004791
162,1436291651829,44.066869222117
163,1436291652649,41.2896000071629
164,1436291653398,47.1835739619078
165,1436291654094,42.5989828027233
166,1436291654744,41.6307845396935
167,1436291655417,38.5288030977485
168,1436291656157,41.1889413038186
169,1436291656888,38.9813911001937
170,1436291657694,38.1922907056055
171,1436291658446,39.5651659022827
172,1436291659111,41.42751580816
173,1436291659843,40.4665084907627
174,1436291660538,39.1389607481306
175,1436291661121,41.355386535768
176,1436291661864,41.6839694104719
177,1436291662690,41.6320363227693
178,1436291663430,37.9332592918365
179,1436291664156,37.0728040252808
180,1436291664840,37.8119671991158
181,1436291665475,41.4232658992861
182,1436291666148,41.037183011038
183,1436291666884,39.9586974466212
184,1436291667699,36.6007804090505
185,1436291668375,38.0428168949918
186,1436291669116,37.7187397712857
187,1436291669871,37.8295422679536
188,1436291670628,39.8362465256137
189,1436291671391,38.0255041278714
190,1436291672109,39.1973599291907
191,1436291672837,43.4069685750146
192,1436291673578,41.1933537173495
193,1436291674303,39.2241028777779
194,1436291674980,40.7502772148442
195,1436291675613,40.9502893142784
196,1436291676330,38.4882623130059
197,1436291677149,41.3989902684351
198,1436291677886,46.7749831863409
199,1436291678624,40.5287639563949
200,1436291679319,38.254514773371
201,1436291680042,41.4796177777192
202,1436291680708,38.1606101532964
203,1436291681439,39.8824850193683
204,1436291682171,70.2495378470719
205,1436291682908,74.8009752087742
206,1436291683673,44.1936104121278
207,1436291684405,67.4646671600549
208,1436291685142,51.9298148768017
209,1436291685806,75.7569904601372
210,1436291686526,41.6487652721944
211,1436291687337,45.4700711041831
212,1436291688076,58.3315043081801
213,1436291688818,73.3277610678503
214,1436291689507,55.6954470499809
215,1436291690247,54.5296033596016
216,1436291690983,46.1420016061442
217,1436291691765,44.8510224023865
218,1436291692529,42.5516523129962
219,1436291693256,75.4687575024639
220,1436291693993,76.0999449044293
221,1436291694725,42.8631797320476
222,1436291695439,42.6450287430819
223,1436291696109,48.0298104908555
224,1436291696837,42.4724415085177
225,1436291697567,49.3229222107876
226,1436291698299,40.2548509125377
227,1436291699035,55.4855714517403
228,1436291699779,52.0801226400454
229,1436291700434,40.0502417791959
230,1436291701064,39.028282375765
231,1436291703263,40.8222862834158
232,1436291704003,37.2665414190575
233,1436291704677,47.2320947692627
234,1436291705424,39.7537062665677
235,1436291706097,40.5765481978375
236,1436291706801,73.6632328428873
237,1436291707538,64.6571660047439
238,1436291708309,76.046920673569
239,1436291709026,72.6269781785681
240,1436291709764,73.1114138333541
241,1436291710538,55.6422895918058
242,1436291711196,55.3887883527705
243,1436291711929,42.2765566474049
244,1436291712660,65.60452588995
245,1436291713365,74.6330796324378
246,1436291715241,64.8659835417709
247,1436291715923,56.8868628888769
248,1436291716687,62.8028058603649
249,1436291717436,39.9267110942698
250,1436291718176,71.5544039262303
251,1436291718906,71.1940306078802
252,1436291719640,75.633635262811
253,1436291720342,72.9508606845365
254,1436291720930,73.4104708721863
255,1436291721506,56.8172535686445
256,1436291722170,49.7363593512664
257,1436291722988,42.4500406115297
258,1436291723707,50.1318690240985
259,1436291724436,55.0398926401971
260,1436291725164,49.1102354225603
261,1436291725883,59.5746066101164
262,1436291726603,44.1160904104421
263,1436291727290,55.7913686425167
264,1436291728080,69.477860789952
265,1436291730245,70.5928017701896
266,1436291730965,44.9549791610484
267,1436291731731,44.6154919488894
268,1436291732487,43.8901525346452
269,1436291733204,38.5425582438513
270,1436291733914,74.8617138556517
271,1436291734666,73.0988886231354
272,1436291735446,77.0110267924642
273,1436291736176,79.2000031493707
274,1436291736817,56.9173829233832
275,1436291737557,56.5163930169069
276,1436291739608,54.3896031118621
277,1436291740330,55.7014896424997
278,1436291741044,44.9237778921262
279,1436291741757,74.6275744949643
280,1436291742521,75.9350899587868
281,1436291743246,74.6876616493654
282,1436291743990,55.0357902150865
283,1436291744714,53.9373445970387
284,1436291745474,46.6218093275071
285,1436291746201,44.274970501624
286,1436291746923,44.5536072759228
287,1436291747643,44.1752099489136
288,1436291748392,44.3803203926784
289,1436291749055,47.2177691663674
290,1436291749791,43.9618630479034
291,1436291750527,43.6366275192303
292,1436291751249,44.7289235925827
293,1436291751976,42.3042541612827
294,1436291752781,42.6164529194073
295,1436291753385,44.4597519431346
296,1436291754101,48.0965385093705
297,1436291754823,48.7710429927399
298,1436291755545,56.2618681565549
299,1436291756289,57.4095471868284
300,1436291757013,49.7213679822679
301,1436291757729,47.4978879622248
302,1436291758423,46.41142191961
303,1436291759089,44.9758245544737
304,1436291759837,44.442112653432
305,1436291760611,41.2440794994394
306,1436291761330,40.9746589070524
307,1436291761940,38.6372927545919
308,1436291762636,38.1180466217905
309,1436291763327,36.0000772732743
310,1436291763986,36.9889665269229
311,1436291764729,39.6006425288943
312,1436291765448,38.4452814232314
313,1436291766189,39.1804603110358
314,1436291766930,38.4107238389342
315,1436291767716,35.0372824318514
316,1436291768416,39.002966088371
317,1436291769085,40.3111614201111
318,1436291769815,37.1557762157243
319,1436291770534,39.3771471322965
320,1436291771329,40.2348240930724
321,1436291772048,41.1886837264063
322,1436291772785,43.0960258174546
323,1436291773509,41.5832870194526
324,1436291774245,40.4520619703955
325,1436291774967,40.80762604695
326,1436291775748,40.3914255750308
327,1436291776491,42.7007311429485
328,1436291777236,43.8518761873263
329,1436291777971,51.3983365003776
330,1436291778669,49.5147650235223
331,1436291779323,52.1546092320283
332,1436291780055,44.7825030145738
333,1436291780795,44.7606784278849
334,1436291781473,42.3419689921448
335,1436291782074,43.5196708322035
336,1436291782764,46.5234819626221
337,1436291783476,48.8549856416936
338,1436291784211,51.3775950205392
339,1436291784961,59.0460028554074
340,1436291785695,48.5165122652936
341,1436291786419,44.5242054081233
342,1436291787152,48.9559146010448
343,1436291787883,52.1551879515605
344,1436291788611,53.5399913826714
345,1436291789326,62.6367905885252
346,1436291790069,57.829605625277
347,1436291790800,61.1718893489839
348,1436291791528,56.6323091859527
349,1436291792261,51.0857750014488
350,1436291792994,46.4932369229717
351,1436291793768,54.7242279758955
352,1436291794360,50.6626778043122
353,1436291795060,54.3385065895534
354,1436291795790,54.0810190115991
355,1436291796469,55.095880528186
356,1436291797197,52.5463780010682
357,1436291797916,50.8481254167214
358,1436291798653,50.5884722068414
359,1436291799345,50.6941795426287
360,1436291799996,51.9893627895127
361,1436291800718,51.1601206464666
362,1436291801450,49.9843556890865
363,1436291802156,56.2416144858703
364,1436291802901,58.063415193368
365,1436291803570,56.7871720767882
366,1436291804317,47.3968838322454
367,1436291805058,45.9832497764369
368,1436291805804,47.0505696449085
369,1436291806545,48.4148767128107
370,1436291807263,49.9305334578978
371,1436291808000,49.0092499787219
372,1436291808748,48.8047686060301
373,1436291809421,47.037379473837
374,1436291810055,43.5884545856346
375,1436291810757,43.707138628386
376,1436291811488,44.2894635579636
377,1436291812189,45.8687361179757
378,1436291812929,45.752783418862
379,1436291813656,77.1389099650879
380,1436291814388,71.1478467735903
381,1436291815133,76.3825280421029
382,1436291815865,63.7333087866497
383,1436291816608,55.6073367092326
384,1436291817355,57.2948104877408
385,1436291818096,41.3040544389813
386,1436291818825,66.1706712727873
387,1436291819559,41.6083184226034
388,1436291820240,37.8300256152252
389,1436291820973,40.6828796827002
390,1436291821816,36.5387591114331
391,1436291822435,38.5841785518124
392,1436291823150,41.7783143019077
393,1436291823881,40.3859229349676
394,1436291824609,42.7301931990827
395,1436291825359,41.784878930471
396,1436291826060,41.3327611745467
397,1436291826803,39.473642190609
398,1436291827543,39.4941196549627
399,1436291828288,36.9375215344171
400,1436291829026,37.1917973077283
401,1436291829738,37.9039747605646
402,1436291830455,36.4182891779252
403,1436291831104,36.5526681229844
404,1436291831835,76.162477367518
405,1436291832557,74.7041694126552
406,1436291833260,37.3286882534762
407,1436291833957,38.9627952204471
408,1436291834618,35.1754433169757
409,1436291835367,41.0706899844167
410,1436291836096,36.8408921052605
411,1436291836829,55.6458934007615
412,1436291837539,65.4605961366028
413,1436291838236,74.2381179482748
414,1436291838968,75.3381406527888
415,1436291839689,78.6691990046491
416,1436291840390,73.4041219114348
417,1436291841039,40.9112473232405
418,1436291841729,47.3010572907481
419,1436291842440,50.1985447308176
420,1436291843125,47.192205084708
421,1436291843887,41.2026797708769
422,1436291844621,75.8267333498863
423,1436291845374,42.309854678051
424,1436291846095,57.5379861796221
425,1436291846830,38.8119403634285
426,1436291847536,69.191907135142
427,1436291848287,50.4415096986743
428,1436291849014,55.0247841534013
429,1436291849741,52.071659235121
430,1436291850461,57.3085227000442
431,1436291851108,44.9617603901409
432,1436291851928,69.5888774939152
433,1436291852690,58.2481354029079
434,1436291853467,58.5857589728563
435,1436291854167,43.9577113486973
436,1436291854838,34.7064131546837
437,1436291855570,55.5089186779327
438,1436291856305,60.0551067373276
439,1436291857029,76.601873890048
440,1436291857789,69.3100054875806
441,1436291858524,54.2772657501591
442,1436291859263,51.7249929212766
443,1436291859982,40.6509940300538
444,1436291860665,42.2349634979061
445,1436291861316,39.9516854603861
446,1436291862057,39.8954914627511
447,1436291862780,55.2834378893461
448,1436291863424,51.60840075134
449,1436291864166,41.0160993820788
450,1436291864895,42.4661749519913
451,1436291865650,42.3678664712593
452,1436291866399,58.4118931613883
453,1436291867144,77.108410593451
454,1436291867890,74.2804483988212
455,1436291868709,69.1806133887616
456,1436291869430,78.3129791809611
457,1436291870152,75.2427817634857
458,1436291870824,61.6470754080332
459,1436291871575,49.2093761595685
460,1436291872335,62.3165452936018
461,1436291873125,62.8573862239006
462,1436291873868,74.6756166658975
463,1436291874575,53.3454584199253
464,1436291875254,46.6589992654795
465,1436291876006,75.4589278724023
466,1436291876744,67.2874878558235
467,1436291877528,57.6160615406445
468,1436291878271,71.8343539959716
469,1436291878959,65.7050041005015
470,1436291879700,48.0687163964977
471,1436291880414,41.8831667878907
472,1436291881120,41.2371201901413
473,1436291881792,73.5091029815811
474,1436291882544,69.1947592371847
475,1436291883163,67.1996455504811
476,1436291883826,69.8795028490857
477,1436291884557,68.0990683819128
478,1436291885293,70.4924592289866
479,1436291886027,41.0542917699829
480,1436291886725,74.2787892704784
481,1436291887394,73.4364044682222
482,1436291888211,39.2227902906846
483,1436291888938,74.6867955951056
484,1436291889671,72.4250683901395
485,1436291890401,39.4434403021126
486,1436291891132,39.0123607662902
487,1436291891806,37.8978622280518
488,1436291892460,74.0302059210777
489,1436291893273,73.2425646833978
490,1436291894006,75.8938191463274
491,1436291894764,76.9943139464624
492,1436291895411,59.2171124025545
493,1436291896143,72.7567964627078
494,1436291896864,40.6334808768836
495,1436291897638,74.8502806089713
496,1436291898364,73.1124321244696
497,1436291899103,76.3130275445333
498,1436291899839,36.1252979038602
499,1436291900567,72.9915204404836
500,1436291901251,48.5228188145557
501,1436291901917,35.9989215969357
502,1436291902708,40.6033991042679
503,1436291903430,42.2009690559548
504,1436291904129,53.8345596982804
505,1436291904860,55.5255276839534
506,1436291905552,77.3815362348152
507,1436291907275,56.7351524255696
508,1436291908019,60.7880180407775
509,1436291908751,41.8149870603594
510,1436291909494,51.8439355946466
511,1436291910225,56.3456752981846
512,1436291910958,50.1970987063083
513,1436291911685,47.3669849321827
514,1436291912351,53.2663077875898
515,1436291913059,51.0425843325375
516,1436291913825,41.4804742567843
517,1436291914553,42.798075776237
518,1436291915249,75.9842505767539
519,1436291915992,76.2376694219825
520,1436291916787,74.990557296117
521,1436291917368,37.4785478825258
522,1436291918037,73.4211644398303
523,1436291918701,52.7942929359727
524,1436291919465,34.9766268517078
525,1436291920217,72.9849778169134
526,1436291920958,77.4236724539284
527,1436291921644,34.2461752801947
528,1436291923284,41.7840762645528
529,1436291923981,37.4282249462562
530,1436291924797,41.6685768551108
531,1436291925514,56.286247188311
532,1436291926257,76.3312244620331
533,1436291926979,37.5664433456494
534,1436291927711,68.3720409133909
535,1436291928434,71.7614235718457
536,1436291929184,51.6710180718775
537,1436291929906,70.3547566219559
538,1436291930636,75.3206964003929
539,1436291931367,75.8750000091937
540,1436291932097,41.2861658520996
541,1436291932850,37.5377426799507
542,1436291933586,69.4993018723123
543,1436291934346,71.8051533327099
544,1436291935084,48.4061594457398
545,1436291935813,68.4381464259314
546,1436291936535,60.3614018515726
547,1436291937237,49.5459305326131
548,1436291937927,74.9093035147365
549,1436291938700,73.3617356574424
550,1436291939415,71.7227258722673
551,1436291940139,71.0075635806437
552,1436291940861,73.625533416365
553,1436291941587,73.9139903111232
554,1436291942366,64.5396317962946
555,1436291943172,44.7786378307242
556,1436291943781,64.61292525189
557,1436291944513,76.2209848402045
558,1436291946237,45.2987387049302
559,1436291946983,76.0343826368164
560,1436291947631,74.3367297409519
561,1436291948365,43.4226542425301
562,1436291949093,45.401280951822
563,1436291949818,46.3926882681492
564,1436291950556,67.8134617687066
565,1436291951316,70.0121461513909
566,1436291952045,74.3130589302281
567,1436291952722,71.8214872534687
568,1436291953356,74.8726500604079
569,1436291954070,64.7925144199641
570,1436291954803,75.090421287663
571,1436291955516,41.8552480321683
572,1436291956237,71.4900463312669
573,1436291956959,73.7555556127341
574,1436291957713,70.4207907716052
575,1436291959723,40.7104549478779
