id,attr_time,attr_db
1,1436982010516,18.1568786604172
2,1436982011254,20.4636876853465
3,1436982012033,13.329234269541
4,1436982012758,20.0470210152557
5,1436982013483,17.4486528929886
6,1436982015416,35.9027052107469
7,1436982016133,55.958810719126
8,1436982016882,41.5273909063172
9,1436982017604,45.8819062343959
10,1436982018337,44.458663774476
11,1436982019055,56.7704961640145
12,1436982019685,58.1948995273241
13,1436982020377,56.1534442008649
14,1436982021108,55.906565470363
15,1436982021838,51.9890128080363
16,1436982022537,57.5204509932185
17,1436982023213,66.0731196960438
18,1436982024045,65.64639133228
19,1436982024774,61.193980722283
20,1436982025505,58.8468869532131
21,1436982026244,60.5927763537388
22,1436982026986,57.1710422998257
23,1436982027724,62.5529049471271
24,1436982028462,64.2347764938921
25,1436982029472,66.7296511515488
26,1436982030154,63.5719268307386
27,1436982030875,67.0112369854256
28,1436982031611,65.7263021077808
29,1436982032338,64.1102876968014
30,1436982033078,68.8340040875046
31,1436982033833,65.440067631353
32,1436982034615,64.7585988249977
33,1436982035312,71.7004039689405
34,1436982036055,66.7604206325566
35,1436982036786,70.0963802508052
36,1436982037531,61.3495111560943
37,1436982038250,64.2483764172
38,1436982038938,67.3090719206207
39,1436982039667,63.6329245373123
40,1436982040750,63.6859802435017
41,1436982041394,62.3115493311788
42,1436982042176,63.8092444353354
43,1436982042899,63.7864315691402
44,1436982043597,64.3119782964511
45,1436982044272,54.5178844460954
46,1436982045010,63.3518479466266
47,1436982045761,63.9298092872745
48,1436982046483,58.4844984916334
49,1436982047225,64.3005405453799
50,1436982047970,58.4243829536049
51,1436982048698,59.8010360953087
52,1436982049423,61.4903959300266
53,1436982050094,58.6094825569562
54,1436982050711,61.4053636076532
55,1436982051402,68.5996003820955
56,1436982052135,69.0257529982881
57,1436982052869,67.1151167874699
58,1436982053584,65.0926353393004
59,1436982054374,63.0508012592461
60,1436982055071,66.2574506966224
61,1436982055721,62.18770056482
62,1436982056463,62.9546403885277
63,1436982057194,61.145178722907
64,1436982057928,59.0765089869462
65,1436982058673,61.7657427642166
66,1436982059478,61.1943779102841
67,1436982060185,64.3585522063982
68,1436982060839,61.5837599844571
69,1436982061594,63.1228539315395
70,1436982062336,61.7405363235112
71,1436982063037,63.6696303782814
72,1436982063716,62.3541249362172
73,1436982064467,62.1547760668067
74,1436982065213,64.1454027892004
75,1436982065943,65.833138510735
76,1436982066679,65.7752592188554
77,1436982067399,62.1140056490098
78,1436982068108,61.3345779233402
79,1436982068770,66.6621254517595
80,1436982069464,65.9474003634636
81,1436982070082,64.376330010252
82,1436982070784,57.2625036088207
83,1436982071532,62.570220783636
84,1436982072298,59.0665405544816
85,1436982073032,66.2009436842972
86,1436982073768,61.214139876732
87,1436982074465,58.975621201678
88,1436982075123,64.5632741820093
89,1436982075799,66.0254229423792
90,1436982076553,61.8626749048306
91,1436982077291,60.0729126979704
92,1436982078013,63.0918463310911
93,1436982078740,67.6652629397378
94,1436982079463,67.0353550767055
95,1436982080186,67.4407015492945
96,1436982080874,60.9161060287769
97,1436982081614,63.3982148741738
98,1436982082362,63.3385389781419
99,1436982083103,64.457700519231
100,1436982083833,64.3382573485604
101,1436982084522,64.5703842469908
102,1436982085194,65.4721630134332
103,1436982085922,60.8908154584126
104,1436982086650,63.7233110303284
105,1436982087389,63.5212093889001
106,1436982088130,63.3967051734396
107,1436982088870,63.9805609108131
108,1436982089603,64.3610991532092
109,1436982090334,60.2343099280102
110,1436982091004,61.929045914485
111,1436982091739,60.7830810047802
112,1436982092449,65.5961132279509
113,1436982093219,62.2816944631313
114,1436982093965,65.9733015455495
115,1436982094713,64.8836771900654
116,1436982095484,60.1035364220136
117,1436982096159,63.7687919236212
118,1436982096882,65.3597698185212
119,1436982097613,65.4278728772154
120,1436982098355,66.460072527999
121,1436982099112,63.9019547662622
122,1436982099855,65.0001374150889
123,1436982100578,64.8435856707732
124,1436982101240,65.8439693254906
125,1436982101988,61.8210704624816
126,1436982102714,67.6384443597233
127,1436982103435,67.3325500395395
128,1436982104116,68.6077988367852
129,1436982104743,58.8704943679692
130,1436982105479,62.8702910257893
131,1436982106201,65.9783907493085
132,1436982106946,62.2178639760155
133,1436982107678,62.0343644326536
134,1436982108419,62.7724791147191
135,1436982109141,68.1744007586378
136,1436982109878,66.9922114655193
137,1436982110592,67.0765095222608
138,1436982111219,63.7048018844796
139,1436982111938,62.7286618593561
140,1436982112665,56.7477498382295
141,1436982113383,57.4526835972059
142,1436982114122,57.5960868666127
143,1436982114835,61.6208421538665
144,1436982115468,63.4463008465632
145,1436982116155,60.9090067581688
146,1436982116867,57.2646476422145
147,1436982117604,57.6473683554163
148,1436982118326,59.6344002951163
149,1436982119054,70.0173638311747
150,1436982119773,61.5712715027905
151,1436982120444,58.011022063169
152,1436982121153,47.147235227574
153,1436982121823,62.7839549914436
154,1436982122552,60.7285551554416
155,1436982123310,50.5552592249723
156,1436982124049,51.5873833667193
157,1436982124830,52.5599545925488
158,1436982125620,60.7067686218292
159,1436982126422,63.8883224529965
160,1436982127128,55.9466299242844
161,1436982127867,52.9088283354597
162,1436982128588,55.3053761213523
163,1436982129310,55.5627442060198
164,1436982130047,58.9444571631725
165,1436982130789,60.4923995819554
166,1436982131536,68.5403566520383
167,1436982132282,62.9384345072421
168,1436982132929,66.5840935220545
169,1436982133657,66.6519592407377
170,1436982134391,57.4088167471721
171,1436982135233,62.7661350514139
172,1436982135911,66.6680582896718
173,1436982136533,58.870063176427
174,1436982137262,59.8361933949048
175,1436982137996,62.5223562762099
176,1436982138735,61.1062485573085
177,1436982139474,65.4111035007168
178,1436982140274,60.2055963559275
179,1436982141008,59.0849957673296
180,1436982141755,58.4848587258431
181,1436982142493,60.3113447811859
182,1436982143235,60.3771603065554
183,1436982143961,58.6193984927003
184,1436982144659,65.1079444099758
185,1436982145407,64.5075424073092
186,1436982146162,68.7350036816243
187,1436982146875,66.3470045065372
188,1436982147527,62.6025305302921
189,1436982148103,57.9813431476243
190,1436982148777,61.3173917981013
191,1436982149524,66.1016980804436
192,1436982150264,64.0807499298906
193,1436982150954,66.4880643583784
194,1436982151694,68.2392469441647
195,1436982152416,69.0492180280231
196,1436982153156,65.4809913159127
197,1436982153882,66.9303253160802
198,1436982154678,65.5903506288853
199,1436982155419,65.5059379915347
200,1436982156056,59.7766968778981
201,1436982156746,60.0312581396027
202,1436982157478,63.8076082510869
203,1436982158253,65.5377464523516
204,1436982158974,64.5271377856265
205,1436982159658,59.1118768818989
206,1436982160407,61.4859589161378
207,1436982161134,58.0470980810913
208,1436982161876,62.0776147119736
209,1436982162606,56.9081103473671
210,1436982163333,63.4687417846694
211,1436982164072,60.6385161661195
212,1436982164813,58.5124649273753
213,1436982165551,65.4572126887164
214,1436982166286,59.6240662815246
215,1436982166933,64.7481765804928
216,1436982167671,65.6221491615197
217,1436982168403,66.0917008974475
218,1436982169145,66.7317503891262
219,1436982169869,62.5664699577155
220,1436982170570,63.5441557918904
221,1436982171261,68.4695977217497
222,1436982172008,67.1563763183996
223,1436982172743,66.6370588722261
224,1436982173468,67.6122603581531
225,1436982174207,71.0248615829471
226,1436982174983,65.8548932508886
227,1436982175739,63.9386296339472
228,1436982176415,66.7309430951517
229,1436982177052,66.9971972865736
230,1436982177755,57.3836537712454
231,1436982178488,60.5055477830483
232,1436982179249,57.8087923498376
233,1436982179986,62.5334715944629
234,1436982180718,63.8998647783793
235,1436982181420,60.6278771976709
236,1436982182082,69.6666444798847
237,1436982182811,69.3170755437222
238,1436982183537,68.5179004503913
239,1436982184268,69.2923587118251
240,1436982185063,67.3116859754891
241,1436982185789,66.2461359733672
242,1436982186546,66.4078592906679
243,1436982187272,52.785123111933
244,1436982187950,69.1649988625329
245,1436982188665,66.4626576824845
246,1436982189469,59.9012533600821
247,1436982190241,55.6583248681018
248,1436982190964,53.4447881356351
249,1436982191686,51.1773018057993
250,1436982192385,59.8093760189354
251,1436982193115,61.6948075796161
252,1436982193915,56.7272083936919
253,1436982194651,55.9897192267934
254,1436982195379,53.7452725846757
255,1436982196110,56.9072009668744
256,1436982196708,60.9361734242099
257,1436982197399,68.7988746010532
258,1436982198123,66.2550321880604
259,1436982198858,63.7908547040156
260,1436982199664,57.7810513276971
261,1436982201721,66.0367570351248
262,1436982202450,64.9706529702514
263,1436982203159,66.0362086905704
264,1436982203766,58.024266323494
265,1436982204597,66.5327258605348
266,1436982205366,63.6146775425742
267,1436982206094,64.265356996723
268,1436982206836,68.2842412122698
269,1436982207544,65.1541338591765
270,1436982208238,61.9337264991751
271,1436982208922,60.3400833133598
272,1436982209704,66.3384989540701
273,1436982211385,59.5018371544452
274,1436982212141,54.4811251004365
275,1436982212886,57.8513002997034
276,1436982213625,60.9433409697067
277,1436982214362,64.303200164748
278,1436982215093,59.5950621681467
279,1436982215891,59.5526153546431
280,1436982216655,68.4073567988729
281,1436982217311,56.9561226411853
282,1436982218005,57.6089209037489
283,1436982218652,67.1002647761831
284,1436982219336,68.8671028849898
285,1436982220075,68.3001323331958
286,1436982220818,66.8913891768225
287,1436982221568,63.3582159689425
288,1436982222342,63.965289477696
289,1436982223069,62.0928581981582
290,1436982223788,62.5983871830007
291,1436982224566,64.0622958982649
292,1436982226421,58.3357314606048
293,1436982227158,58.1401588644538
294,1436982227890,56.071196580111
295,1436982228574,56.0608171273181
296,1436982229229,63.6200719421251
297,1436982229956,65.973934450177
298,1436982230689,65.297449962682
299,1436982231428,63.4712894446808
300,1436982232111,65.9447657897614
301,1436982232846,63.4636181392798
302,1436982233569,66.5837532916626
303,1436982235596,65.3835354276426
304,1436982236256,63.7717586142338
305,1436982236953,68.2629760844964
306,1436982237611,64.832539252711
307,1436982238321,57.5818973453838
308,1436982239057,60.0860724846407
309,1436982239870,65.5290696309249
310,1436982240608,64.4899714083924
311,1436982241355,64.7733402005191
312,1436982242052,65.173878243878
313,1436982242716,58.7499093578833
314,1436982243434,62.908899660125
315,1436982244171,64.3036835762033
316,1436982244898,60.7355410466805
317,1436982245638,61.5888661464355
318,1436982246368,64.2856639164876
319,1436982247113,66.1790036383105
320,1436982247868,62.4808666081888
321,1436982248607,59.7430752409533
322,1436982249306,60.7210437178897
323,1436982249976,63.054922100167
324,1436982250731,65.3302643130919
325,1436982251450,66.1730360949815
326,1436982252235,62.5641604354825
327,1436982252959,64.7253234839525
328,1436982253712,62.8911990517074
329,1436982254444,66.1308838016365
330,1436982255187,66.0652663985805
331,1436982255921,61.5519274369996
332,1436982256635,68.6090862572181
333,1436982257258,68.1561764693986
334,1436982257951,68.845115884707
335,1436982258679,64.523133498186
336,1436982259372,58.5726918559854
337,1436982260000,61.8209699225085
338,1436982260709,61.250710448673
339,1436982261381,66.1524545935699
340,1436982262038,62.8510649019192
341,1436982262709,58.5648583323978
342,1436982263412,66.0504302162601
343,1436982264210,65.8903596453667
344,1436982264935,64.8053373406822
345,1436982265686,67.6337100272506
346,1436982266413,66.189343754212
347,1436982267137,65.412581458985
348,1436982267868,66.5990006887304
349,1436982268594,63.7237056230261
350,1436982269330,65.0070331822426
351,1436982269986,62.869386084023
352,1436982270672,55.5664075169541
353,1436982271391,56.646500660622
354,1436982272170,60.5317703685318
355,1436982272901,59.4147737135215
356,1436982273626,56.9789833058699
357,1436982274365,63.970394033136
358,1436982275091,60.1114299244129
359,1436982275831,53.7028782500237
360,1436982276624,64.2682221759622
361,1436982277345,66.532518855075
362,1436982278091,66.8073337293192
363,1436982278818,64.8552121232038
364,1436982279560,64.6546806223537
365,1436982280201,59.0713720866425
366,1436982280936,54.8614897513238
367,1436982281674,58.030703469553
368,1436982282400,57.7690382157875
369,1436982283127,58.6103592979761
370,1436982283873,62.4314920610689
371,1436982284596,63.4205065380678
372,1436982285445,62.2892345683254
373,1436982286171,66.4488949019323
374,1436982286918,66.2897890990316
375,1436982287668,67.5982800876668
376,1436982288415,67.1992669059048
377,1436982289130,65.2321634146493
378,1436982289907,66.8143777750963
379,1436982290695,67.0215251236993
380,1436982291467,63.9372841379303
381,1436982292293,66.6327752443399
382,1436982293031,64.427731145828
383,1436982293742,66.3064299050569
384,1436982294467,64.9989020418911
385,1436982295208,64.239829744303
386,1436982295926,65.4743251793182
387,1436982296657,65.5345126588475
388,1436982297339,66.2696167264348
389,1436982298046,61.9057654659638
390,1436982298784,59.2417656669071
391,1436982299533,62.7524869345082
392,1436982300213,57.1866634894434
393,1436982300856,64.1993694131163
394,1436982301578,65.5625141654644
395,1436982302324,64.631279235608
396,1436982303072,64.8989298858266
397,1436982303812,63.9151290058274
398,1436982304507,62.3760643798072
399,1436982305182,66.4350948238555
400,1436982305925,62.9008528099871
401,1436982306703,64.6556550391385
402,1436982307449,67.2112439615995
403,1436982308193,66.4153850779574
404,1436982308937,63.5535470636681
405,1436982309704,65.931908919531
406,1436982310403,62.9801239424087
407,1436982311028,60.8045951983014
408,1436982311689,56.3697364184401
409,1436982312423,61.5593153381958
410,1436982313168,62.2127117393364
411,1436982313899,56.5269641621101
412,1436982314627,60.9082057221099
413,1436982315376,53.6443909658981
414,1436982316066,63.4034159470146
415,1436982316838,62.7003398135401
416,1436982317600,65.3713252623984
417,1436982318252,59.5007738131629
418,1436982318979,59.052260478908
419,1436982319707,63.0206127348961
420,1436982320387,60.4131648137453
421,1436982321040,66.3000569975501
422,1436982321777,66.8446634477216
423,1436982322536,64.330723849665
424,1436982323291,65.4175157807049
425,1436982324026,67.3991794225686
426,1436982324804,61.4628543466158
427,1436982325572,60.2839527648714
428,1436982326252,59.7910140990981
429,1436982326994,56.3760178778933
430,1436982327718,57.9153059732817
431,1436982328461,57.4210361650702
432,1436982329206,61.5298233051844
433,1436982329948,59.6619237276709
434,1436982330667,64.8432942862273
435,1436982331346,66.9779597058661
436,1436982332071,67.6139837649717
437,1436982332792,65.5714561874047
438,1436982333545,67.3487352432209
439,1436982334308,63.6296263297494
440,1436982335109,61.9203315298613
441,1436982335793,61.5085602507926
442,1436982336531,65.9938680124521
443,1436982337366,61.6744356148427
444,1436982338004,60.5249610022618
445,1436982338584,64.2101125197018
446,1436982339263,62.0808179714222
447,1436982340038,65.4095597154199
448,1436982340729,63.4711325515563
449,1436982341352,61.6685807735022
450,1436982342013,65.551522763906
451,1436982342749,63.7177424106186
452,1436982343425,62.718436983648
453,1436982344093,64.1351621428201
454,1436982344807,64.4206206578955
455,1436982345477,52.788312044454
456,1436982346155,54.5427282445241
457,1436982346875,55.0046133771553
458,1436982347613,50.9577253442553
459,1436982348348,55.4392608433287
460,1436982349096,52.3052695373567
461,1436982349826,49.5761785539562
462,1436982350554,57.1035190319443
463,1436982351350,65.1679293922219
464,1436982352039,55.7019036681259
465,1436982352752,52.1871383314833
466,1436982353468,54.3575141389184
467,1436982354246,53.9218829874086
468,1436982354982,57.7352909777763
469,1436982355688,48.141895179448
470,1436982356393,54.709103413407
471,1436982357132,57.6809702525484
472,1436982357812,59.9544939965464
473,1436982358411,64.3403973063278
474,1436982359056,64.8141740119705
475,1436982359827,65.4421162830192
476,1436982360548,65.5576261877981
477,1436982361281,63.5959372650578
478,1436982361958,63.2212125752533
479,1436982362662,60.7338046221537
480,1436982363387,67.1350806249493
481,1436982364126,62.9887007270737
482,1436982364857,62.373045225947
483,1436982365569,61.3038838868804
484,1436982366319,61.7913907259875
485,1436982367046,61.7194370581509
486,1436982367800,62.1220048315141
487,1436982368526,62.9825311131123
488,1436982369267,63.3624106698566
489,1436982369996,66.0416768466347
490,1436982370728,64.0490341401495
491,1436982371457,66.9608154005506
492,1436982372145,66.9399088712849
493,1436982372803,60.1693512369209
494,1436982373550,68.8264445464039
495,1436982374288,62.5991768588423
496,1436982375028,65.6554270419008
497,1436982375750,61.0737120507858
498,1436982376460,61.9445026429052
499,1436982377040,54.746705000105
500,1436982377716,66.338385230278
501,1436982378423,67.3539395500912
502,1436982379065,65.22378264803
503,1436982379762,60.0488737135375
504,1436982380493,58.3740835129595
505,1436982381202,62.7677494484447
506,1436982381888,62.5858020425063
507,1436982382614,64.1704483025243
508,1436982383362,63.2153828095803
509,1436982384084,63.6745214537661
510,1436982384775,63.064917287434
511,1436982385498,59.9793474807742
512,1436982386233,63.066998084707
513,1436982386924,65.2343136917314
514,1436982387653,66.0309646655334
515,1436982388380,59.0753525207374
516,1436982389117,63.5187337556487
517,1436982389857,59.4407656070688
518,1436982390596,67.6846327700585
519,1436982391322,63.3705161251906
520,1436982392019,69.2327331662738
521,1436982392694,58.1482101822268
522,1436982393440,55.5852474474646
523,1436982394206,50.378840667281
524,1436982394928,49.3984884575426
525,1436982395652,52.9560031904995
526,1436982396422,61.8077916755101
527,1436982397156,53.4909743372701
528,1436982397883,55.6509990467782
529,1436982398738,60.5803529349445
530,1436982399357,54.9893771644815
531,1436982400065,51.9101126408457
532,1436982400743,58.8710737376559
533,1436982401396,65.1770224668573
534,1436982402077,66.7792484198399
535,1436982402665,55.9822797286554
536,1436982403369,64.3778518321871
537,1436982404005,58.6318781903338
538,1436982405569,61.296185672286
539,1436982406384,61.6408824913119
540,1436982407118,59.2828393546758
541,1436982407856,43.7807034680571
542,1436982408588,44.8943964007261
543,1436982409321,61.8429752789876
544,1436982410053,58.6204156920524
545,1436982410795,60.2630896862371
546,1436982411605,67.6567557190055
547,1436982412328,64.7445715079102
548,1436982413014,65.0602365605397
549,1436982413788,62.6212854114365
550,1436982414585,59.3020175495686
551,1436982415333,57.5644213014277
552,1436982416069,62.137203714467
553,1436982416806,57.8179066674206
554,1436982417549,66.2436143374712
555,1436982419446,67.358376788824
556,1436982420166,62.857323373069
557,1436982420905,63.3909792976129
558,1436982421649,63.5570664462958
559,1436982422322,61.2254807349299
560,1436982422997,60.8988309698213
561,1436982423703,61.7065063952419
562,1436982424544,59.8232986927378
563,1436982425214,64.3581181520393
564,1436982425962,65.9876542381037
565,1436982426697,64.6737915153865
566,1436982427425,69.6158005070591
567,1436982428161,67.387104385898
568,1436982428882,58.583575111717
569,1436982429664,59.2350716496814
570,1436982430327,56.2725661594509
571,1436982431048,54.4950161697611
572,1436982431778,56.8871103624127
573,1436982432517,55.1784480434974
574,1436982433283,59.6284756412844
575,1436982434054,54.6921470325349
