id,attr_time,attr_db
1,1436982010114,23.8260985487831
2,1436982011270,15.8855647905665
3,1436982012466,19.7546145672334
4,1436982013562,34.293489086748
5,1436982014584,33.8653551639759
6,1436982015661,71.7288564063375
7,1436982016950,62.6945511086709
8,1436982017925,67.4434717327542
9,1436982018868,71.9574275391134
10,1436982019702,37.5252204922288
11,1436982020814,37.1264744661243
12,1436982021834,43.2295508925674
13,1436982022728,30.8399715280033
14,1436982023851,25.4216973743671
15,1436982024982,28.8093298554733
16,1436982026011,39.4959525178363
17,1436982027069,41.3809147212879
18,1436982028127,41.00438017494
19,1436982029160,39.0118539376754
20,1436982030339,41.8799782226037
21,1436982031155,32.9624342115221
22,1436982032360,28.5141817971731
23,1436982033365,32.9263623906164
24,1436982034418,38.6156033124787
25,1436982035457,40.4411703841005
26,1436982036759,31.0101749393327
27,1436982037873,40.7057312250371
28,1436982038948,29.6857562611796
29,1436982040062,44.9762281424518
30,1436982041029,76.3456112185408
31,1436982041870,58.9034115704502
32,1436982042678,46.5720159840634
33,1436982043645,60.7830976065849
34,1436982044783,30.3884439004114
35,1436982045886,29.8663752746189
36,1436982046706,37.9132593537039
37,1436982047896,46.2325851571397
38,1436982048851,30.0968268574028
39,1436982050002,35.0457484815938
40,1436982051242,44.6939838106116
41,1436982052517,42.4929212751566
42,1436982053554,37.2908299058977
43,1436982054550,45.5144401359866
44,1436982055559,39.1501634229439
45,1436982056622,33.9512825694898
46,1436982057662,35.3580242686881
47,1436982058699,40.9538172167373
48,1436982059768,45.8302314991944
49,1436982060818,41.3431274696278
50,1436982061869,35.882987605752
51,1436982062877,37.7155237351837
52,1436982063761,40.1971872793105
53,1436982064901,37.5359200733515
54,1436982066113,46.492273775469
55,1436982067394,42.7646815110232
56,1436982068543,46.90168216311
57,1436982069536,34.3932829398979
58,1436982070631,37.8972736501907
59,1436982071668,37.8455973451099
60,1436982072669,38.0664976665339
61,1436982073620,34.9081557452568
62,1436982074828,38.8522226930479
63,1436982075908,41.8146919571289
64,1436982076908,42.3345680410324
65,1436982077938,38.6711372287697
66,1436982078962,37.1580069015071
67,1436982080047,43.0034507864811
68,1436982080978,42.3565111873635
69,1436982081925,32.1757615364543
70,1436982083029,46.7100448645399
71,1436982084120,44.6788870208754
72,1436982085150,44.3873608901539
73,1436982086192,33.6464247992118
74,1436982087205,39.7690102809787
75,1436982088332,36.7172010762454
76,1436982089444,40.5590678051264
77,1436982090565,44.1054395086898
78,1436982091560,35.1119366343314
79,1436982092535,44.7258085233425
80,1436982093475,48.1116143702125
81,1436982094646,42.5673304302521
82,1436982095653,48.4570377107087
83,1436982096674,46.1857995890798
84,1436982097698,38.7796352793204
85,1436982098836,52.7295961673315
86,1436982099888,35.2470340178541
87,1436982100867,43.2969017852947
88,1436982102010,39.8241895322608
89,1436982102983,42.8739792783359
90,1436982104013,39.8880638577241
91,1436982105072,43.3987640541743
92,1436982105864,35.2163909534283
93,1436982107079,48.9600740534646
94,1436982108168,53.3665007944126
95,1436982109335,45.0255475243983
96,1436982110436,48.1222438112755
97,1436982111532,46.9487487290432
98,1436982112532,45.6628669578766
99,1436982113460,49.432515859846
100,1436982114531,43.2691789411442
101,1436982115532,43.8410492456114
102,1436982116467,37.4138820949999
103,1436982117711,44.3109359470097
104,1436982118835,38.8597751929315
105,1436982119895,43.1319872203046
106,1436982120988,33.1579003051882
107,1436982121995,45.1421555867107
108,1436982122935,37.6329862727481
109,1436982123984,30.6228004313625
110,1436982125080,46.6165423486629
111,1436982126104,36.1579848022865
112,1436982127081,46.1025610433635
113,1436982128610,44.2644752254481
114,1436982129927,42.0560755649588
115,1436982131118,37.0606627462788
116,1436982132188,40.2436601826815
117,1436982133182,44.7423897514615
118,1436982134225,38.1605536909939
119,1436982135409,32.9318178651788
120,1436982136483,53.6195071892939
121,1436982137399,43.85553182897
122,1436982138545,49.7352850883387
123,1436982139650,35.5794319581203
124,1436982140684,45.4626814381776
125,1436982141701,47.3486203403662
126,1436982142803,32.8815845491422
127,1436982143609,48.3258444345817
128,1436982144679,32.708256816705
129,1436982145678,41.3293514385423
130,1436982146653,39.1469976922781
131,1436982147487,40.2932003367011
132,1436982148570,36.0173567418995
133,1436982149557,40.6913701262317
134,1436982150525,40.6168757346339
135,1436982151526,42.0417674914201
136,1436982152448,45.9037286626574
137,1436982153618,29.8884878858475
138,1436982154796,38.9423374986373
139,1436982155841,44.7773323261386
140,1436982156696,41.69845501175
141,1436982157905,43.2008877636041
142,1436982158956,41.4012325818395
143,1436982160106,38.8352022370405
144,1436982161043,65.5455792336626
145,1436982162180,47.1471294353182
146,1436982163203,48.1007908227676
147,1436982164215,38.5016494889143
148,1436982165063,50.7027882695113
149,1436982166139,35.2413231762532
150,1436982167865,46.4543895626209
151,1436982168908,55.6005564608711
152,1436982169894,34.6953524192541
153,1436982170973,39.6938723131136
154,1436982171954,46.6243595079295
155,1436982172854,40.3842487024533
156,1436982173954,46.4003507813749
157,1436982174944,45.5412605969693
158,1436982175922,43.3028273030755
159,1436982177016,45.209774316456
160,1436982178069,35.0293073515071
161,1436982179091,38.4779470615011
162,1436982180090,41.4098589292929
163,1436982181155,42.0450239316661
164,1436982182195,45.8978494889496
165,1436982183341,45.2957908164007
166,1436982184473,44.8480838811238
167,1436982185441,40.6251590066265
168,1436982186496,33.600536960217
169,1436982187497,39.7186372666313
170,1436982188860,46.9120148537334
171,1436982189770,43.1959237736352
172,1436982190899,44.3904420670805
173,1436982191905,37.9590700322375
174,1436982192949,38.2919458719737
175,1436982193828,46.980263012284
176,1436982194898,40.3613102274929
177,1436982195839,39.7139545946049
178,1436982196860,38.051395854781
179,1436982197926,46.2022857889768
180,1436982198941,41.749199721311
181,1436982200040,44.5048200001283
182,1436982201033,29.7087676333191
183,1436982202061,44.7163289202363
184,1436982203139,35.0467548357753
185,1436982204197,36.6130508098237
186,1436982205317,47.3928239015166
187,1436982206391,38.8518158827696
188,1436982207421,42.1689098796551
189,1436982208544,43.8718201047897
190,1436982209547,41.0041079041542
191,1436982210461,38.8321065705791
192,1436982211491,39.253731004854
193,1436982212643,48.4895766622974
194,1436982213966,46.5130450646155
195,1436982214984,50.8291278410557
196,1436982215988,35.9562667006181
197,1436982216940,42.5144078917491
198,1436982218149,43.0467770692502
199,1436982219239,33.4916403562579
200,1436982220235,53.1389615821217
201,1436982221189,44.2164275351545
202,1436982222448,48.11140298846
203,1436982223497,42.422478707483
204,1436982224620,47.6802743121059
205,1436982225656,49.7948288388949
206,1436982226691,47.1321041062538
207,1436982227854,32.6990621083018
208,1436982228930,37.4842401146671
209,1436982229929,39.9356918497604
210,1436982231063,45.3416731511038
211,1436982232088,37.7620353152845
212,1436982233134,73.972022784292
213,1436982234309,42.3830715966628
214,1436982235384,46.8265027679576
215,1436982236491,41.8394469118111
216,1436982237480,39.180901898773
217,1436982238503,43.9178106562546
218,1436982239564,42.9324307819945
219,1436982240486,40.3567204897561
220,1436982241527,40.608183014642
221,1436982242390,42.3509939759617
222,1436982243270,36.3723682170333
223,1436982244395,46.4592044143954
224,1436982245551,43.8847932520772
225,1436982246559,39.0310710236275
226,1436982247570,49.1064026955844
227,1436982248638,49.2516217717974
228,1436982249651,45.2503948094485
229,1436982250593,42.1025188022875
230,1436982251621,45.0217708617282
231,1436982252626,51.5401748924317
232,1436982253590,38.4885524060729
233,1436982254652,45.6706586676876
234,1436982255689,48.6841533314251
235,1436982256777,46.3035970023766
236,1436982257872,46.8999200844522
237,1436982258931,45.3318244593434
238,1436982259898,47.3780437238655
239,1436982260869,47.7493389151397
240,1436982261730,47.4359850255641
241,1436982262565,36.5884337605491
242,1436982263448,45.3830706588458
243,1436982264502,44.5967829882191
244,1436982265520,43.4907042454894
245,1436982266582,49.7062396432765
246,1436982267596,48.7286486466692
247,1436982268547,49.002257316777
248,1436982269615,48.7106896590514
249,1436982270559,45.7733613558604
250,1436982271413,48.4995260148121
251,1436982272417,44.1381732062966
252,1436982273515,48.2150474506073
253,1436982274539,77.7221467849851
254,1436982275461,55.5865065488191
255,1436982276530,46.429575631203
256,1436982277509,38.382547924214
257,1436982278497,45.8382868743809
258,1436982279525,49.1715477291509
259,1436982280580,47.5343567763065
260,1436982281598,48.9785394802124
261,1436982282525,44.5053690064484
262,1436982283626,43.5291884748947
263,1436982284724,40.4315716329592
264,1436982285546,42.8167798947657
265,1436982286529,43.9922841532558
266,1436982287694,39.8776725682534
267,1436982288800,40.3969284085197
268,1436982289864,46.2173534393952
269,1436982290864,40.442351574129
270,1436982291899,49.4639808625101
271,1436982293024,37.4702178185717
272,1436982293969,38.6952375236445
273,1436982295206,40.3601877003888
274,1436982296279,46.6214495539799
275,1436982297432,42.9182991634237
276,1436982298360,50.9419465148435
277,1436982299420,35.484582398873
278,1436982300438,46.9916249238331
279,1436982301441,42.3577556167069
280,1436982302492,49.0257000717949
281,1436982303618,44.3232026282319
282,1436982304828,51.1030979569364
283,1436982305834,48.3140500224236
284,1436982306983,42.8725054078746
285,1436982307982,46.2190598479737
286,1436982308985,44.5452728381988
287,1436982309995,43.4689185150887
288,1436982311546,46.7897564340227
289,1436982312611,34.4961468628898
290,1436982313745,43.8626986499465
291,1436982314797,39.3106135465738
292,1436982315756,46.1463948769513
293,1436982316990,40.0095472298306
294,1436982317980,42.4420415046471
295,1436982319119,47.2361256591034
296,1436982320177,37.7741440263124
297,1436982321282,47.4952820630965
298,1436982322386,52.1482964988881
299,1436982323490,47.4117195763689
300,1436982324433,31.1376891833417
301,1436982325479,44.0813995449072
302,1436982326507,46.0433209097255
303,1436982327633,29.2469686395317
304,1436982328437,43.3064392712576
305,1436982329490,45.1434870458781
306,1436982330427,43.0861414718684
307,1436982331333,46.1045992223296
308,1436982332370,47.5501480240744
309,1436982333407,41.2883203674885
310,1436982334426,43.7986994271947
311,1436982335475,45.7600048086288
312,1436982336948,41.7451821339956
313,1436982337873,45.1728068220483
314,1436982338994,38.4056956802858
315,1436982340044,46.6525179942425
316,1436982340939,46.6691635082245
317,1436982342011,36.2069021734342
318,1436982342995,47.1622966929973
319,1436982344012,48.9568103668627
320,1436982345258,45.1490893625129
321,1436982346486,35.3931681541006
322,1436982347560,44.6324236623441
323,1436982348554,37.1120075796831
324,1436982349661,41.5355500009868
325,1436982350466,42.5488079684491
326,1436982351452,43.7731882705486
327,1436982352540,40.851440822696
328,1436982353479,43.8147753066996
329,1436982354452,40.5173575212858
330,1436982355546,43.811725686228
331,1436982356650,36.3635740752113
332,1436982357797,42.2254409352478
333,1436982358905,39.0054110190944
334,1436982359846,44.6802020476322
335,1436982360944,34.6402884986156
336,1436982361941,46.857603574907
337,1436982362939,43.7736818777585
338,1436982364062,33.466525979526
339,1436982365119,32.743417535965
340,1436982366136,48.2402292466685
341,1436982367295,32.8074473648098
342,1436982368358,34.2844660103358
343,1436982369414,44.8166998731239
344,1436982370470,42.4184769295998
345,1436982371651,43.2844067162183
346,1436982372701,42.0554062812076
347,1436982373684,38.4754616910271
348,1436982374674,43.3847534983465
349,1436982375781,32.957881754561
350,1436982376885,48.3258156349052
351,1436982378002,33.244610480944
352,1436982379037,43.8356183526551
353,1436982380075,44.5959770597569
354,1436982381051,41.0946255052758
355,1436982382069,43.8722920642952
356,1436982382958,43.0943993902108
357,1436982384015,43.2882328355114
358,1436982385038,40.0919270803121
359,1436982386101,44.8613897413803
360,1436982387134,42.3002148014411
361,1436982388155,44.7641809152062
362,1436982389356,54.4643488447766
363,1436982390436,42.0832092100388
364,1436982391545,43.9699594666207
365,1436982392709,42.239757913679
366,1436982393877,39.4393122764127
367,1436982394904,46.4917763741654
368,1436982395743,46.4767684754349
369,1436982396555,41.2604329953727
370,1436982397627,47.9223693625037
371,1436982398646,44.2706582425917
372,1436982399661,42.4237718373605
373,1436982400690,34.2443961704928
374,1436982401821,30.0547052071604
375,1436982402906,37.365347630769
376,1436982403927,40.6385356888742
377,1436982404997,44.0632759678144
378,1436982405910,38.3242511166849
379,1436982407012,44.0898855569891
380,1436982407897,34.2943982646022
381,1436982408751,41.7428100673899
382,1436982409814,45.7194637622957
383,1436982410753,39.6961496518046
384,1436982411681,60.3160897178434
385,1436982412761,40.3745107262463
386,1436982413842,25.8440101529709
387,1436982414898,45.4298922060711
388,1436982416011,26.7217184947277
389,1436982417014,39.5027522404245
390,1436982418124,39.4477756790551
391,1436982419464,33.7925888723748
392,1436982420499,41.0898635473908
393,1436982421663,40.6064367151772
394,1436982422825,41.2564380584654
395,1436982423865,28.0100081070995
396,1436982424900,37.5124323311235
397,1436982425902,44.8953552473224
398,1436982426881,41.75592045751
399,1436982427852,20.4378270898582
400,1436982428942,34.0928062596749
401,1436982430035,38.596303173708
402,1436982430918,43.8641294424939
403,1436982431977,33.8999429113228
404,1436982432984,39.1630704604495
405,1436982434071,42.239494996626
406,1436982435171,35.0544207262588
407,1436982436269,43.8466035968696
408,1436982437293,46.9087040592005
409,1436982438129,41.8795173967758
410,1436982439163,34.8656377407506
411,1436982440049,33.1613358876273
412,1436982440981,34.0088144465269
413,1436982442091,38.394231499572
414,1436982443151,42.9898405804266
415,1436982444201,27.8414708605873
416,1436982445311,31.4322402041552
417,1436982446407,43.2328004229775
418,1436982447487,41.5641627537362
419,1436982448389,25.1981041511496
420,1436982449315,42.9182715019038
421,1436982450502,59.5076611391748
422,1436982451588,42.9931559222604
423,1436982452931,63.4490274914736
424,1436982454019,44.2749358622831
425,1436982455025,41.9361867942308
426,1436982456042,78.1460026004991
427,1436982457058,57.9815910412245
428,1436982458094,74.3715384694443
429,1436982459088,77.9325868919141
430,1436982460077,48.9467683250901
431,1436982461007,73.3450745061874
432,1436982462109,39.1045355728632
433,1436982463283,51.3499665207194
434,1436982464373,46.8532613396678
435,1436982465407,68.1605859649227
436,1436982466288,50.4455276271259
437,1436982467497,40.5339605758825
438,1436982468617,44.4853147326833
439,1436982469464,43.0162097669036
440,1436982470485,42.8116729122799
441,1436982471557,47.8478029857017
442,1436982472390,44.4011657335905
443,1436982473408,44.9071081504181
444,1436982474434,42.2295688939623
445,1436982475478,46.1842100927857
446,1436982476548,29.4630544000087
447,1436982477581,45.8667099874858
448,1436982478586,44.5862452405673
449,1436982479567,46.3724356002513
450,1436982480505,41.787135435304
451,1436982481480,42.5691948270575
452,1436982482539,38.5760955946163
453,1436982483604,44.2852260712781
454,1436982484623,43.0190214975235
455,1436982485610,48.1157910838113
456,1436982486609,44.2120313307014
457,1436982487538,51.1402501516001
458,1436982488668,47.827497030406
459,1436982489457,55.8886486604242
460,1436982490545,59.9478484618394
461,1436982491560,58.177287724329
462,1436982492630,55.3195831843576
463,1436982493948,44.5422815543271
464,1436982495023,46.6184422127199
465,1436982496043,51.768824895976
466,1436982497092,44.5356934822726
467,1436982498141,44.2730374211005
468,1436982499266,40.3963588293466
469,1436982500350,45.5370545122476
470,1436982501358,35.7405341217702
471,1436982502444,45.9034363719174
472,1436982503529,36.3845580298691
473,1436982504931,34.1956103971361
474,1436982505998,41.5027827413673
475,1436982507026,35.965678601751
476,1436982508052,43.119767377911
477,1436982509086,45.2988218224973
478,1436982510115,35.1099235128508
479,1436982510921,41.2192373953252
480,1436982511879,44.419684453247
481,1436982512911,40.5785787537777
482,1436982513879,41.3542512207954
483,1436982515671,38.3857714216523
484,1436982516934,39.133233838655
485,1436982518021,42.337130996485
486,1436982519006,25.9947958272469
487,1436982519936,46.0816648275786
488,1436982520941,42.5523946526917
489,1436982522058,46.7144451557875
490,1436982523148,46.2548300083882
491,1436982524122,43.0854384936932
492,1436982525183,41.4474643972451
493,1436982526273,43.4420445609844
494,1436982527496,43.9619798226667
495,1436982528630,32.8884447112283
496,1436982529682,40.776445427666
497,1436982530816,24.9427479000887
498,1436982531963,39.3314772085757
499,1436982532978,36.2853900031639
500,1436982534082,42.5954414998575
501,1436982535143,43.2700010993412
502,1436982536179,42.6254450928562
503,1436982537360,47.097888141498
504,1436982538132,43.8657522252733
505,1436982539192,38.6352856712159
506,1436982540303,46.5108863494322
507,1436982541203,31.7008706358956
508,1436982542076,41.4315490780194
509,1436982543136,42.1621527655642
510,1436982544897,48.9693065819085
511,1436982545855,35.5344987361227
512,1436982546634,42.0414011375219
513,1436982547681,43.0695144931623
514,1436982548846,36.2623703965344
515,1436982549991,44.0776399025235
516,1436982551163,32.8304527881913
517,1436982552345,47.9323248562218
518,1436982553497,45.6877323199685
519,1436982554512,36.5266001902957
520,1436982555476,39.2485820016167
521,1436982556489,44.5626630434406
522,1436982557580,37.5751933357199
523,1436982558550,44.2573928650819
524,1436982559526,45.4343478310145
525,1436982560488,39.9436384471553
526,1436982561398,40.7456740533596
527,1436982562430,41.2529408390193
528,1436982563420,44.7611602281382
529,1436982564462,41.289151889216
530,1436982565538,33.947742721881
531,1436982566650,40.4554374629603
532,1436982567670,42.7630867151399
533,1436982568835,45.6691105247947
534,1436982569860,39.9360635184582
535,1436982570855,35.6620563743406
536,1436982571778,41.4379742882079
537,1436982572931,36.123243720029
538,1436982574010,46.7063388304543
539,1436982574945,47.0339989715607
540,1436982576027,33.5577109246274
541,1436982577039,42.4424826715617
542,1436982578039,43.1212018374958
543,1436982579147,42.2624850901013
544,1436982580263,46.4423239129311
545,1436982581195,37.3983187969734
546,1436982582387,49.7688622927963
547,1436982583479,37.3833971890745
548,1436982584525,39.7721046657996
549,1436982585502,48.3692604817628
550,1436982586549,52.8240108993137
551,1436982587600,47.3087106921843
552,1436982588619,42.8467291130195
553,1436982589621,46.3524192538075
554,1436982590608,39.200484088352
555,1436982591564,45.5264872274103
556,1436982592487,44.4848349838984
557,1436982593545,37.5819258580357
558,1436982594534,45.0378674960123
559,1436982595706,43.8714188889906
560,1436982596514,38.0658092951305
561,1436982597438,45.8005766467187
562,1436982598537,42.7830015738338
563,1436982600460,42.8186249612848
564,1436982601705,41.5736091590365
565,1436982602805,45.7549295546095
566,1436982603908,47.3656921500868
567,1436982604930,46.382069746028
568,1436982606033,49.0032563150401
569,1436982607210,41.7666233617482
570,1436982608319,49.8103972345288
571,1436982609400,40.6136179377327
572,1436982610426,47.1871040546114
573,1436982611484,46.6933071967368
574,1436982612696,46.6872375070204
575,1436982613700,35.9264377939503
