id,attr_time,attr_db
1,1436982010528,31.6088168023503
2,1436982011195,16.035690579592
3,1436982011829,43.2341813282884
4,1436982012525,62.3289697032024
5,1436982013251,54.9078060778372
6,1436982013961,47.6364827178662
7,1436982014606,46.0635082901048
8,1436982015331,49.8391105103078
9,1436982016046,43.4633751280826
10,1436982016778,51.4675938239066
11,1436982017523,54.4354081691119
12,1436982018259,57.8700528999659
13,1436982018970,57.7902433186825
14,1436982019640,56.2403248206192
15,1436982020343,53.4366875933901
16,1436982021005,53.0415790423583
17,1436982021739,46.6519219359526
18,1436982022475,50.4379325952953
19,1436982023212,50.8703731913891
20,1436982023922,53.5374340644897
21,1436982024555,61.1782788350718
22,1436982025242,59.2057992816225
23,1436982025975,60.8340443571153
24,1436982026737,61.1276701991297
25,1436982027480,61.9597538388579
26,1436982028193,61.4699519554647
27,1436982028886,61.3501807173639
28,1436982030204,53.3729038720274
29,1436982031012,52.4800777524269
30,1436982031768,53.955487350412
31,1436982032488,55.1165755521618
32,1436982033239,57.499433056895
33,1436982034013,61.4082653052577
34,1436982034673,55.122056509277
35,1436982035414,54.7528363500519
36,1436982036204,60.2871799533313
37,1436982036946,60.7921300980019
38,1436982037709,63.3917384712229
39,1436982038416,64.295013828289
40,1436982039046,58.7941101759056
41,1436982039736,52.3474933253341
42,1436982040480,53.4181264670492
43,1436982041180,54.4948673377401
44,1436982041917,54.8589263950954
45,1436982042642,50.2366337851956
46,1436982043383,49.8369252591944
47,1436982044203,53.6741368670631
48,1436982044936,51.8908139515792
49,1436982045663,57.2206114862613
50,1436982046371,50.577964386094
51,1436982047104,54.519572189609
52,1436982047823,47.2940386743238
53,1436982049833,57.7890631602164
54,1436982050553,57.5300448837778
55,1436982051234,59.4810205111965
56,1436982051975,57.1417442074504
57,1436982052704,58.2073170585396
58,1436982053474,54.0402155247907
59,1436982054193,56.2172268080534
60,1436982054930,58.2243577872564
61,1436982055654,58.439890478377
62,1436982056322,64.6281546697226
63,1436982057082,54.3997430047069
64,1436982057809,57.9767204390907
65,1436982058562,57.597530222877
66,1436982059285,57.2431021360009
67,1436982060040,54.0200311559552
68,1436982060802,55.8968361365925
69,1436982061403,63.0095897351589
70,1436982062096,59.3491409944282
71,1436982062823,64.1652258526571
72,1436982063542,61.806647617625
73,1436982064296,62.1955365313739
74,1436982065117,58.94295889069
75,1436982065814,56.5263085855393
76,1436982066452,61.8041284611681
77,1436982067141,54.1660105326891
78,1436982067881,55.4019586084795
79,1436982068614,54.5298128796778
80,1436982069338,52.2813314109117
81,1436982070070,54.3503159606724
82,1436982070765,55.7251048250056
83,1436982071478,53.9632753144244
84,1436982072215,53.8409752321801
85,1436982072976,51.4849439779087
86,1436982074403,54.2421524672469
87,1436982075026,55.5193849278982
88,1436982075762,59.4928600863168
89,1436982076540,56.5894229175063
90,1436982077261,52.68286069627
91,1436982077942,57.5439329278571
92,1436982078687,57.9989059324264
93,1436982080873,57.7196760249811
94,1436982081530,59.7016002005277
95,1436982082221,56.2454582290851
96,1436982082933,58.1350837798591
97,1436982083595,54.2397087943252
98,1436982084303,59.9742595776709
99,1436982085038,57.7888191516207
100,1436982085704,60.6330835973899
101,1436982086430,59.0615852161542
102,1436982087152,53.5685085188881
103,1436982087875,57.2484220631848
104,1436982088607,52.9656068470489
105,1436982089328,56.705446130034
106,1436982090002,51.4156595953501
107,1436982090827,54.1536611724148
108,1436982091554,52.1081314986856
109,1436982092294,49.7910114398702
110,1436982093030,49.3946979296082
111,1436982093768,50.7188028199163
112,1436982094528,52.2751609155603
113,1436982095248,49.3461859636024
114,1436982096018,53.7297300958178
115,1436982097666,56.3248060426395
116,1436982098388,51.8573343839537
117,1436982099061,58.9469653493109
118,1436982099733,55.9430902299022
119,1436982100461,57.5570824771356
120,1436982101192,56.4833628045802
121,1436982101906,49.8819313051385
122,1436982102632,55.5040912998254
123,1436982103375,53.3252372286424
124,1436982104135,55.8899536541152
125,1436982104866,55.0820048755375
126,1436982105598,54.3710317929123
127,1436982106328,50.7313949395066
128,1436982107097,53.4888860122415
129,1436982107819,48.1694138901083
130,1436982108548,51.1226713490025
131,1436982109268,49.3967161193042
132,1436982110001,48.8276802357976
133,1436982110724,44.1092049629838
134,1436982111501,49.8217472772234
135,1436982112232,54.5289668418089
136,1436982112963,49.9653775589953
137,1436982113683,58.0716832434977
138,1436982114375,57.7123178182818
139,1436982115101,60.1228568908525
140,1436982115780,50.9912535577038
141,1436982116483,54.651726815705
142,1436982117117,56.1746032329534
143,1436982117803,46.1194675735017
144,1436982118527,48.9510107595491
145,1436982119236,58.7798189767399
146,1436982119957,56.2703844055839
147,1436982120625,50.6251264608324
148,1436982121314,54.2428816697085
149,1436982121925,54.3742443556359
150,1436982122623,53.0818474816315
151,1436982123347,53.9759680117202
152,1436982124067,51.2162220816387
153,1436982124794,49.1680436826451
154,1436982125520,45.1245011815459
155,1436982126215,43.9836434699241
156,1436982126897,57.0907812104753
157,1436982127642,57.1344675680612
158,1436982128399,53.9436597867727
159,1436982129138,59.3314988227616
160,1436982129872,58.7650470778575
161,1436982130594,58.7104848589718
162,1436982131305,57.0410755264769
163,1436982132099,57.249018330366
164,1436982132846,56.6515328516831
165,1436982133568,59.6536676178124
166,1436982134304,57.3438659357742
167,1436982135070,56.3266877369042
168,1436982135790,53.8232147219992
169,1436982136508,49.9315488614732
170,1436982137225,55.0090636670306
171,1436982137939,53.2718424753356
172,1436982138522,58.3430016302445
173,1436982139187,56.8373318076722
174,1436982139909,51.2725219796279
175,1436982140624,49.7539617044184
176,1436982141346,47.2397891471897
177,1436982142164,56.1795450439667
178,1436982142819,42.7808457566303
179,1436982143539,44.4766775321981
180,1436982144298,48.0328552751077
181,1436982145038,46.3495193965388
182,1436982145753,48.6132217293003
183,1436982146445,58.0296305550545
184,1436982147175,53.7887091242361
185,1436982147902,57.8779696185673
186,1436982148639,58.5183058496858
187,1436982149326,59.0051533035317
188,1436982149980,56.3885819986265
189,1436982150740,56.4905940209761
190,1436982151475,57.1399493989604
191,1436982152195,54.7674555094379
192,1436982152930,53.755503602993
193,1436982153666,51.5203148068718
194,1436982154411,50.6187375176428
195,1436982155169,55.4987463047473
196,1436982155923,58.2733933207819
197,1436982156621,52.259876603238
198,1436982157385,55.6291949235865
199,1436982158131,67.8298617510078
200,1436982158856,55.4134771274395
201,1436982159591,58.4103976291853
202,1436982160292,51.9310627860262
203,1436982160928,64.9903573875621
204,1436982161613,52.6832071662556
205,1436982162376,62.0502330757433
206,1436982163065,55.2393820198334
207,1436982163809,57.6413082744682
208,1436982164530,54.1951907180701
209,1436982165312,57.7778343535804
210,1436982166075,59.8234300167471
211,1436982166805,54.6703193593546
212,1436982167514,51.8339831808092
213,1436982168265,51.0167261100542
214,1436982168957,52.9255476832913
215,1436982169617,56.4102250612763
216,1436982170332,53.5289929770212
217,1436982171045,52.5286577119165
218,1436982171774,52.133957630923
219,1436982172439,52.1078257431221
220,1436982173168,50.1261949059965
221,1436982173931,45.0194346680409
222,1436982174662,50.3204943886653
223,1436982175439,51.9914710375573
224,1436982176167,45.6893797249067
225,1436982176912,44.8375649199861
226,1436982177594,59.1276934965146
227,1436982178275,58.3160288147527
228,1436982178975,59.4613434217466
229,1436982179707,58.828830283779
230,1436982180452,58.8390903367458
231,1436982181163,59.3638918500243
232,1436982181951,58.3274649264227
233,1436982182771,46.0950703274304
234,1436982183431,55.970949221864
235,1436982184125,58.4774883682391
236,1436982184775,61.762154723041
237,1436982185541,59.8816183572561
238,1436982186260,60.5826859412623
239,1436982187043,58.2101514022807
240,1436982187766,57.4199811447887
241,1436982188486,58.3259597644235
242,1436982189222,59.5571781234149
243,1436982189952,59.5899036931746
244,1436982190693,59.944837918576
245,1436982191445,56.9599447945965
246,1436982192171,59.552310004142
247,1436982192890,58.4761387315147
248,1436982193569,57.1226700282089
249,1436982194281,59.3622260052187
250,1436982194938,61.5957018419751
251,1436982195666,57.533440599758
252,1436982196401,58.4496693941606
253,1436982197139,62.2206614931224
254,1436982197855,57.8238422635461
255,1436982198588,57.6275660222307
256,1436982199291,58.5386696692488
257,1436982199957,59.609837314579
258,1436982200675,59.2080584104776
259,1436982201459,52.3396777307915
260,1436982202207,56.5576388040709
261,1436982202941,57.4177443489245
262,1436982203654,56.5386996229513
263,1436982204337,52.838392171148
264,1436982204973,60.7218440629195
265,1436982205687,60.1823252691296
266,1436982206425,58.903034887781
267,1436982207162,60.779154924087
268,1436982207909,64.4070361384407
269,1436982208639,64.3181758663976
270,1436982209382,66.6530915774955
271,1436982210134,63.664357953607
272,1436982210861,63.7524248247014
273,1436982211593,63.1410264565551
274,1436982212311,67.3952923893394
275,1436982213084,61.0825554414963
276,1436982213797,65.3384529612637
277,1436982214539,63.1930119030188
278,1436982215260,60.7597726764793
279,1436982215900,59.8079275053285
280,1436982216596,54.2809143808029
281,1436982217348,58.037736589857
282,1436982218110,60.4482506775538
283,1436982218704,54.8383453856464
284,1436982219354,51.5813908511244
285,1436982220123,50.7642659123536
286,1436982220835,53.5745050752531
287,1436982221498,49.5658837341694
288,1436982222189,53.1775434495093
289,1436982222893,57.4287574425119
290,1436982223658,54.7378642168451
291,1436982224389,56.3423555226909
292,1436982225130,53.3833247575257
293,1436982225865,54.4717535108815
294,1436982226572,52.2333964652523
295,1436982227264,60.5120604664875
296,1436982228044,56.659214670834
297,1436982228766,59.6989686234872
298,1436982229488,56.4650453911622
299,1436982230217,62.6461256548983
300,1436982230964,61.0939085233211
301,1436982231716,59.5715282812714
302,1436982232454,60.5109190981909
303,1436982233137,63.5828102838018
304,1436982234669,56.7068963786539
305,1436982235409,62.5596876825231
306,1436982236172,55.5952134502245
307,1436982236919,58.6293919484815
308,1436982237621,57.8890393616514
309,1436982238313,61.9214153059777
310,1436982239053,62.7308779647104
311,1436982239767,61.2696749217923
312,1436982240494,57.8863715321516
313,1436982241222,57.5491600316193
314,1436982241919,56.2684889186674
315,1436982242577,66.2047762434311
316,1436982243242,62.7715572211886
317,1436982243880,56.1530613413346
318,1436982244577,55.9015762697224
319,1436982245312,54.6138276465473
320,1436982246082,59.5349557891809
321,1436982246809,58.3592408766179
322,1436982247503,58.3049619398559
323,1436982248210,56.2769363447909
324,1436982248894,56.1313960221855
325,1436982249551,52.1034801400848
326,1436982250272,59.9930173925907
327,1436982251008,57.5314915093875
328,1436982251745,60.0105512806793
329,1436982252472,56.20749104584
330,1436982253264,46.152015129125
331,1436982253961,53.3121741316425
332,1436982254685,57.5977969571974
333,1436982255409,56.2469092455171
334,1436982256142,56.4501236913882
335,1436982258031,59.3087618360691
336,1436982258751,51.3747464615141
337,1436982259366,55.968871363
338,1436982260046,48.0048710666867
339,1436982260793,52.836852999004
340,1436982261615,48.2170473922449
341,1436982262358,46.1185148797888
342,1436982263045,49.1539664522212
343,1436982263637,62.246379237486
344,1436982264317,59.8313467707991
345,1436982265081,58.5010406496008
346,1436982265809,58.2880635553579
347,1436982266534,54.9284050624958
348,1436982267221,54.7460281839635
349,1436982267854,62.5197719289673
350,1436982268574,61.9431197621969
351,1436982269326,59.608684982043
352,1436982270047,63.2392881626766
353,1436982270712,56.078641202074
354,1436982271440,72.119754198122
355,1436982272185,64.2880530971203
356,1436982272918,59.2640659498404
357,1436982273609,60.8235751172663
358,1436982274280,57.6733658349614
359,1436982275057,62.1882272832788
360,1436982275804,54.139791451815
361,1436982276522,62.2480200859438
362,1436982277247,55.5194280969502
363,1436982278008,60.6879677623783
364,1436982278755,58.1609436615239
365,1436982279510,59.709320512844
366,1436982280245,58.8242051712844
367,1436982280999,64.5902688150434
368,1436982281721,61.5503492832269
369,1436982282457,63.0876072871471
370,1436982283206,62.2485598527194
371,1436982283934,62.3541689936354
372,1436982284675,61.6874046765695
373,1436982285406,60.2145994149263
374,1436982286167,58.5534701448228
375,1436982286887,59.1230180582888
376,1436982287615,60.1458885266316
377,1436982288327,62.7644534277694
378,1436982289091,55.8750489302424
379,1436982289820,60.9746030212084
380,1436982290551,60.2865354955996
381,1436982291274,56.6271018112277
382,1436982291908,61.8919995340242
383,1436982292605,57.0610832903721
384,1436982293336,57.8816215852659
385,1436982294109,59.8014388107568
386,1436982294823,60.4795739643553
387,1436982296955,56.4711348494559
388,1436982297621,49.6895468285024
389,1436982298374,51.675302037607
390,1436982299122,53.8765662051959
391,1436982299860,53.5375081244675
392,1436982300568,52.2480703050011
393,1436982301258,49.8569827842626
394,1436982301878,58.4228585782677
395,1436982302573,62.3460096016495
396,1436982303310,61.674855064309
397,1436982304062,57.5725376142583
398,1436982304715,64.7561043753701
399,1436982305438,61.3797054405845
400,1436982306206,65.328551262745
401,1436982306892,63.7511001576927
402,1436982307547,55.9531399158754
403,1436982308230,55.0388954856472
404,1436982308956,61.8893340165545
405,1436982309708,57.3734578568581
406,1436982310434,59.8068565059033
407,1436982311194,58.3563519506607
408,1436982311879,61.6456902572612
409,1436982312527,57.0648078551829
410,1436982313307,65.4009192511308
411,1436982314053,64.2643598344484
412,1436982314777,65.5095997849064
413,1436982315511,62.2570672971914
414,1436982316229,61.5497159393218
415,1436982318022,59.5716951530071
416,1436982318692,62.3280400184677
417,1436982319429,64.6516183494854
418,1436982320155,63.1689218810466
419,1436982320900,63.3313239421562
420,1436982321657,63.3695208792946
421,1436982322442,60.521571893152
422,1436982323187,59.0330445339862
423,1436982323898,59.6351965715381
424,1436982324530,63.6731177559197
425,1436982325167,58.3022409589666
426,1436982325826,58.8275584885365
427,1436982326534,63.3851254061065
428,1436982327276,62.5289590481662
429,1436982328065,50.9529921523538
430,1436982328734,59.4259050458035
431,1436982329438,63.2765740636038
432,1436982330106,61.0491539834438
433,1436982330869,61.2353213742941
434,1436982331601,61.4859198450533
435,1436982332312,59.3625028489715
436,1436982333113,59.9835255838297
437,1436982333852,64.5810614651643
438,1436982334486,58.2509626016523
439,1436982335182,61.2759332541928
440,1436982335985,58.1543033256106
441,1436982336712,59.0567773013233
442,1436982337456,57.061177911506
443,1436982338185,58.7748604705123
444,1436982338891,60.1655708322283
445,1436982339518,53.4508100654835
446,1436982340208,49.5096748613685
447,1436982341027,60.7973787315426
448,1436982341743,55.036990940296
449,1436982342481,60.0428570995584
450,1436982343219,57.4131405462899
451,1436982344015,58.8568245978352
452,1436982344711,56.7449530331005
453,1436982345478,59.7411864485316
454,1436982346200,57.6130055214452
455,1436982346954,60.4345402965343
456,1436982347703,58.0584026978441
457,1436982348469,59.26562914492
458,1436982349151,58.5972994269422
459,1436982349810,58.9610234177053
460,1436982350530,56.5534257906118
461,1436982351233,58.8191594876145
462,1436982351941,51.6452297860372
463,1436982352662,53.4574996085059
464,1436982353413,53.3319148475059
465,1436982354207,62.0828430716989
466,1436982354950,55.2134834807007
467,1436982355682,62.1202303041976
468,1436982356415,60.9667906567095
469,1436982357163,63.9514862380705
470,1436982357873,54.799516684534
471,1436982358603,62.597429430494
472,1436982359323,53.9786278023105
473,1436982360075,60.043418232885
474,1436982360846,54.330926765868
475,1436982361587,57.517416731876
476,1436982362300,60.448807596685
477,1436982363073,55.6192995483114
478,1436982363803,52.1539843856025
479,1436982364551,54.4399142951516
480,1436982365130,48.2927832475596
481,1436982365857,56.1446704195443
482,1436982366595,55.1954165636667
483,1436982367383,49.4391429826455
484,1436982368158,49.1890501267368
485,1436982368903,50.6170253489463
486,1436982369633,52.035462309702
487,1436982370365,45.795910461008
488,1436982371149,48.3284798473726
489,1436982371892,53.1350257487075
490,1436982372618,47.3773688368096
491,1436982373330,46.8793751332485
492,1436982374112,49.7165895217987
493,1436982375254,47.7660816836046
494,1436982375840,56.7031669847456
495,1436982376528,55.7202711491343
496,1436982377246,58.4240740603544
497,1436982377990,54.9802559441888
498,1436982378725,57.9596098266426
499,1436982379476,51.9050271328283
500,1436982380251,61.3826417292274
501,1436982381033,60.0331414512731
502,1436982381764,58.7952411498129
503,1436982382540,59.0086574817506
504,1436982383258,59.34530870995
505,1436982383983,57.4358146010676
506,1436982384636,54.5490237145353
507,1436982385337,46.7728296647373
508,1436982386077,50.3625059209713
509,1436982386814,51.2053504679393
510,1436982387527,52.3757330645494
511,1436982388250,48.6995770904999
512,1436982389003,50.2815554788095
513,1436982389709,51.0036740466207
514,1436982390437,48.1220930717807
515,1436982391198,52.1772535376081
516,1436982391904,51.0508619196217
517,1436982392592,50.6831479457129
518,1436982393348,48.7349310315303
519,1436982394082,49.1756643397724
520,1436982394833,46.8778104328847
521,1436982395520,48.9974943304408
522,1436982396187,56.2828326290091
523,1436982396925,54.4713986603623
524,1436982397664,56.4497748817758
525,1436982398407,56.8214857588124
526,1436982399145,56.8765976064869
527,1436982399898,54.4563334850215
528,1436982400618,54.7024137790051
529,1436982401376,54.9629856081274
530,1436982402145,55.5403775611875
531,1436982402885,52.8603071711046
532,1436982403617,49.8948200522043
533,1436982404362,45.2719352626068
534,1436982405113,43.1391777978127
535,1436982405695,46.6020780413248
536,1436982406367,43.9189233696865
537,1436982407101,45.1935011480214
538,1436982407819,47.6965640522116
539,1436982408535,55.4140362609283
540,1436982409288,47.0994987783425
541,1436982409956,57.0914694322282
542,1436982410684,56.8535897965355
543,1436982411499,56.8208622549948
544,1436982412228,57.9959183634748
545,1436982412965,54.8408608022501
546,1436982413704,55.8124356956477
547,1436982414429,52.9968077995128
548,1436982415164,56.4347669242383
549,1436982415916,56.3898178056165
550,1436982416589,55.9818222296143
551,1436982417341,54.5687097156352
552,1436982418076,56.7369621648623
553,1436982418800,55.741364006699
554,1436982419564,57.4536499350358
555,1436982420283,56.441610088505
556,1436982421006,55.718438298061
557,1436982421736,53.4628998931807
558,1436982422464,50.3148043884378
559,1436982423204,47.8599616866562
560,1436982423931,55.1619260877373
561,1436982424697,52.4919590285145
562,1436982425501,57.5015379081146
563,1436982426120,51.8764577768918
564,1436982426759,61.1426024921474
565,1436982427417,56.7614390139981
566,1436982428049,54.6892883750964
567,1436982428735,49.3923698881569
568,1436982429452,48.5532258662811
569,1436982430062,57.5496690879406
570,1436982430735,54.3608050316592
571,1436982431406,56.7250475712585
572,1436982432081,50.0001148363477
573,1436982432798,51.8653767863836
574,1436982433521,53.9030246954376
575,1436982434273,57.2597391863354
