id,attr_time,attr_db
1,1436982010086,28.4829341109613
2,1436982010552,25.7357877609321
3,1436982011029,20.8046402243056
4,1436982011582,26.0479300656704
5,1436982012170,27.3364418381706
6,1436982012726,27.3880403719935
7,1436982013299,24.3211751957773
8,1436982013843,19.0636696122373
9,1436982014328,27.7721215839582
10,1436982014847,50.105447666066
11,1436982015244,32.3488979097237
12,1436982015729,49.6605738400147
13,1436982016297,60.7180368354354
14,1436982016828,55.589734860315
15,1436982017298,56.856254543255
16,1436982017776,50.7447620276218
17,1436982018353,68.6733466684205
18,1436982018908,56.7596417629401
19,1436982019503,55.7342228194529
20,1436982019973,59.042677423869
21,1436982020402,55.5458656604955
22,1436982020856,63.2470098256781
23,1436982021392,56.7202920261435
24,1436982021969,57.8352842574244
25,1436982022520,54.0513376798186
26,1436982023069,56.1621351487984
27,1436982023629,58.5382016048842
28,1436982024131,59.1420761483779
29,1436982024550,59.6225543414048
30,1436982025006,61.4891406432315
31,1436982025464,58.7206084251042
32,1436982025919,61.1534717514896
33,1436982026474,61.9405147158702
34,1436982027062,69.692219379789
35,1436982027595,65.4927883488527
36,1436982029163,67.6965864540326
37,1436982029591,65.9023330447276
38,1436982030091,61.6768517948689
39,1436982030717,60.8947810955686
40,1436982031119,59.3427784225206
41,1436982031603,63.1710625906096
42,1436982032118,66.1854673628509
43,1436982032665,66.5587666776114
44,1436982033215,62.504421829596
45,1436982033768,63.8699364193118
46,1436982034316,64.9274179378553
47,1436982034840,64.7218663588336
48,1436982035241,57.326143294133
49,1436982035721,63.9155653257289
50,1436982036240,60.2860501583048
51,1436982036853,65.1410866632313
52,1436982037316,62.4895138187467
53,1436982037813,65.8755945140462
54,1436982038370,65.0614309832493
55,1436982038924,61.2424645612742
56,1436982039494,65.6308024102571
57,1436982039963,68.6507749743729
58,1436982040356,68.3799579011586
59,1436982041423,66.4957125212284
60,1436982041795,71.8160196550333
61,1436982042234,69.8589274613982
62,1436982042729,61.839136690189
63,1436982043276,64.503493854683
64,1436982043843,66.6754107563724
65,1436982044399,66.8396078339787
66,1436982044939,63.2723612649521
67,1436982045580,51.3771234685485
68,1436982045966,56.497986793776
69,1436982046338,48.6961053959102
70,1436982046816,65.4286893437259
71,1436982047301,60.5118849677686
72,1436982047846,48.3049647888021
73,1436982048401,63.2576558444827
74,1436982048946,56.7773735605406
75,1436982049522,63.1298030986682
76,1436982050073,51.0339618645077
77,1436982050489,64.9934739922753
78,1436982050909,67.7757522400491
79,1436982051384,62.3721365775951
80,1436982052030,66.2824434629188
81,1436982052591,62.6329333552575
82,1436982053137,68.7147700286691
83,1436982053700,61.0511854129155
84,1436982054258,66.2411446519902
85,1436982054813,65.5360252513224
86,1436982055389,67.9046286505781
87,1436982055902,58.8120947418647
88,1436982056308,61.6669990650408
89,1436982056789,58.8070520316099
90,1436982057348,64.4724930938067
91,1436982057904,60.7907609072735
92,1436982058496,66.2348030643815
93,1436982059045,60.9314960957869
94,1436982059617,63.936706172747
95,1436982060157,63.3022106780123
96,1436982060722,66.4044316943179
97,1436982061108,58.1149157413049
98,1436982061488,62.2469486675618
99,1436982061984,63.6663562401098
100,1436982062506,65.4182805393621
101,1436982063068,56.896544269308
102,1436982063624,63.4827347321452
103,1436982064192,61.7617681695833
104,1436982064751,61.7603826406545
105,1436982065265,66.7120077152114
106,1436982065675,66.6387539061328
107,1436982066240,52.6013370647571
108,1436982066621,64.0239822184469
109,1436982067095,62.8197063453378
110,1436982067589,66.0537745653899
111,1436982068150,55.1070858023814
112,1436982068711,64.4038984361862
113,1436982069253,49.6241597443244
114,1436982069804,63.3706731556967
115,1436982070417,65.5991396134019
116,1436982070881,62.3476415879633
117,1436982071466,57.7717455721389
118,1436982071950,66.3328545276631
119,1436982072339,65.5399427866633
120,1436982072767,62.729563472344
121,1436982073274,62.1382939499599
122,1436982073829,64.4974916771562
123,1436982074405,52.8536445302332
124,1436982074947,64.2591282291286
125,1436982075593,68.2165834751735
126,1436982076038,67.4304498009801
127,1436982076501,62.7106815576746
128,1436982077080,64.1497299992137
129,1436982077457,70.0821100615593
130,1436982077847,70.6489543864261
131,1436982078321,64.6183760893815
132,1436982078825,53.7020969692802
133,1436982079392,67.4617903745156
134,1436982079931,59.9647292272938
135,1436982080643,62.7856457046293
136,1436982081014,49.5129010165305
137,1436982081412,56.0226897901484
138,1436982081856,59.5527110699235
139,1436982082349,71.1248041800257
140,1436982082916,60.1182925579359
141,1436982083464,65.4549387622489
142,1436982084019,51.5671966326842
143,1436982084570,64.0696163689856
144,1436982085133,61.2763114273458
145,1436982085675,70.4360240794311
146,1436982086221,48.4052432380543
147,1436982086610,56.9541206865325
148,1436982086994,61.9551908089502
149,1436982087370,66.3755175508126
150,1436982087719,61.9193026055578
151,1436982088078,54.9267058715208
152,1436982088446,53.8047740622495
153,1436982088791,54.8422565981356
154,1436982089141,47.7186400825736
155,1436982089632,64.544323892024
156,1436982090181,64.1471272089433
157,1436982090619,56.9103620702736
158,1436982091160,65.4755773171513
159,1436982091597,65.7950592451239
160,1436982091971,64.2886646854888
161,1436982092347,65.7536692372166
162,1436982092701,62.8541479107186
163,1436982093081,66.5580288032048
164,1436982093434,65.191425321342
165,1436982093783,66.2010836638353
166,1436982095035,55.0879109059314
167,1436982095481,56.6182969218581
168,1436982095949,65.8283628459309
169,1436982096447,66.0691918717211
170,1436982096935,59.7565973787473
171,1436982097401,63.741964342192
172,1436982097807,63.9832364093443
173,1436982098153,67.3634240483217
174,1436982098539,66.1363825945209
175,1436982098902,69.540684257104
176,1436982099284,67.3034827067505
177,1436982099645,71.1708871965552
178,1436982100016,64.5914880689426
179,1436982100378,71.9911562396529
180,1436982100802,66.9214892391659
181,1436982101376,65.0210253651564
182,1436982101893,64.796388214561
183,1436982102270,62.6883644280387
184,1436982102624,70.7126142595354
185,1436982102978,66.3524285827512
186,1436982103327,68.4874285412968
187,1436982103696,67.6628100044644
188,1436982104078,67.8125955080618
189,1436982105557,69.2764571962348
190,1436982106132,64.9408372496703
191,1436982106678,65.877820663704
192,1436982107103,71.2159177271447
193,1436982107490,67.4071214440966
194,1436982107950,65.1146722526312
195,1436982108390,58.2546806234734
196,1436982108757,65.4245442986934
197,1436982109134,56.1376581497413
198,1436982109519,67.3614981392602
199,1436982109898,53.6959677042631
200,1436982110265,65.3113022221138
201,1436982110621,59.269128434315
202,1436982111012,62.4493062716797
203,1436982111399,48.4966167866842
204,1436982111862,59.0535430698567
205,1436982112401,70.0894962445884
206,1436982112849,59.0932161484822
207,1436982113196,62.7163983858825
208,1436982113545,61.597374853824
209,1436982113896,67.6182847353135
210,1436982114270,63.8796229535491
211,1436982114640,69.811568694321
212,1436982115035,64.4217288297393
213,1436982115386,72.9223356288038
214,1436982116677,63.8846726697371
215,1436982117114,66.2333375251197
216,1436982117561,52.0805242271645
217,1436982118086,69.8468456295292
218,1436982118514,69.6269300573966
219,1436982118981,65.189692787803
220,1436982119454,60.6540171449249
221,1436982119957,62.2293140233111
222,1436982120580,68.3988622045274
223,1436982121146,63.0471076720213
224,1436982121771,64.8395349378988
225,1436982122178,61.3809638291061
226,1436982122661,68.3944845713063
227,1436982123225,48.3974403437254
228,1436982123779,66.4370165998832
229,1436982124341,60.0439309189972
230,1436982124914,70.6221358044112
231,1436982125458,48.6601493892961
232,1436982126011,68.911522057299
233,1436982126559,65.0559411962434
234,1436982126999,49.3149529313366
235,1436982127365,50.8241563249866
236,1436982127804,55.3204361039775
237,1436982128298,71.6918454640437
238,1436982128867,63.8843984100436
239,1436982129390,71.2845979012001
240,1436982129784,70.4057172498857
241,1436982130279,64.2482208714066
242,1436982130790,50.3595182461356
243,1436982131368,64.7515682396186
244,1436982131916,59.6145797625989
245,1436982132583,65.1910532991371
246,1436982132968,53.4905984755848
247,1436982133393,59.5127536920601
248,1436982133862,53.0841717433859
249,1436982134425,59.8214515642994
250,1436982135004,67.5476084838804
251,1436982135579,63.2861601933504
252,1436982136101,55.9866048420779
253,1436982136500,68.408768320567
254,1436982136915,68.5897437707283
255,1436982137379,66.8561016894063
256,1436982137926,62.3969499760733
257,1436982138492,69.5058926791282
258,1436982139039,56.8680606653795
259,1436982139593,70.2897562127339
260,1436982139992,69.3014570405223
261,1436982140380,65.5923522046174
262,1436982140861,64.8689304888031
263,1436982141443,69.279618357055
264,1436982142082,61.001481580114
265,1436982142521,65.3969267825202
266,1436982142992,65.9585561447101
267,1436982143578,50.0415344100197
268,1436982144048,67.9051365054455
269,1436982144593,64.0184365481969
270,1436982145150,59.6023912748116
271,1436982145683,60.6553608406939
272,1436982146154,63.5402196752661
273,1436982146703,70.0106587639218
274,1436982147243,54.8168223570442
275,1436982147688,53.9315111787362
276,1436982148183,66.1570796539179
277,1436982148757,58.3750512501744
278,1436982149312,69.5065127357733
279,1436982149835,65.5813561576318
280,1436982150287,53.5345235867045
281,1436982150785,72.1144595287652
282,1436982151346,65.1233457636251
283,1436982151809,51.8241452596746
284,1436982152388,61.5285012945007
285,1436982152843,63.8848982021489
286,1436982153356,53.2182067081798
287,1436982153857,64.106068423669
288,1436982154306,62.8042655668848
289,1436982154847,61.2862311617484
290,1436982155387,62.7660274118904
291,1436982155936,64.5217614978296
292,1436982156557,65.522058509649
293,1436982157034,50.4849698486782
294,1436982157499,71.3174308682541
295,1436982158019,65.4511918986147
296,1436982158577,66.0535753727863
297,1436982159134,59.4951480856028
298,1436982159687,67.9727031564524
299,1436982160226,65.7304214596375
300,1436982160635,55.5337356134273
301,1436982161005,73.7559087192617
302,1436982161461,57.6531002368465
303,1436982162005,70.4614379881438
304,1436982162519,60.8835003034118
305,1436982162926,49.2532115469245
306,1436982163456,71.7577701672839
307,1436982163917,65.092455132042
308,1436982164344,56.133404495004
309,1436982164847,65.7410605878053
310,1436982165404,69.0918752041255
311,1436982165896,51.0913727474906
312,1436982166297,67.4929751874376
313,1436982166788,71.5006577244876
314,1436982167352,49.1566550611923
315,1436982167815,66.3146531256512
316,1436982168312,75.6226225267941
317,1436982168884,50.0557039756474
318,1436982169448,66.8846964778411
319,1436982170001,54.9002986648312
320,1436982170568,64.624050832579
321,1436982171134,60.6813367907089
322,1436982171522,69.0340672761264
323,1436982171982,66.3651671399602
324,1436982172446,57.9249970662101
325,1436982172949,62.1239028387252
326,1436982173540,65.125168657206
327,1436982174092,56.6494597302227
328,1436982174638,62.2750804720127
329,1436982175197,69.016659607165
330,1436982175667,63.665015563734
331,1436982176300,54.4818736878181
332,1436982176839,59.2728772180267
333,1436982177312,61.9105505901648
334,1436982177774,59.6096041411139
335,1436982178244,71.8184428534423
336,1436982178826,61.4063680754815
337,1436982179374,66.7541270778462
338,1436982179923,53.6755483803243
339,1436982180482,66.8283460004401
340,1436982181030,61.0326689870904
341,1436982181612,69.4049169837322
342,1436982182012,60.4825013670223
343,1436982182428,65.3195227764555
344,1436982182891,50.3988491834644
345,1436982183396,72.4562146850752
346,1436982183945,62.3316219254607
347,1436982184543,68.9123114606572
348,1436982185084,51.8373673593209
349,1436982185456,62.4400184185971
350,1436982185880,68.1835067930364
351,1436982186373,70.6838026298086
352,1436982186839,63.6269134187482
353,1436982187327,67.4650523012518
354,1436982187697,69.0490939916396
355,1436982188220,65.8354853579604
356,1436982188633,56.3142048585604
357,1436982189042,54.1392639191327
358,1436982189505,56.6189372798402
359,1436982190058,65.8653480141682
360,1436982190657,70.7174584157709
361,1436982191021,71.4422147105647
362,1436982191380,70.3069744041008
363,1436982191801,68.0140423997901
364,1436982192230,61.9725500164315
365,1436982192659,62.7194050588148
366,1436982193033,53.5639278943956
367,1436982193472,52.4366146069948
368,1436982193946,69.0949569113631
369,1436982194476,56.2611900507811
370,1436982195018,66.2668963031122
371,1436982196410,65.7034266953336
372,1436982196755,55.4741181937485
373,1436982197196,65.0969968922253
374,1436982197675,67.6878719738249
375,1436982198131,52.8738121973608
376,1436982198595,63.7279103262748
377,1436982199059,69.8191811196197
378,1436982199512,62.1379883703614
379,1436982199948,63.9441296109794
380,1436982200394,49.550292298531
381,1436982200920,73.3113073328823
382,1436982201532,60.883532438225
383,1436982202123,69.2067995900247
384,1436982202724,69.3769283284054
385,1436982203122,65.4110187811724
386,1436982203567,66.6259552804292
387,1436982204111,56.9807898362429
388,1436982204543,68.0278733530333
389,1436982205021,67.6429719999149
390,1436982205551,52.6271416244346
391,1436982206111,61.5765281780681
392,1436982206714,56.9818247266789
393,1436982207228,63.0383510836581
394,1436982207600,57.1431160475315
395,1436982208052,57.6998461970786
396,1436982208574,67.0641381401879
397,1436982209129,55.4324387009627
398,1436982209709,69.614521778705
399,1436982210266,55.0945904585235
400,1436982210817,68.2399329494953
401,1436982211359,52.9897058500848
402,1436982211957,58.8670581053288
403,1436982212472,58.8963438909553
404,1436982212862,58.0839437510566
405,1436982214219,55.8721421960035
406,1436982214633,52.0863817441058
407,1436982215128,70.0611579040608
408,1436982215694,55.2799775541211
409,1436982216161,57.1152516548637
410,1436982216788,61.7086223307403
411,1436982217329,70.5206468184187
412,1436982217702,66.9677080042918
413,1436982218179,58.0328640440449
414,1436982218755,54.0244844900187
415,1436982219317,58.3539673881419
416,1436982219879,65.1379645973409
417,1436982220435,65.0835213890603
418,1436982221000,68.2655718820155
419,1436982221559,55.2382236250503
420,1436982222209,60.6134864247527
421,1436982222741,54.576282016471
422,1436982223303,63.8574526381612
423,1436982223845,55.5294877174171
424,1436982224381,60.8671530871963
425,1436982224833,59.3123514542731
426,1436982225327,59.8859256627719
427,1436982225898,59.0997271947149
428,1436982226506,71.8225570121127
429,1436982227113,53.5918048249939
430,1436982227672,63.1793333033094
431,1436982228125,55.6479337135279
432,1436982228622,61.0438640933558
433,1436982229167,63.2179781314048
434,1436982229736,67.7050668432814
435,1436982230142,71.6981457678794
436,1436982230646,64.2971104037337
437,1436982231246,69.0178439166528
438,1436982232212,70.1556595325096
439,1436982232625,74.6966312013475
440,1436982233030,58.128161700579
441,1436982233480,63.732423483225
442,1436982233915,68.0836714834036
443,1436982234386,60.9991480317466
444,1436982234865,50.2354494363926
445,1436982235332,56.692289034004
446,1436982235888,64.7498422731241
447,1436982236472,66.9367021827636
448,1436982236959,57.3062595315158
449,1436982237433,57.6093828836825
450,1436982237938,64.6513129320237
451,1436982238532,57.4017217806303
452,1436982239083,68.529178933668
453,1436982239681,52.4629980818588
454,1436982240112,51.6562502397033
455,1436982240561,72.3463546363086
456,1436982240937,59.7993534115525
457,1436982241298,65.4409087386256
458,1436982241652,67.3921013989448
459,1436982242008,71.0357923958813
460,1436982242361,63.5112406195752
461,1436982242712,65.3145991856378
462,1436982243056,55.0522472757164
463,1436982243501,69.0737391547774
464,1436982243993,55.7480547617885
465,1436982245460,62.9904165954119
466,1436982245795,62.3409654387041
467,1436982246143,62.376783363674
468,1436982246495,70.5454261963504
469,1436982246846,66.8667289978406
470,1436982247199,66.8479695790292
471,1436982248637,64.3118880065232
472,1436982249085,66.9966895681515
473,1436982249602,56.1400074436403
474,1436982250091,55.6734016440095
475,1436982250727,57.3786694689983
476,1436982251338,61.6628309486145
477,1436982251760,56.520518911308
478,1436982252125,58.0972031427177
479,1436982252490,57.3383252244196
480,1436982252862,58.0819025866678
481,1436982253219,58.9853728482456
482,1436982253597,58.5392938920222
483,1436982253963,56.5938459972594
484,1436982254348,57.0111356770208
485,1436982254769,50.6517165919125
486,1436982255287,52.7759437516492
487,1436982255836,56.8605196681144
488,1436982256188,48.1130176860192
489,1436982256539,54.5908790684454
490,1436982256892,55.3228666699826
491,1436982257246,53.8504546277291
492,1436982257604,58.1781239189887
493,1436982257980,56.5401912407966
494,1436982258324,63.922856347075
495,1436982259727,64.2156372684085
496,1436982260128,70.57288621752
497,1436982260647,58.2647603224421
498,1436982262136,57.4404763423303
499,1436982262511,52.3979356506138
500,1436982262870,52.7931967673141
501,1436982263220,63.1464319124326
502,1436982263571,65.9213636917131
503,1436982263952,64.9430378519053
504,1436982264319,67.6137576366551
505,1436982264765,65.7740327677252
506,1436982265313,57.0241449286802
507,1436982265859,63.149063911285
508,1436982266462,55.7899593176281
509,1436982266915,57.3854851832393
510,1436982267262,56.9306139904562
511,1436982267633,55.4077288189522
512,1436982267983,54.0712185456385
513,1436982268334,51.3976303145305
514,1436982268678,52.1350309629252
515,1436982269808,54.8185685705479
516,1436982270253,54.2598164356054
517,1436982270724,66.2813074975732
518,1436982271241,57.3494145681065
519,1436982271753,62.4729795328584
520,1436982272160,65.7127953415326
521,1436982272675,60.5475605005234
522,1436982273209,55.6571968202876
523,1436982273688,69.247012451969
524,1436982274259,77.1922560426103
525,1436982274797,68.930972987195
526,1436982275363,57.3921413429106
527,1436982275897,64.7448420834234
528,1436982276451,48.8803658362551
529,1436982277077,67.8152225490741
530,1436982277445,53.7874701120727
531,1436982277792,54.8890777605045
532,1436982278231,55.772981917493
533,1436982278741,66.9410463263956
534,1436982279345,49.3774738615412
535,1436982279896,67.2323846757207
536,1436982280490,54.5317642688211
537,1436982281033,64.8786516523772
538,1436982281537,53.582503751638
539,1436982282007,65.5327927475473
540,1436982282540,58.7683258673131
541,1436982283102,56.4219122520362
542,1436982283668,57.2169136880317
543,1436982284194,64.1017172549331
544,1436982284636,64.9580815109077
545,1436982285038,57.945262058614
546,1436982285496,49.8838880841097
547,1436982286001,57.8914923179481
548,1436982286624,51.3561753102663
549,1436982287164,69.924321815907
550,1436982287735,53.5881957027755
551,1436982288113,54.5221871942549
552,1436982288574,67.3963241048231
553,1436982289098,58.7398685743262
554,1436982289651,68.3744274016313
555,1436982290098,64.5962418647693
556,1436982290560,59.7326622874342
557,1436982291042,51.2885169343799
558,1436982291730,54.4145388067163
559,1436982292286,67.3197273951655
560,1436982292848,50.407962102958
561,1436982293438,62.6672883171595
562,1436982293906,51.5767617824501
563,1436982294357,53.0199289350768
564,1436982294909,58.2363908924556
565,1436982295458,53.5259995360589
566,1436982296013,60.5784769767939
567,1436982296575,53.5994602827687
568,1436982297124,54.2465781866298
569,1436982297672,56.3741063869418
570,1436982298202,58.320279809729
571,1436982298610,49.9395823038626
572,1436982298994,55.4001724738961
573,1436982299429,52.8683284572938
574,1436982299930,65.6095016422538
575,1436982300557,51.645470385569
