id,attr_time,attr_db
1,1436899623139,3.71841870974844
2,1436899623873,50.6669649593995
3,1436899624613,29.5920727656472
4,1436899625349,26.5647484977107
5,1436899626102,0.539954031375093
6,1436899626831,33.0517741455425
7,1436899627563,47.0128292982855
8,1436899628283,43.0802682917705
9,1436899629063,0.981036844851714
10,1436899629786,11.0943679482115
11,1436899630580,39.1369594915502
12,1436899631296,54.9207925315556
13,1436899632052,37.2219321926421
14,1436899632765,39.5744641276548
15,1436899633475,50.340337155444
16,1436899634177,54.3561861444536
17,1436899634750,63.7669929347439
18,1436899635427,56.9545706257079
19,1436899636146,61.9255911069543
20,1436899636878,38.6652300202486
21,1436899637595,37.1032846972664
22,1436899638328,10.8359476000443
23,1436899639064,43.3034435158991
24,1436899639796,58.1124829368397
25,1436899640590,35.6605675163461
26,1436899641326,6.99252515326961
27,1436899642087,43.2484820809103
28,1436899642802,31.5134578741006
29,1436899643523,53.2842590560586
30,1436899644271,64.2049572432147
31,1436899645081,43.9322347820416
32,1436899645806,14.3397522567727
33,1436899646519,32.816895427958
34,1436899647243,47.8754070908941
35,1436899647989,45.5898569161768
36,1436899648709,46.9736328947919
37,1436899649419,53.8479308798479
38,1436899650145,42.3686010405898
39,1436899650881,32.6378672038652
40,1436899651616,56.8196354367829
41,1436899652354,48.8693999926931
42,1436899653101,1.40048096680587
43,1436899653836,59.1551589601567
44,1436899654566,38.9420809971869
45,1436899655152,14.4517593050679
46,1436899655805,43.5591299588431
47,1436899656530,52.0931648767333
48,1436899657258,37.6649510336952
49,1436899658011,30.256226798528
50,1436899658730,54.0067517408037
51,1436899659395,56.7484760677693
52,1436899660110,36.4775068668617
53,1436899660838,41.8126936960859
54,1436899661570,39.4196173351798
55,1436899662313,3.1739498167167
56,1436899663045,39.4657444345692
57,1436899663765,44.4565125728567
58,1436899664491,61.2793502583012
59,1436899665247,40.4354223916197
60,1436899665976,37.9117803227903
61,1436899666674,47.7369357511678
62,1436899667392,36.0466742602115
63,1436899668115,1.14289040328558
64,1436899668842,37.3797620473937
65,1436899669569,42.5629876028339
66,1436899670304,40.9622230983943
67,1436899671046,45.7280206950296
68,1436899671757,39.9178921650865
69,1436899672474,54.774977421398
70,1436899673168,50.8054193080292
71,1436899673889,57.4876906993864
72,1436899674568,5.61088646300747
73,1436899675238,41.4689011366633
74,1436899676014,42.5874876884897
75,1436899676739,37.4995321091388
76,1436899677457,0.561190935935153
77,1436899678195,43.3451332547607
78,1436899678879,3.34143821465498
79,1436899680186,19.9454692139468
80,1436899680910,26.7948910315696
81,1436899681627,13.1297264442346
82,1436899682348,2.07560521469752
83,1436899683102,54.5266897731405
84,1436899683829,41.3396495212338
85,1436899684581,58.8185919308467
86,1436899685319,53.7701514753037
87,1436899686087,38.9022959374111
88,1436899686818,34.8720715352657
89,1436899687541,30.6383272148063
90,1436899688270,10.8493566765307
91,1436899689017,44.4036514697839
92,1436899689743,55.3209503844188
93,1436899690471,21.0700027414016
94,1436899691214,44.667824156514
95,1436899691970,39.4178017378813
96,1436899692663,63.2293096516943
97,1436899693386,52.8334473686412
98,1436899694096,52.9025204121048
99,1436899694788,54.0247108371513
100,1436899695386,50.8875426916337
101,1436899696021,41.4249687870501
102,1436899696669,59.5637119301107
103,1436899697396,55.0161902034439
104,1436899698117,59.3178755435107
105,1436899698846,30.2787393044707
106,1436899699555,58.3156895623884
107,1436899700259,37.8182479961295
108,1436899701010,8.06232206240168
109,1436899701724,48.8732590460605
110,1436899702436,45.9876488810231
111,1436899703165,40.4113651045415
112,1436899703908,48.3763961408888
113,1436899704632,45.1503338843462
114,1436899705400,25.9187813771105
115,1436899706130,27.6741506428903
116,1436899706866,2.6144377738781
117,1436899707600,50.6172543038641
118,1436899708358,14.8461594862378
119,1436899709098,50.7781768369506
120,1436899709825,42.0313289205176
121,1436899710561,29.7881069353757
122,1436899711282,25.7192250430543
123,1436899712029,38.9888462002616
124,1436899712765,38.0260182237698
125,1436899713507,17.1900700747955
126,1436899714241,35.5808865936823
127,1436899715125,45.4030565278381
128,1436899715861,38.1006606314841
129,1436899716585,29.4347724253401
130,1436899717311,42.6269470539147
131,1436899718059,54.3508348286371
132,1436899718804,44.2550048100354
133,1436899719506,21.1206648424227
134,1436899720172,47.2112650808088
135,1436899721010,56.1352465136708
136,1436899721733,48.5648339559529
137,1436899722455,52.1785071555269
138,1436899723168,48.8639401027348
139,1436899723884,44.6228490450262
140,1436899724585,44.0596626778174
141,1436899725310,46.2027905222143
142,1436899726148,56.7710553393392
143,1436899726882,25.3237094968179
144,1436899727615,51.0243043925705
145,1436899728339,39.8882688700328
146,1436899729084,36.7765629631609
147,1436899729815,43.1593133985652
148,1436899730528,50.5389965509185
149,1436899731268,46.1753495176698
150,1436899732023,35.610321339277
151,1436899732744,49.6772787450127
152,1436899733474,39.0569054707738
153,1436899734206,54.4006788234758
154,1436899734977,22.3809167421131
155,1436899736255,11.0276953079452
156,1436899737541,43.6963369047
157,1436899738247,38.6119602353873
158,1436899738999,43.646745003731
159,1436899739693,39.2933982454658
160,1436899740350,32.8557608036081
161,1436899741139,6.36306147013137
162,1436899741858,39.8101426815377
163,1436899743684,39.9184517094331
164,1436899744362,45.1861291644645
165,1436899745132,37.0237905553129
166,1436899745835,34.6875185779372
167,1436899746509,43.3719640994109
168,1436899747221,34.9727655501018
169,1436899747972,35.6254002157567
170,1436899748689,51.1714967074259
171,1436899750668,41.1622257608215
172,1436899751349,14.6937987585957
173,1436899752101,10.1142150427944
174,1436899752826,7.2837652327442
175,1436899753537,44.678975705386
176,1436899755514,35.9501441931705
177,1436899756195,37.6345548450235
178,1436899756938,34.1450609600652
179,1436899757659,32.5256370612567
180,1436899758384,17.2231542811637
181,1436899759127,36.1859090892473
182,1436899759817,39.7273762855039
183,1436899760463,34.0885801248673
184,1436899761181,42.4263706881319
185,1436899761916,45.7015866879015
186,1436899762645,1.27550198126584
187,1436899763376,37.245956293455
188,1436899764105,45.6998117227965
189,1436899764845,45.3294829268648
190,1436899765569,30.6732345394615
191,1436899766288,40.0757788267368
192,1436899767026,33.6716950627041
193,1436899767737,32.9983153297096
194,1436899768449,42.0669001361848
195,1436899769165,38.395607729951
196,1436899769891,49.006100229967
197,1436899770615,50.0792654956014
198,1436899771349,2.37351938127674
199,1436899772114,44.4604897681939
200,1436899772819,42.039742819376
201,1436899773476,46.8850570241005
202,1436899774146,42.1221574581951
203,1436899774862,51.0617495840735
204,1436899775592,44.9714522995224
205,1436899776244,20.2483503519984
206,1436899776996,52.4705679553052
207,1436899777704,60.3264131140989
208,1436899778415,43.1946291600005
209,1436899779157,24.0009061460081
210,1436899779958,49.8282319279394
211,1436899780590,65.2679594140715
212,1436899781281,58.8569507933772
213,1436899782032,53.0183494249252
214,1436899782756,48.7728506882089
215,1436899783463,30.0579404296699
216,1436899784153,58.8924492214888
217,1436899784855,52.345395215874
218,1436899785568,39.1568283007653
219,1436899786288,40.161901390593
220,1436899787044,47.7247254786912
221,1436899787733,50.5523875025824
222,1436899788397,44.3975479367539
223,1436899789062,30.6183392602579
224,1436899789805,49.9784128741057
225,1436899790554,41.9702115401764
226,1436899791281,26.2237771343589
227,1436899792045,33.1775665578738
228,1436899792774,13.5687481342864
229,1436899793499,49.4438907876479
230,1436899794236,23.6940607817607
231,1436899794982,50.7769949198651
232,1436899795673,23.5364107509084
233,1436899796321,6.2648222743162
234,1436899797078,35.9496705981991
235,1436899797796,35.4781029361093
236,1436899798535,8.862475787706
237,1436899799258,29.0651748604438
238,1436899800016,41.2961019240497
239,1436899800694,23.4499182053456
240,1436899801423,20.1603257732346
241,1436899802157,31.6394138030055
242,1436899802853,32.1956362412855
243,1436899803585,41.1235396560008
244,1436899804329,38.1464285768384
245,1436899805057,42.0593909346575
246,1436899805809,59.9979697611361
247,1436899806468,42.0216758122978
248,1436899807168,40.0435232601697
249,1436899807814,38.0859635275989
250,1436899808512,36.7811383151318
251,1436899809248,41.6970694535844
252,1436899810007,37.7672935433466
253,1436899810735,32.3776381490966
254,1436899811441,43.0654308558684
255,1436899812183,45.4200064645137
256,1436899812906,49.5588400424489
257,1436899813613,46.8043156547534
258,1436899814357,34.3827305217882
259,1436899815097,36.7256224228571
260,1436899815761,30.8249552430303
261,1436899816345,36.6120314168558
262,1436899817044,9.14475610761171
263,1436899817745,37.448636954503
264,1436899818460,43.8872737109315
265,1436899819168,0.814195899891974
266,1436899819945,3.30099834947597
267,1436899820613,32.9458206091025
268,1436899821353,37.5123346926088
269,1436899822087,6.56381135689543
270,1436899822824,20.7960036802037
271,1436899823543,43.8939970211533
272,1436899824290,39.9846474598479
273,1436899825081,45.0659065089965
274,1436899825797,35.6182707927642
275,1436899826532,18.1579129559356
276,1436899827245,1.53816228669149
277,1436899827984,46.9852705587255
278,1436899828710,53.254216821401
279,1436899829400,38.4456838042324
280,1436899830124,1.52728452742625
281,1436899830835,24.2405365674277
282,1436899831567,11.9282736326557
283,1436899832267,33.1540558963187
284,1436899833073,49.2772630134438
285,1436899833786,63.1980772989233
286,1436899834510,44.7927102454079
287,1436899835218,68.3305483284108
288,1436899836069,43.4520541403391
289,1436899836732,58.5126250683953
290,1436899837427,60.7425783749781
291,1436899838148,42.0134314641295
292,1436899838877,44.1194532592871
293,1436899839575,34.5920327435642
294,1436899840365,48.6782080980085
295,1436899841108,41.4717903178103
296,1436899841845,32.9062684649331
297,1436899842571,36.8088861765292
298,1436899843309,53.4039334859309
299,1436899844060,37.9917235348287
300,1436899844779,42.6295538085689
301,1436899845513,57.9314966905647
302,1436899846243,57.7843860040423
303,1436899847013,50.1555816395762
304,1436899847749,39.2451499958764
305,1436899848464,43.3514530024281
306,1436899849164,51.530635405972
307,1436899849855,48.8527907478721
308,1436899850574,11.7060360700733
309,1436899851302,19.8689346555739
310,1436899852061,30.107568724615
311,1436899852791,54.1353070551898
312,1436899853513,29.0178293680382
313,1436899854243,46.3800049012582
314,1436899855003,36.1677450866706
315,1436899855744,35.4609469582565
316,1436899856467,43.1904392069827
317,1436899857171,54.9385658094429
318,1436899857889,54.3835659381286
319,1436899858619,50.5719936079094
320,1436899859329,60.0998673695604
321,1436899859994,53.1119809414078
322,1436899860683,34.0998367650482
323,1436899861409,45.5242604495558
324,1436899862126,44.2869666686524
325,1436899862854,52.0602532085541
326,1436899863606,48.1668918152876
327,1436899864348,43.1431603263952
328,1436899865092,30.5434136150783
329,1436899865876,23.5625261518234
330,1436899866611,25.4418601469111
331,1436899867356,50.3426657259303
332,1436899868110,48.7788732752323
333,1436899868850,41.8413644823321
334,1436899869567,48.8359773108939
335,1436899870352,8.3315696288646
336,1436899871095,0.539954031375093
337,1436899871843,1.49540966729511
338,1436899872587,8.9969090281713
339,1436899873292,54.3921574527448
340,1436899873992,47.681580027594
341,1436899874753,49.6084222841601
342,1436899875486,41.9719846060588
343,1436899876202,1.20629133907571
344,1436899877549,32.9287947283772
345,1436899878252,42.9173150996849
346,1436899878948,60.349058843875
347,1436899879679,56.2661955340953
348,1436899880464,46.5782436938874
349,1436899881149,35.8906880348044
350,1436899881865,0.912956368512905
351,1436899882603,18.2290112393072
352,1436899883326,32.6944938005119
353,1436899884068,35.4997179395199
354,1436899884791,50.3485096973964
355,1436899885549,47.2938163928636
356,1436899886257,49.4576703652338
357,1436899887004,41.0069595983536
358,1436899887752,39.6595570050441
359,1436899888468,36.8058434247359
360,1436899889188,33.9170667569755
361,1436899889991,50.4355040023047
362,1436899890708,37.4944437714636
363,1436899891356,49.1885573318181
364,1436899892098,42.163816188273
365,1436899892852,40.5443076899569
366,1436899893592,47.9679941234387
367,1436899894330,49.0790787657841
368,1436899895063,42.1737954567541
369,1436899895789,5.31513207696011
370,1436899896514,4.45666037640386
371,1436899897197,34.516477028984
372,1436899897941,40.9023311680187
373,1436899898680,53.140523753061
374,1436899899394,30.0425109258869
375,1436899900162,36.4869951606009
376,1436899900828,12.708162255722
377,1436899901482,9.26189833244907
378,1436899902202,40.5227037429034
379,1436899902939,8.84748248192183
380,1436899903696,42.5325395185109
381,1436899904418,37.2003902750133
382,1436899905203,38.9209969118012
383,1436899905933,46.6246541226731
384,1436899906676,49.0649906336396
385,1436899907411,39.1639589287909
386,1436899908127,33.641759571511
387,1436899908856,40.3295715633158
388,1436899909572,50.4837042723232
389,1436899910359,29.6857138228615
390,1436899911086,51.8251212965181
391,1436899911822,39.792523905342
392,1436899912590,22.2041791112672
393,1436899913303,39.5954794997154
394,1436899914053,21.3612941693668
395,1436899914822,44.7408405178189
396,1436899915571,28.4278533336954
397,1436899916285,0.7790303067652
398,1436899916955,30.8785784255523
399,1436899917605,42.3728769958002
400,1436899918325,21.0453377553707
401,1436899919075,27.4540377815967
402,1436899919849,38.2895166286944
403,1436899920604,40.3651367389387
404,1436899921336,39.4266126913258
405,1436899922075,24.3512580599202
406,1436899922815,0.802223617309974
407,1436899923543,48.9569378532165
408,1436899924261,50.6346436630427
409,1436899924980,66.5657350144032
410,1436899925743,52.5993572224924
411,1436899926470,38.4216703102882
412,1436899927200,24.2102712990146
413,1436899927920,38.0745634242388
414,1436899928717,69.119255778118
415,1436899929447,69.6757441897066
416,1436899930176,61.5267802348517
417,1436899930903,57.5662335165874
418,1436899931646,60.0517031201638
419,1436899932371,57.6724557503252
420,1436899933118,44.0520779200006
421,1436899933840,41.0391740500783
422,1436899934601,50.7515733777288
423,1436899935380,53.4480452090478
424,1436899936110,48.3701361273614
425,1436899936861,55.7295748058341
426,1436899937502,50.9031820421477
427,1436899938176,56.8953739544759
428,1436899938900,47.4823326551019
429,1436899939667,45.3928013056354
430,1436899940391,46.8600336937406
431,1436899941720,33.2026542196421
432,1436899942444,41.6137890958481
433,1436899943176,46.8266276273851
434,1436899943896,51.1164642715657
435,1436899944632,63.7633674009721
436,1436899945377,49.5369417624637
437,1436899946058,43.9589947272395
438,1436899946798,52.5218614564514
439,1436899947535,52.1816893853731
440,1436899948274,35.8236055903159
441,1436899949029,50.4596010621477
442,1436899949772,41.3506136603093
443,1436899950511,33.0871962221584
444,1436899952208,6.09469594568056
445,1436899952931,1.87476644881471
446,1436899953702,43.1217187606474
447,1436899954424,45.9375403761429
448,1436899955158,43.6683629582559
449,1436899955889,16.5487747782606
450,1436899956669,55.2482476895989
451,1436899957390,45.0973634708528
452,1436899958051,52.3874594878256
453,1436899958795,64.0143425212041
454,1436899959520,52.6844170392893
455,1436899960302,61.2492291186577
456,1436899961023,61.3783583759092
457,1436899961730,39.7866813412025
458,1436899962403,18.6711453500435
459,1436899963136,70.8788762020041
460,1436899963842,56.1028688943426
461,1436899964575,53.4275084088234
462,1436899965262,48.0436588050019
463,1436899966893,50.4325552893656
464,1436899967575,45.18727199299
465,1436899968304,18.8133766268409
466,1436899969049,7.72968031174813
467,1436899969781,4.07075223977233
468,1436899970512,6.5692974627592
469,1436899971232,32.0476306369808
470,1436899971944,12.7008863452305
471,1436899972680,11.6137029261168
472,1436899973406,52.4426690016398
473,1436899974042,49.624192734369
474,1436899975365,30.8281272901367
475,1436899976047,40.2868452815704
476,1436899976798,36.3467554066221
477,1436899977541,29.0743817436275
478,1436899978225,47.6124754152308
479,1436899978895,36.2866117115279
480,1436899979599,44.8812744612833
481,1436899980348,45.1173637726017
482,1436899981076,40.6400386456585
483,1436899981833,52.8703368469828
484,1436899982515,59.2196112881347
485,1436899983215,56.4633280007243
486,1436899983928,44.6578053632852
487,1436899984706,39.3659824537428
488,1436899985436,55.6736055727478
489,1436899986176,55.5406329241821
490,1436899986893,51.5683066414961
491,1436899987649,37.1706324860342
492,1436899988379,10.7734978757799
493,1436899989091,9.7496496999471
494,1436899989823,9.7109543348393
495,1436899990548,27.6144685665052
496,1436899991256,8.0485274250911
497,1436899991987,4.98823352050407
498,1436899992748,28.0538172647328
499,1436899993470,27.8834945645731
500,1436899994193,54.7415124907287
501,1436899994894,17.7422937615019
502,1436899995666,44.9843801423091
503,1436899996403,31.8207662448022
504,1436899997127,36.8593689656769
505,1436899997861,14.0861316215909
506,1436899998498,29.4885049605767
507,1436899999174,5.92988260296139
508,1436899999906,36.2564075691575
509,1436900000664,15.5481698579334
510,1436900001389,40.4560430992382
511,1436900002061,46.7147115520779
512,1436900002701,37.9955100265675
513,1436900003439,54.8283442158143
514,1436900004147,55.3208331973083
515,1436900004872,43.8946561431988
516,1436900005623,63.101925495889
517,1436900006347,58.0498052954658
518,1436900007099,37.6153723597838
519,1436900007816,60.5884957093183
520,1436900008531,36.2918354196613
521,1436900009255,46.2188716178163
522,1436900009974,26.0701701419856
523,1436900010726,38.0814216303382
524,1436900011455,34.5295933903168
525,1436900012185,35.1488759774312
526,1436900012903,31.5724520034497
527,1436900013649,40.5782440412051
528,1436900014375,55.4801713494749
529,1436900015102,18.8853022833278
530,1436900015853,38.5852310883211
531,1436900016584,47.555496789989
532,1436900017312,36.2590491233487
533,1436900018059,32.9297360237624
534,1436900018741,34.8030048183131
535,1436900019474,29.294177040598
536,1436900020202,55.572259471588
537,1436900020927,54.1906365474396
538,1436900021671,50.7441720266748
539,1436900022357,54.5657680403529
540,1436900023043,32.5680040883992
541,1436900023797,10.2030923900064
542,1436900024541,15.3655518399854
543,1436900025260,7.27183961721108
544,1436900026063,14.5677526384755
545,1436900026797,44.239632572593
546,1436900027546,32.982612750023
547,1436900028270,50.6092938625932
548,1436900029010,18.2329151759704
549,1436900029781,11.0312834065764
550,1436900030581,55.8886401673518
551,1436900031297,15.6797591252403
552,1436900032058,27.2517301545173
553,1436900032795,37.5246341897372
554,1436900033529,7.19808230508919
555,1436900034248,0.591219970643809
556,1436900034987,43.0830188269083
557,1436900035752,10.1602018307057
558,1436900036470,11.7253457874409
559,1436900037188,7.33857576714258
560,1436900037919,13.8830858967856
561,1436900038616,7.17800308458322
562,1436900039329,2.98808203323319
563,1436900040034,28.2705540011689
564,1436900040730,2.154980737671
565,1436900041447,2.15818113919507
566,1436900042153,2.69959423672893
567,1436900042839,37.3398151897417
568,1436900043585,4.00387306710044
569,1436900044259,2.81673838007035
570,1436900044965,3.69907373596571
571,1436900045735,5.85325622449812
572,1436900046456,11.0484371009591
573,1436900047168,18.8096729550667
574,1436900047940,45.0343205975507
575,1436900048698,33.5435969569546
