id,attr_time,attr_db
1,1436899623084,4.82608841262582
2,1436899623832,43.7335141764999
3,1436899624529,29.4781894640199
4,1436899625286,32.3139985526212
5,1436899626019,5.96287685664348
6,1436899626792,37.8562573610734
7,1436899627539,36.8948474841838
8,1436899628315,38.2148512290265
9,1436899629061,6.20096896022134
10,1436899629779,22.4663571096399
11,1436899630506,44.8863715527747
12,1436899631239,45.0578703007206
13,1436899631965,54.1468508661875
14,1436899632805,64.2123061140954
15,1436899633532,44.0255301557956
16,1436899634264,53.5336862015154
17,1436899634990,62.8103787799451
18,1436899635757,45.1733458372585
19,1436899636523,52.0846111303226
20,1436899637093,58.2181814240235
21,1436899637730,45.356775910251
22,1436899638449,11.2972554475975
23,1436899639158,36.5408177320337
24,1436899639877,34.2521853535798
25,1436899640585,39.762578970365
26,1436899641238,10.5066790803403
27,1436899641940,36.1847327504771
28,1436899642714,42.4012171247324
29,1436899643402,50.9554412273644
30,1436899644126,54.9563956343692
31,1436899644860,44.3799035107499
32,1436899645605,36.5459264390934
33,1436899646343,20.6077217149045
34,1436899647118,22.0180015115872
35,1436899647835,61.8817544770012
36,1436899648554,46.0163234855325
37,1436899649279,44.6511129382404
38,1436899650038,57.6217931964607
39,1436899650818,50.1917400176353
40,1436899651545,46.5462833598013
41,1436899652270,50.1389459662308
42,1436899653021,4.32701782584545
43,1436899653771,38.6495660268366
44,1436899654478,42.0184166935687
45,1436899655205,18.9743942634115
46,1436899655923,48.6622209197207
47,1436899656646,52.5951902875372
48,1436899657313,37.0897141801726
49,1436899658018,25.6803944247074
50,1436899658776,58.7109940590667
51,1436899659528,48.8960728234464
52,1436899660236,30.0233189811874
53,1436899660895,33.5777508004981
54,1436899661625,37.429374192976
55,1436899662358,20.0715497440584
56,1436899663111,30.6630980313826
57,1436899663845,42.0631751387693
58,1436899664551,57.680761997423
59,1436899665294,40.1396048682081
60,1436899666059,46.5509739004333
61,1436899666801,40.8094909875318
62,1436899667532,9.80927711020574
63,1436899668261,4.69862280886922
64,1436899668998,41.6401464652508
65,1436899669758,29.6628103021488
66,1436899670495,43.6023323048377
67,1436899671225,38.0770312729331
68,1436899671962,40.7140949749776
69,1436899672746,45.3248061870741
70,1436899673541,42.6985852362193
71,1436899674259,19.7876942974141
72,1436899674993,29.4030652611453
73,1436899675764,38.0851170140639
74,1436899676483,42.9340518615262
75,1436899677135,49.3907333604018
76,1436899678458,44.592044688357
77,1436899679158,12.4671310424251
78,1436899679806,13.0079098819806
79,1436899680480,41.9977022990606
80,1436899681197,43.7779529976022
81,1436899681862,0.539954031375093
82,1436899682608,3.95337356649037
83,1436899683332,35.445399868004
84,1436899684068,41.8100436377881
85,1436899684810,52.7232108432931
86,1436899685540,31.4528239570529
87,1436899686262,43.304784338945
88,1436899686986,25.3204517605866
89,1436899687755,28.3834492629484
90,1436899688548,54.4604744728764
91,1436899689179,50.7610863718606
92,1436899689843,54.6748871701928
93,1436899690577,34.3819208400936
94,1436899691323,62.2691302263501
95,1436899692056,45.597495392021
96,1436899692800,67.7003432314428
97,1436899693538,58.0925199660329
98,1436899694294,48.6410132360852
99,1436899695051,45.9502651496553
100,1436899695795,44.8101005317963
101,1436899696516,50.3011301855772
102,1436899697214,37.4996863577001
103,1436899697857,46.1647944765727
104,1436899698704,36.7491184548399
105,1436899699374,30.1077405011546
106,1436899700089,41.7979688138333
107,1436899700812,14.9051873274708
108,1436899701526,20.307162232628
109,1436899702188,32.5074841846635
110,1436899702901,28.9295797603205
111,1436899703747,33.8293240037239
112,1436899704473,40.0100266211478
113,1436899705208,13.745800929157
114,1436899705907,3.71017391592761
115,1436899706661,33.3824213367696
116,1436899707380,34.7811312616823
117,1436899708128,45.5800029652271
118,1436899708856,46.3699099168978
119,1436899709584,12.8025320267701
120,1436899710337,50.7195603498076
121,1436899711053,6.42819021274995
122,1436899711783,51.4576656115588
123,1436899712485,45.3447596955536
124,1436899713218,14.7506560455617
125,1436899713942,24.9641871426913
126,1436899714693,40.2273542864109
127,1436899715459,27.4688105250134
128,1436899716132,41.709514962389
129,1436899717743,47.6276322951005
130,1436899718411,37.0851330859316
131,1436899719132,37.6728516016711
132,1436899719843,44.0450913242213
133,1436899720557,50.9531547274616
134,1436899721271,56.4020301507577
135,1436899721916,26.9103867666084
136,1436899723694,54.4680566975079
137,1436899724362,46.71630656207
138,1436899725088,45.7506100417831
139,1436899725841,29.054522421846
140,1436899726562,29.1620067772692
141,1436899727340,41.9607371087852
142,1436899728138,0.218455834760329
143,1436899728879,42.7004711326158
144,1436899730957,50.4552434611079
145,1436899731706,51.4937014871657
146,1436899732439,42.3648006864511
147,1436899733192,41.7937193554128
148,1436899733912,56.3743790256891
149,1436899735292,39.4303669068451
150,1436899736041,0.7790303067652
151,1436899736776,32.7528106865935
152,1436899737469,40.3397526278466
153,1436899738168,39.5398588579444
154,1436899738903,46.0071672198597
155,1436899739654,43.7173950803825
156,1436899740381,36.3310595694903
157,1436899741126,20.8398795930493
158,1436899741888,42.8644370299102
159,1436899742645,39.9658535686089
160,1436899743374,33.6566871834049
161,1436899744097,45.9345348564603
162,1436899744833,26.9332639628037
163,1436899745573,40.2078492750483
164,1436899746302,41.1030540683066
165,1436899747044,36.9066059319178
166,1436899747800,41.8570644614383
167,1436899748545,45.9170673584579
168,1436899749257,11.7892536563464
169,1436899749974,43.0040793508205
170,1436899750739,41.3337602462241
171,1436899751461,9.7603663774732
172,1436899752169,11.4585418127097
173,1436899752889,8.06327726429834
174,1436899753634,36.5607795315207
175,1436899754359,35.9852151276463
176,1436899755088,5.28638060791724
177,1436899755851,24.7686284312676
178,1436899756589,42.9770829396966
179,1436899757312,21.1414332662717
180,1436899758058,40.9368893783961
181,1436899758669,6.85243214336899
182,1436899759284,38.8279124935469
183,1436899759871,42.0983165475764
184,1436899760572,34.2581998717739
185,1436899761293,48.4216087121268
186,1436899761989,48.1962394954872
187,1436899762671,2.41627200067313
188,1436899763368,38.8508570544959
189,1436899764096,46.63107593912
190,1436899764820,38.0413428376536
191,1436899765520,38.8382959721556
192,1436899766180,38.8127573311859
193,1436899766916,37.454197439533
194,1436899767625,45.9052819691423
195,1436899768276,42.0346619446564
196,1436899768986,39.766499937305
197,1436899769747,24.2543705176775
198,1436899770454,10.0034671910901
199,1436899771179,5.68267972434275
200,1436899771917,43.6818416626664
201,1436899772678,44.4192312477411
202,1436899773385,44.9998349293394
203,1436899774110,46.3925301537375
204,1436899774856,54.9127694493652
205,1436899775591,53.8345445308506
206,1436899776327,43.2058077450006
207,1436899777064,47.7760402566367
208,1436899777848,59.8772576851278
209,1436899778558,61.3228514043972
210,1436899779208,52.1230101232532
211,1436899779949,46.6374344849493
212,1436899780695,48.5789038696105
213,1436899781427,40.288368012145
214,1436899782164,40.1501829269569
215,1436899782815,40.3947517779378
216,1436899783508,39.4339786838925
217,1436899784254,48.1360398501103
218,1436899784989,47.9569038838961
219,1436899785750,55.7135986775019
220,1436899786475,43.9200843195398
221,1436899787241,43.6515413487842
222,1436899787996,30.1656632154903
223,1436899788715,36.6618663076975
224,1436899789371,43.5710306697994
225,1436899790084,44.848057531847
226,1436899790816,24.8951240449954
227,1436899791538,37.123089987062
228,1436899792264,33.618327747511
229,1436899792973,22.3582984271686
230,1436899793726,38.0519678689734
231,1436899794459,17.9644528659425
232,1436899795194,28.8847018958624
233,1436899795916,21.957621622699
234,1436899796700,16.29645098877
235,1436899797417,38.1872959743467
236,1436899798141,30.581186920949
237,1436899798898,17.66045707943
238,1436899799569,24.7198141607254
239,1436899800277,0.631808313837817
240,1436899801030,29.3829673460485
241,1436899801844,19.667546821329
242,1436899802524,38.2789086901185
243,1436899803225,42.5609519640548
244,1436899803948,30.6367727525016
245,1436899804767,36.9344075130561
246,1436899805495,26.1906903624077
247,1436899806230,6.36088380497519
248,1436899806965,54.4187186751826
249,1436899807734,55.1415048782768
250,1436899808474,38.723225253064
251,1436899809203,48.1949906174489
252,1436899810053,47.869787941165
253,1436899810696,29.7956543398908
254,1436899811376,46.5908759807006
255,1436899812107,1.57727539715031
256,1436899812857,44.9191652766666
257,1436899813598,56.207373429654
258,1436899814318,39.4496057177332
259,1436899815057,46.6533386381752
260,1436899815820,35.2504978003891
261,1436899816517,39.7493848950041
262,1436899817267,37.6655584741414
263,1436899818002,4.06768356295607
264,1436899818770,32.7905548328401
265,1436899819495,1.93135224919199
266,1436899820209,6.75116359172822
267,1436899820931,21.8935008618546
268,1436899821694,24.1722889338731
269,1436899822377,27.3792616402458
270,1436899823046,33.6104655359425
271,1436899823791,37.2568724041673
272,1436899824538,24.3062748545423
273,1436899825264,24.8620579771661
274,1436899825979,22.5035263495369
275,1436899826745,3.21370224142697
276,1436899827461,37.171059371335
277,1436899828186,53.2978876926869
278,1436899828900,40.5455894350521
279,1436899829661,41.4735534509484
280,1436899830366,28.8491944883738
281,1436899831090,35.7129519582674
282,1436899831821,22.6461561645337
283,1436899832567,41.7986848132209
284,1436899833303,36.5393616131008
285,1436899834025,57.5325722302216
286,1436899834796,59.7720771366624
287,1436899835513,63.8748102637359
288,1436899836259,49.2772469014617
289,1436899836998,58.9838127831958
290,1436899837751,46.9006855571667
291,1436899838552,30.2198727072096
292,1436899839266,38.987725589379
293,1436899839950,33.3129903649459
294,1436899840710,55.8390559789492
295,1436899841402,46.9342222525717
296,1436899842087,28.2130461256885
297,1436899842797,39.9840963504046
298,1436899843457,45.3654434776467
299,1436899844272,25.6741589774088
300,1436899844984,52.1688814211112
301,1436899845741,53.3728558450461
302,1436899846469,54.1195481203846
303,1436899847195,45.2969666718082
304,1436899847922,44.6681016466085
305,1436899848720,41.8767295407938
306,1436899849449,44.4083663067997
307,1436899850176,36.1388127459616
308,1436899850905,37.9015669212981
309,1436899851620,30.5338243505506
310,1436899852360,46.1572256845937
311,1436899853087,26.7037796596598
312,1436899853811,15.325020629508
313,1436899854528,25.5923058395726
314,1436899855259,8.12216487723397
315,1436899855973,41.3461731289487
316,1436899856744,46.5506802634905
317,1436899857477,51.7152044761166
318,1436899858191,28.6946572360655
319,1436899858891,48.2327830900019
320,1436899859614,41.0332045070023
321,1436899860339,55.9101121490115
322,1436899861066,46.9499897278161
323,1436899861838,40.7600982777083
324,1436899862630,53.2148060343404
325,1436899863421,33.3125851779709
326,1436899864147,44.7902056185841
327,1436899864871,46.6476334211214
328,1436899865603,44.6121978234018
329,1436899866322,35.307071913651
330,1436899867067,19.3232956334904
331,1436899867815,31.8573406606177
332,1436899868624,48.4036633568049
333,1436899869352,50.8606835855468
334,1436899870074,41.3825938844775
335,1436899870820,37.2807651780725
336,1436899871563,40.2192254093969
337,1436899872245,11.0749466744896
338,1436899872902,10.8236246092435
339,1436899873686,28.3555905607222
340,1436899874455,43.1915731805624
341,1436899875181,40.9742684341504
342,1436899875902,24.1726777094809
343,1436899876650,30.3624112733905
344,1436899877379,39.2419376733679
345,1436899878121,42.2299587623506
346,1436899878867,60.5957465592826
347,1436899879456,47.9911475041664
348,1436899880133,43.5526222063037
349,1436899880843,45.9530946357286
350,1436899881581,4.71499583848282
351,1436899882295,41.006372652226
352,1436899882990,17.0424969182747
353,1436899883751,37.8376003452981
354,1436899884475,46.1963300281652
355,1436899885206,23.3300645355907
356,1436899885930,38.259701965879
357,1436899886673,41.2713532911881
358,1436899887393,44.4371664127865
359,1436899888120,42.8389298324238
360,1436899888848,32.6978464016987
361,1436899889590,36.3005498161625
362,1436899890325,40.9571896143926
363,1436899891077,29.7886061177475
364,1436899891822,37.5024394415755
365,1436899892573,40.6839793911566
366,1436899893292,35.172932129138
367,1436899894025,35.8987633362853
368,1436899894792,38.5996210785209
369,1436899895519,35.2640211130633
370,1436899896237,4.39998226574661
371,1436899896979,3.15674538397045
372,1436899897742,43.846074139422
373,1436899898462,7.81982125130413
374,1436899899135,37.949737385715
375,1436899899792,43.2827617076698
376,1436899900518,25.3937014964586
377,1436899901238,3.338681226967
378,1436899901970,44.7347620439728
379,1436899902702,36.9561030113582
380,1436899903377,37.0683888742717
381,1436899904045,9.42094828730409
382,1436899904799,38.5815968805287
383,1436899905526,38.4341602169189
384,1436899906236,41.487530544705
385,1436899906967,59.5015546205293
386,1436899907709,54.4023544600334
387,1436899908427,61.2146091376302
388,1436899909156,60.9609227019554
389,1436899909895,58.8166811483394
390,1436899910626,37.7382873515339
391,1436899911354,40.5514003778251
392,1436899912088,42.5416955132948
393,1436899912820,25.1865461607752
394,1436899913549,28.4218800075929
395,1436899914285,1.24012152648891
396,1436899915023,40.2849361211105
397,1436899915782,16.3587520729686
398,1436899916516,27.5894760927429
399,1436899917264,37.2616480752322
400,1436899917989,10.1770700802478
401,1436899918733,7.75783830065564
402,1436899919527,1.92171731793442
403,1436899920184,12.9542044960347
404,1436899922101,23.490981552719
405,1436899922829,1.68593532415788
406,1436899923519,52.0085319356721
407,1436899924201,54.933828167687
408,1436899924913,56.9311305720179
409,1436899925673,41.0167553361627
410,1436899926389,52.4833715646609
411,1436899927114,40.4635604302787
412,1436899927839,51.9748956721071
413,1436899928576,50.7037965502456
414,1436899929307,62.1653847440718
415,1436899930038,69.1488716519956
416,1436899930754,59.5055689810393
417,1436899932210,44.6701104672984
418,1436899932885,35.9855823885477
419,1436899933596,44.9345801870042
420,1436899934338,35.3673729552651
421,1436899935075,40.9176374170134
422,1436899935794,66.3452456566556
423,1436899936535,40.8833316675703
424,1436899937265,37.8841104024348
425,1436899938002,56.616586666796
426,1436899938752,43.0419078019017
427,1436899939639,48.0645576852133
428,1436899940267,44.4732160959248
429,1436899940999,44.9860104045132
430,1436899941759,39.5355565032162
431,1436899942476,42.6832468060905
432,1436899943211,43.6058292044782
433,1436899943948,49.7773418018131
434,1436899944663,49.6978532875412
435,1436899945356,35.0050996630946
436,1436899947053,46.5156408226538
437,1436899947747,43.0531414692285
438,1436899948467,21.4075444509717
439,1436899949189,23.1266120845958
440,1436899949912,43.2592003122124
441,1436899950653,44.0702523476865
442,1436899951371,37.6608754916027
443,1436899952101,18.990099768439
444,1436899952826,3.52958758509161
445,1436899953571,46.209015629826
446,1436899954278,35.6724699625776
447,1436899955735,31.6299167869361
448,1436899956439,33.8312928674684
449,1436899957176,38.8747432498688
450,1436899957899,46.3656241823899
451,1436899958660,60.4550292308171
452,1436899959374,47.0305324986547
453,1436899960067,69.5163572510131
454,1436899960698,49.9691163417788
455,1436899961382,53.5977293166281
456,1436899962117,32.6470604313458
457,1436899962850,59.9362862482005
458,1436899963589,56.2319125052191
459,1436899964284,52.3294253569616
460,1436899965039,42.5384739158009
461,1436899965776,20.7674440241864
462,1436899966501,57.8706127081451
463,1436899967218,28.8017008349953
464,1436899967949,26.5380889502277
465,1436899968685,43.8882961176854
466,1436899969453,30.447743738619
467,1436899970176,41.8782313398617
468,1436899970916,12.392730169897
469,1436899971665,27.080914800827
470,1436899972391,33.5359319089017
471,1436899973123,42.5670522442107
472,1436899973860,20.8531407336746
473,1436899974600,42.5517668073359
474,1436899975340,34.5075835061885
475,1436899976067,27.4362404509702
476,1436899976812,26.5456987027915
477,1436899977566,23.8310959998785
478,1436899978273,44.5474968221262
479,1436899978944,36.0443460908885
480,1436899979723,25.8732484532172
481,1436899980394,43.5049286057346
482,1436899981122,40.742451509999
483,1436899981849,64.3525660018389
484,1436899982586,62.5463339064074
485,1436899983316,56.0280052147563
486,1436899984030,41.2730119228441
487,1436899984634,5.44898185498527
488,1436899985335,39.7172322345419
489,1436899986062,62.3930465193835
490,1436899986821,57.5396329368295
491,1436899987545,53.4771612159476
492,1436899988291,37.0743231555485
493,1436899989031,48.0292295942018
494,1436899989807,51.069167532045
495,1436899990548,32.0716942452281
496,1436899991291,19.0578485383891
497,1436899992048,9.37537538911647
498,1436899992774,34.1910109487748
499,1436899993500,36.6759621074832
500,1436899994247,48.2083235112786
501,1436899994989,22.710567177941
502,1436899995744,33.8206495911641
503,1436899996481,31.6987702414789
504,1436899997201,17.7859663898959
505,1436899997928,56.7163643610267
506,1436899998685,37.0085664950284
507,1436899999410,23.3148701529593
508,1436900000120,40.2015949388695
509,1436900000706,11.5566568918995
510,1436900001359,45.8211728300079
511,1436900002076,52.4268931280256
512,1436900002806,25.6864817371994
513,1436900003542,47.5990109693377
514,1436900004252,45.5057661561425
515,1436900005025,51.5013737649581
516,1436900005801,35.2886918027598
517,1436900006516,42.1244941445562
518,1436900007238,54.0384720532085
519,1436900007939,61.6885531138941
520,1436900008696,49.6231714655288
521,1436900009423,59.7084846917944
522,1436900010146,59.9034804183357
523,1436900010862,43.2146434668491
524,1436900011608,60.8807193750188
525,1436900012326,59.1626839113292
526,1436900013062,43.2877846758176
527,1436900013807,45.2628586634745
528,1436900014547,41.2015243218314
529,1436900015275,14.5739658672467
530,1436900016012,49.9448647166676
531,1436900016781,51.9793095465937
532,1436900017520,22.5925129251193
533,1436900018256,16.9858187623403
534,1436900019061,55.2773479071541
535,1436900019795,21.271876061932
536,1436900020537,43.3918385931539
537,1436900021143,39.7616914171533
538,1436900021846,34.4426393645506
539,1436900022600,25.0297161546645
540,1436900023275,53.2861489730338
541,1436900023966,41.6808054845147
542,1436900024717,32.3153196251486
543,1436900025402,8.70211052730949
544,1436900026129,31.1003010065441
545,1436900026854,34.1754560463119
546,1436900027590,26.1749529505357
547,1436900028297,44.362841059423
548,1436900029097,19.2052788715982
549,1436900029818,8.11989636423712
550,1436900030582,52.3345399415121
551,1436900031305,12.839098498366
552,1436900032030,21.8279563492362
553,1436900032765,32.1796664771636
554,1436900033503,7.25118904359218
555,1436900034171,3.3287488192088
556,1436900034852,43.007784716606
557,1436900035610,9.93922215235508
558,1436900036328,6.81209910535056
559,1436900037072,7.2215444441606
560,1436900037788,18.1386359760139
561,1436900038541,3.70567345487456
562,1436900039276,7.99833749002544
563,1436900040025,28.3739362302304
564,1436900040815,2.1203203180226
565,1436900041457,27.330053297922
566,1436900042139,3.21370224142697
567,1436900042855,18.9785566502071
568,1436900044337,2.79925090857636
569,1436900045013,0.934835195290234
570,1436900045782,15.1502408427947
571,1436900046521,18.358472739411
572,1436900047238,33.5067656947119
573,1436900047958,40.8358910243735
574,1436900048716,28.044389113053
575,1436900049411,27.1874869273041
