id,attr_time,attr_db
1,1436899622852,21.1060701292495
2,1436899623345,59.9138402878593
3,1436899624839,35.632275687786
4,1436899625287,40.4977770270688
5,1436899625776,49.4549508407395
6,1436899626272,1.35136176160862
7,1436899626755,43.1951173805493
8,1436899627249,36.0234339656014
9,1436899627749,49.4494958969056
10,1436899628241,51.6552744774291
11,1436899628680,4.05676956726397
12,1436899629112,1.59954692124502
13,1436899629521,33.0142360367213
14,1436899629922,13.095235755289
15,1436899631301,55.8510858865799
16,1436899631733,44.747740132965
17,1436899632198,41.451170169889
18,1436899632671,58.4417956240494
19,1436899633155,30.1069328937464
20,1436899633642,38.1026780616082
21,1436899634110,42.4678312315183
22,1436899634598,66.0101938574127
23,1436899634973,75.7914793397869
24,1436899636231,70.5415960941637
25,1436899636680,68.3014597810669
26,1436899637160,41.890185557038
27,1436899637661,31.5465502484862
28,1436899638108,16.8420230202349
29,1436899638464,36.9402849467396
30,1436899638887,69.3350662030148
31,1436899639329,57.515774644517
32,1436899639863,30.5269890608877
33,1436899640326,40.0764643043932
34,1436899640758,22.0522537605663
35,1436899641224,19.2468258496586
36,1436899641707,44.064300233002
37,1436899642083,49.1059269916176
38,1436899642527,56.0698193702563
39,1436899643020,63.5826911048157
40,1436899643583,60.7349980231536
41,1436899644066,67.6713108503513
42,1436899644575,54.7713689287532
43,1436899645078,59.94559272528
44,1436899645655,50.3952501088283
45,1436899646017,26.9956899882975
46,1436899646443,19.5689785273912
47,1436899646896,43.5330478246043
48,1436899647373,58.3359829991003
49,1436899647823,69.66349336257
50,1436899648310,45.801329186084
51,1436899648790,47.7740478923082
52,1436899649280,62.716246395597
53,1436899649788,57.0456835192523
54,1436899650268,62.243989490095
55,1436899650713,64.2935257855441
56,1436899651119,68.2269938279038
57,1436899651559,69.1556941387966
58,1436899652047,62.3286752939729
59,1436899652562,68.8413902708658
60,1436899653112,23.7756866460115
61,1436899653609,45.2845880540284
62,1436899654097,66.3036230192021
63,1436899654570,59.6210888171523
64,1436899655065,55.0583677481496
65,1436899655472,28.0734529734662
66,1436899655851,48.945250815215
67,1436899656306,40.0396351582217
68,1436899656810,56.4559275445979
69,1436899657294,38.2003095768741
70,1436899657778,39.0851246397469
71,1436899658270,33.3103352535284
72,1436899658672,56.506392183824
73,1436899659105,50.345339615259
74,1436899659562,67.5901231336288
75,1436899660013,49.8871249941612
76,1436899660498,58.4777633038173
77,1436899660970,34.6826207493186
78,1436899661539,36.5566235839985
79,1436899661994,31.3978337881151
80,1436899662363,60.9636414661031
81,1436899662798,63.6283832194146
82,1436899663273,62.886573244054
83,1436899663773,58.4379072010568
84,1436899664264,65.1655614513527
85,1436899664749,67.4673040959678
86,1436899665228,48.6256789764589
87,1436899665734,48.2009413233838
88,1436899666161,43.1463827027634
89,1436899666705,45.6071746420144
90,1436899667198,39.3321128380071
91,1436899667697,12.5937695313766
92,1436899668209,6.68631545158746
93,1436899668694,59.545604198523
94,1436899669165,41.8887264496119
95,1436899669642,41.4586055964661
96,1436899670170,31.8472596168852
97,1436899670647,40.4167573917297
98,1436899671165,46.1025729843528
99,1436899671642,45.5657395846706
100,1436899672096,33.3081514225051
101,1436899672503,55.5828779627148
102,1436899672939,62.9500906108273
103,1436899673411,63.1503873496861
104,1436899673881,59.9422345136487
105,1436899674332,17.5671367894956
106,1436899674779,42.3530131660748
107,1436899675251,41.4151726286703
108,1436899675696,39.044594875835
109,1436899676084,39.1761488677122
110,1436899676496,42.3506024170132
111,1436899676979,14.3357300804387
112,1436899677467,8.06846674295193
113,1436899677973,10.5793483166444
114,1436899678460,50.2461291925267
115,1436899678940,1.49540966729511
116,1436899679432,1.56031076355805
117,1436899679920,7.1156340542474
118,1436899680471,43.1176931286611
119,1436899680911,32.218013708641
120,1436899681352,59.1242924770212
121,1436899681825,1.06619330770254
122,1436899682244,23.8825148212597
123,1436899682688,15.829644369642
124,1436899683176,62.4866179982188
125,1436899683740,37.6568543398493
126,1436899684225,59.9668558992258
127,1436899684674,73.3580761920825
128,1436899685046,64.7461048190371
129,1436899685461,60.5857545725484
130,1436899685914,55.883773763644
131,1436899686411,50.7571817650513
132,1436899686896,38.6272320052148
133,1436899687385,16.2548565823793
134,1436899687869,38.7376507702763
135,1436899688344,41.3778007108127
136,1436899688836,45.2680165392501
137,1436899689325,54.2298108112623
138,1436899689799,58.0675201828465
139,1436899690271,54.8936086022057
140,1436899690711,43.5254763252005
141,1436899691131,49.5579566357934
142,1436899691622,46.7540563142532
143,1436899692122,53.1545835690156
144,1436899692617,73.4414332116958
145,1436899693036,70.7992515891838
146,1436899693454,55.9940872878327
147,1436899693919,60.3745167761171
148,1436899694583,47.2864632358702
149,1436899695009,63.8277963741317
150,1436899695342,59.2058662138708
151,1436899695785,64.4672885585494
152,1436899696288,64.83918799778
153,1436899696774,56.8551761263338
154,1436899697168,63.2335069298733
155,1436899697641,68.9493667390222
156,1436899698134,68.7054683625892
157,1436899698623,50.4101058086928
158,1436899699059,63.3293900982269
159,1436899699491,67.6930068410964
160,1436899699970,54.6649350528962
161,1436899700431,49.7160385269989
162,1436899700871,36.5327135203148
163,1436899701386,60.8173324049058
164,1436899701878,58.6440018844568
165,1436899702355,60.1360101864009
166,1436899702841,55.9237192926344
167,1436899703319,40.0388011077351
168,1436899703772,62.8619980669951
169,1436899704143,59.8824644793556
170,1436899704471,48.4915739185591
171,1436899704919,42.1478746708926
172,1436899705405,31.7277848661036
173,1436899705837,6.68583278149548
174,1436899706291,13.203237215229
175,1436899706783,5.524574294806
176,1436899707268,34.1355800176939
177,1436899707714,47.1130888832881
178,1436899708157,39.8300786473634
179,1436899708639,69.0248647399863
180,1436899709146,51.1427841471905
181,1436899709650,33.1921080472549
182,1436899710150,62.5191652875302
183,1436899710639,59.3739865165823
184,1436899711140,42.8350778701179
185,1436899711641,50.1062029529422
186,1436899712141,50.7151635173505
187,1436899712642,46.6220353017218
188,1436899713152,21.9282858054191
189,1436899713640,31.0204838959357
190,1436899714097,62.1666364277664
191,1436899714476,62.0739892448643
192,1436899714889,50.7341891605972
193,1436899715331,53.7844356132718
194,1436899715792,35.6345420928337
195,1436899716283,41.7245660235231
196,1436899716763,36.5932785451253
197,1436899717248,31.8028820170436
198,1436899717762,42.5970111357999
199,1436899718249,39.3325355950582
200,1436899718725,40.8044198786908
201,1436899719136,36.8400711551747
202,1436899719628,19.1634942646512
203,1436899720108,32.3769946918308
204,1436899720617,53.4170792902626
205,1436899721052,63.3536682046646
206,1436899721497,71.4717404221895
207,1436899721958,31.9926698674208
208,1436899722451,62.0681396671021
209,1436899722929,55.9241315999711
210,1436899723423,60.2604551482282
211,1436899723938,46.61379461188
212,1436899724449,45.6913861955967
213,1436899724923,53.3871443975246
214,1436899725271,54.1381814814689
215,1436899725705,48.4805537962609
216,1436899726196,62.5729460434986
217,1436899726643,61.4343635842193
218,1436899727043,47.4518073775227
219,1436899727498,61.494858189987
220,1436899727976,7.94171022959682
221,1436899728503,39.750804934357
222,1436899728976,47.5884078298349
223,1436899729507,43.8772226414073
224,1436899729906,55.5321233823357
225,1436899730350,61.066492305828
226,1436899730827,62.1056965327175
227,1436899731367,53.7719283556727
228,1436899731860,48.9917677929832
229,1436899732370,57.8702898222774
230,1436899732862,47.8819355747471
231,1436899733364,40.6265468234288
232,1436899733842,41.7216956316088
233,1436899734350,44.3144718039057
234,1436899734823,38.4629621662103
235,1436899735319,39.1105128885704
236,1436899735763,4.78984255214636
237,1436899736149,35.569557218631
238,1436899736575,67.4658146708888
239,1436899737039,59.3869140110086
240,1436899737546,57.7839917967303
241,1436899738026,58.7673985181852
242,1436899738576,56.372467907034
243,1436899739026,54.0336918945012
244,1436899739470,41.8544530475874
245,1436899739974,40.3453639125441
246,1436899740474,42.3340517679966
247,1436899740923,41.2090746349836
248,1436899741286,5.6497626965358
249,1436899741713,32.8289937007745
250,1436899742208,40.7178898845345
251,1436899742690,34.242514155948
252,1436899743179,44.889715284089
253,1436899743671,31.6339501090048
254,1436899744171,66.2528515086893
255,1436899744678,67.5116496327422
256,1436899745190,49.2821511942188
257,1436899745630,42.8872644690167
258,1436899746054,38.9119256724967
259,1436899746511,38.7731568828001
260,1436899747014,40.5235563040101
261,1436899747553,34.7159755671169
262,1436899748083,35.264535700917
263,1436899748599,60.0412792630416
264,1436899749082,29.1591106996546
265,1436899749613,42.6992994586002
266,1436899750082,43.7595331132347
267,1436899750526,43.0270513026528
268,1436899751009,40.5737534270604
269,1436899751528,60.3419237917421
270,1436899752017,17.7930310830766
271,1436899752499,17.0304595021402
272,1436899753012,13.4536651897447
273,1436899753481,59.2052464327039
274,1436899753982,61.3728602920143
275,1436899754480,53.5711668399976
276,1436899754948,21.2038615844692
277,1436899755453,42.6809018564344
278,1436899755941,37.9065169505826
279,1436899756420,43.1407059441792
280,1436899756883,43.9125081525795
281,1436899757300,20.2599813522442
282,1436899757736,43.5979553060288
283,1436899758220,25.0002261552611
284,1436899758659,11.6068213083353
285,1436899759129,37.5996412560157
286,1436899759629,51.2173758716909
287,1436899760125,48.1622754259485
288,1436899760675,44.6064737755311
289,1436899761115,44.121055396851
290,1436899761475,48.833504133984
291,1436899761906,49.2731049469655
292,1436899762377,21.2689431274934
293,1436899762856,2.16823658097343
294,1436899763345,43.062293825163
295,1436899763829,45.5470967447206
296,1436899764309,25.2318501867912
297,1436899764810,38.2288801265914
298,1436899765290,12.3690229044799
299,1436899765694,41.8533253206513
300,1436899766104,32.8823955773091
301,1436899766582,37.2488564697391
302,1436899767040,37.0289381659351
303,1436899767492,40.7694934636235
304,1436899767942,44.4302691623885
305,1436899768419,45.3559399142231
306,1436899768899,38.353018133641
307,1436899769379,70.2664475526816
308,1436899769825,56.8995714727054
309,1436899770309,29.4697405305975
310,1436899770698,42.3730904013384
311,1436899771161,28.6105953864357
312,1436899771624,31.6968750850173
313,1436899772117,44.0235583170713
314,1436899772609,28.8924837539922
315,1436899773106,41.2117119135642
316,1436899773592,61.2301844269681
317,1436899774081,68.500583522968
318,1436899774582,34.92943526696
319,1436899775081,47.8281270684488
320,1436899775568,54.6774721095741
321,1436899776062,40.5452922131304
322,1436899776566,66.1629615544661
323,1436899777058,61.6784368318888
324,1436899777557,57.9061690898517
325,1436899778004,58.1111304758177
326,1436899778423,55.0318479338599
327,1436899778876,58.516222126332
328,1436899779363,39.8967906576435
329,1436899779841,62.3637733354904
330,1436899780304,43.10719098019
331,1436899780685,45.7527573908046
332,1436899781087,39.2445157812888
333,1436899781528,53.9124239190273
334,1436899781988,65.4392067353551
335,1436899782482,62.2279081153706
336,1436899782920,58.7457867637051
337,1436899783365,65.6604571293821
338,1436899783840,65.1752691900301
339,1436899784313,60.7918893301293
340,1436899784818,58.3342705983552
341,1436899785299,48.9835730182422
342,1436899785706,64.9397232681169
343,1436899786151,62.3255167831703
344,1436899786612,66.1447927024245
345,1436899787102,58.3523340575097
346,1436899787589,45.0223243384088
347,1436899788036,32.9196947730305
348,1436899788446,63.5262129564417
349,1436899788882,64.8143006727018
350,1436899789343,66.9432177060303
351,1436899789826,63.5477807257456
352,1436899790334,66.8734633032053
353,1436899790782,35.6646658251501
354,1436899791208,37.1723443579944
355,1436899791688,34.9423817861426
356,1436899792159,28.0615232818639
357,1436899792639,14.9889152837657
358,1436899793130,11.3047468877725
359,1436899793626,63.1771372250637
360,1436899794049,52.6470044768732
361,1436899794522,30.958313844409
362,1436899795030,63.9596738090534
363,1436899795513,40.929719512359
364,1436899795990,44.2181140848428
365,1436899796516,40.1930752880095
366,1436899797013,40.932873198142
367,1436899797502,38.135717766012
368,1436899798005,39.9197598852677
369,1436899798517,15.2430418832767
370,1436899798995,60.5809375759742
371,1436899799390,50.547646844895
372,1436899799799,43.5564593433076
373,1436899800276,7.29610189454547
374,1436899800766,19.1677920432741
375,1436899801297,21.8891915726886
376,1436899801742,19.5270544744576
377,1436899802089,6.85838505268162
378,1436899802500,30.0095242310823
379,1436899802935,33.910836514768
380,1436899803401,34.9173007764865
381,1436899803848,33.1481917238795
382,1436899804288,28.394015296213
383,1436899804783,35.185280492852
384,1436899805268,19.8754918321942
385,1436899805735,49.8383543320584
386,1436899806197,21.5680291045885
387,1436899806641,15.7264921240296
388,1436899807109,59.4492851709765
389,1436899807594,56.7885784745595
390,1436899808093,18.9489345591005
391,1436899808555,39.2058950205697
392,1436899808950,44.54180738522
393,1436899809358,49.2942697722859
394,1436899809801,45.2234562486314
395,1436899810283,46.846120420852
396,1436899810739,33.9140118657802
397,1436899811214,42.3735862445393
398,1436899811685,10.8717243290076
399,1436899812158,38.1553572515441
400,1436899812667,58.6609779262815
401,1436899813174,62.3919626113493
402,1436899813646,46.2657184128882
403,1436899814152,50.675724704416
404,1436899814662,47.20457140592
405,1436899815075,41.5505823698867
406,1436899815570,15.010212939646
407,1436899816062,38.1822585245483
408,1436899816581,39.1744985663578
409,1436899817071,16.0509593711512
410,1436899817541,62.8818704781873
411,1436899818041,9.90521404090653
412,1436899818562,39.2940717571789
413,1436899819071,2.45793102363898
414,1436899819556,1.72785572231409
415,1436899820036,6.19324179094175
416,1436899820857,43.5052507321726
417,1436899822771,31.4782177424898
418,1436899823241,9.62251006140604
419,1436899823726,53.8799241754252
420,1436899824196,32.3652060031285
421,1436899824687,41.8586975460792
422,1436899825093,48.2041830563151
423,1436899825593,20.5358580581708
424,1436899826068,34.8182291950603
425,1436899826469,30.5785530953861
426,1436899826909,11.6725477942688
427,1436899827385,39.067362895803
428,1436899827865,41.5402805092518
429,1436899828350,70.3528613746994
430,1436899828823,61.1979203659157
431,1436899829309,45.4676755923735
432,1436899829791,29.1828689056334
433,1436899830276,28.0567121518764
434,1436899830753,38.7214720839518
435,1436899831204,18.3366164393391
436,1436899832523,68.6303229726117
437,1436899832952,62.2026856763978
438,1436899833386,45.6021076010307
439,1436899833866,73.0765553678923
440,1436899834351,58.2570723220246
441,1436899834821,71.0310032859057
442,1436899835320,77.6969429530419
443,1436899835829,71.4391831304625
444,1436899836383,67.0471710703585
445,1436899836826,66.3421934326069
446,1436899837239,61.2632991055143
447,1436899837699,64.2509478287653
448,1436899838166,45.185249872377
449,1436899838691,44.3316722909223
450,1436899839184,35.072600068457
451,1436899839693,27.109085545858
452,1436899840192,38.7466719359312
453,1436899840625,59.6629692874774
454,1436899841003,48.3424149249079
455,1436899841444,38.8583228715252
456,1436899841894,28.0368491047418
457,1436899842333,44.941332870394
458,1436899842797,35.8806489836921
459,1436899843271,57.3375158885305
460,1436899843774,60.6268316236938
461,1436899844354,49.5949490601174
462,1436899844814,56.0013440992458
463,1436899845221,52.9441387506918
464,1436899845664,62.7375778409189
465,1436899846142,55.3855953874751
466,1436899847540,61.5669196739542
467,1436899847984,29.7830187550567
468,1436899848453,43.3974655560421
469,1436899848959,33.7066388953034
470,1436899849475,45.9119554434847
471,1436899849988,57.4969171562281
472,1436899850501,14.1249706331586
473,1436899851009,38.133258407269
474,1436899851450,15.6669463921213
475,1436899851914,68.7936209608748
476,1436899852315,68.2390823434871
477,1436899852740,56.8690475743292
478,1436899853199,63.5752842614083
479,1436899853654,60.0363563040524
480,1436899854047,57.927525738736
481,1436899854490,30.9948750198402
482,1436899854915,37.8499843809008
483,1436899855342,39.1604607118778
484,1436899856852,67.1490859058576
485,1436899857262,68.4040271017805
486,1436899857798,62.203063901964
487,1436899858277,65.2080130567469
488,1436899858727,58.1427909927268
489,1436899859114,64.9937723951595
490,1436899859481,69.5662132862178
491,1436899859927,65.0247340160451
492,1436899860371,56.1549521731421
493,1436899860775,39.6141905670054
494,1436899861121,46.8943494894659
495,1436899861511,39.6012608768373
496,1436899861890,60.7883401529435
497,1436899862249,59.9371419764815
498,1436899862710,54.9650818087625
499,1436899863188,53.3613432025684
500,1436899863675,56.4333382263167
501,1436899864155,61.7736183085673
502,1436899864626,42.117741087633
503,1436899865127,34.9498930910755
504,1436899865588,65.0037747038271
505,1436899865995,53.3969918922693
506,1436899866413,54.6537218536125
507,1436899866866,62.2953306423507
508,1436899867321,63.4804066737935
509,1436899867795,60.46593856523
510,1436899868284,59.1827751666073
511,1436899868782,58.0102903088347
512,1436899869272,50.8230227443046
513,1436899869753,43.4429863389492
514,1436899870267,24.8364235058283
515,1436899870751,59.5222679618242
516,1436899871241,9.53714366105268
517,1436899871710,3.41698166380635
518,1436899872097,7.13843555687546
519,1436899872474,5.05857661916431
520,1436899872948,23.090598036234
521,1436899873423,68.1391146651523
522,1436899873884,60.0914980283373
523,1436899874365,63.8503081499764
524,1436899874846,64.6530905949332
525,1436899875354,59.3677228847293
526,1436899875829,37.0723283734602
527,1436899876345,7.15698841519261
528,1436899876741,2.51846011624273
529,1436899877192,26.0825659052654
530,1436899877702,40.8425702457323
531,1436899878189,42.4487120401026
532,1436899878675,72.9166937662569
533,1436899879149,75.3584239127275
534,1436899879652,72.6680732740566
535,1436899880146,67.714172996308
536,1436899880651,50.1352502680258
537,1436899881128,40.3032887214801
538,1436899881596,5.2707263743362
539,1436899882045,9.29491572684076
540,1436899882449,42.2550506092543
541,1436899882858,21.6817229624662
542,1436899883304,32.1956496150408
543,1436899883789,38.7569992769604
544,1436899884288,62.9813143912985
545,1436899884788,65.9738989894666
546,1436899885277,37.1245258170812
547,1436899885775,61.449284822553
548,1436899886224,62.2343627077002
549,1436899886572,48.4951200531958
550,1436899887001,55.6902352953699
551,1436899887425,60.4928199616821
552,1436899887883,53.376567212535
553,1436899888382,55.6373409981859
554,1436899888862,30.6336785646008
555,1436899889363,37.8045541133126
556,1436899889835,40.592060062195
557,1436899890281,63.4602345847607
558,1436899890762,49.0069915340408
559,1436899891246,56.1011771351111
560,1436899891745,53.6847201486597
561,1436899892221,47.7647081677917
562,1436899892732,51.3408372413664
563,1436899893245,59.4263338173001
564,1436899893693,57.1537763108699
565,1436899894094,56.8859174761041
566,1436899894542,40.399719603545
567,1436899894999,42.0519638471939
568,1436899895519,45.6175254325523
569,1436899896073,10.402362476453
570,1436899896589,22.875841537763
571,1436899897080,26.3249001072589
572,1436899897607,42.3823609546031
573,1436899897962,42.854934029072
574,1436899898368,12.5216620253977
575,1436899898823,72.2868228360837
576,1436899899322,42.0563607880651
