id,attr_time,attr_db
1,1436899622940,14.2835890298744
2,1436899623678,41.1610403669756
3,1436899624445,42.7456261322544
4,1436899625161,54.0814890751052
5,1436899625880,24.0753596708427
6,1436899626624,46.1416212054236
7,1436899627359,16.0030681513189
8,1436899628086,49.3765884115817
9,1436899628672,5.40180681449693
10,1436899629358,19.5515925384111
11,1436899630093,15.652206658025
12,1436899630887,54.3006942974944
13,1436899631626,42.5290715844992
14,1436899632343,45.9513442033242
15,1436899633091,46.1843625314492
16,1436899633843,72.6223452476504
17,1436899634592,67.1134207255658
18,1436899635310,55.6084012495219
19,1436899636030,70.3904830523786
20,1436899636775,67.2434234189788
21,1436899637521,53.8495656513299
22,1436899638248,7.10191226681531
23,1436899638979,51.8033679076158
24,1436899639695,37.8431970270849
25,1436899640463,43.2953825969885
26,1436899641158,23.461529335711
27,1436899641885,59.7452956643211
28,1436899642628,34.6763721558607
29,1436899643368,58.4357847162191
30,1436899644058,60.2548281475627
31,1436899644794,68.1485347048273
32,1436899645532,41.3371860151351
33,1436899646270,10.9634171313668
34,1436899647013,43.3730032299524
35,1436899647776,60.0679025940606
36,1436899648503,49.6157344293802
37,1436899649226,49.1457475162154
38,1436899649949,67.5296106313897
39,1436899650681,55.2234893897632
40,1436899651398,59.844579665339
41,1436899652141,69.0552152257721
42,1436899652851,29.348329035516
43,1436899653509,41.8864359127524
44,1436899654221,59.8266941051444
45,1436899654961,18.767130905477
46,1436899655712,45.3457133538505
47,1436899656415,54.5476673987876
48,1436899657154,62.3161475888387
49,1436899657885,21.9280034820099
50,1436899658640,55.8343226803309
51,1436899659398,60.5022252342183
52,1436899660166,41.5278369814697
53,1436899660907,38.3684654152413
54,1436899661674,32.7296294199583
55,1436899662396,55.5848038471774
56,1436899663148,54.6341928305723
57,1436899663942,63.2685309455061
58,1436899664605,66.6244039754518
59,1436899665288,41.3064144006625
60,1436899666081,45.4270378439444
61,1436899666809,43.6189270971146
62,1436899668804,42.7301884066627
63,1436899669465,54.5957927470867
64,1436899670169,32.3148880672529
65,1436899670919,45.2156364827751
66,1436899671659,44.1649507603001
67,1436899672368,33.2057303253497
68,1436899673076,61.9300862709802
69,1436899673795,52.7996125226111
70,1436899675225,42.9009110414898
71,1436899675895,32.6722961063571
72,1436899676596,42.4163051180998
73,1436899677329,39.8512656871045
74,1436899678061,10.3236109762131
75,1436899678818,16.8927951326644
76,1436899679552,10.0317323954604
77,1436899680271,25.8197658274043
78,1436899680940,21.0391042126879
79,1436899682385,24.9206387074765
80,1436899683078,62.1889022271454
81,1436899683839,44.5060727988144
82,1436899684568,59.7145663485766
83,1436899685304,58.6694126783213
84,1436899685981,52.0574385470492
85,1436899687335,8.46637433642048
86,1436899688030,46.2245336873856
87,1436899688890,44.6934001183551
88,1436899689541,54.4729084541776
89,1436899690240,59.2323519625813
90,1436899690982,2.36081713869633
91,1436899691723,51.3005653154375
92,1436899692458,71.8311593102028
93,1436899693188,62.8564031832976
94,1436899693868,48.4566848648719
95,1436899694585,47.2223453676741
96,1436899695333,57.2877326504725
97,1436899696062,58.3529396085052
98,1436899696856,56.5127227686665
99,1436899697580,66.094467362956
100,1436899698321,46.4596681229121
101,1436899699056,62.0051435123554
102,1436899699810,58.5758859332831
103,1436899700542,62.7295248571347
104,1436899701306,53.8018219639555
105,1436899702045,50.6217218085816
106,1436899702812,48.9563838931025
107,1436899703553,47.3731476293291
108,1436899704308,53.5813921055103
109,1436899705062,36.5781971255481
110,1436899705802,6.72543341833885
111,1436899706541,20.061679712954
112,1436899707267,37.8027106962314
113,1436899707971,54.0235980411668
114,1436899708678,63.0653688059064
115,1436899709384,40.3483908787821
116,1436899710071,45.602895055658
117,1436899710831,42.1116671598422
118,1436899711541,38.125712355067
119,1436899712266,56.0102445773749
120,1436899712990,36.0300345833381
121,1436899713700,37.5283756924191
122,1436899714428,68.0199577759351
123,1436899715159,36.4738274741511
124,1436899715884,40.7391946284052
125,1436899716593,35.3995490241155
126,1436899717321,40.4419693699958
127,1436899718060,63.123528193595
128,1436899718896,57.481663664432
129,1436899719613,15.010212939646
130,1436899720233,59.6129250582672
131,1436899720918,40.5264262378141
132,1436899721645,62.7070144247699
133,1436899722366,53.4544593433632
134,1436899723099,55.9933031737891
135,1436899723858,60.4279641816524
136,1436899724568,45.3490000696333
137,1436899725294,49.2087437374521
138,1436899726038,56.7100056736618
139,1436899726708,48.6353105951966
140,1436899727428,45.5531154675949
141,1436899728151,8.99467620904431
142,1436899728893,45.4430170968374
143,1436899729611,42.0273708456087
144,1436899730272,62.9141061980783
145,1436899731010,47.2236068999883
146,1436899731794,57.2249865721496
147,1436899732574,48.2714885611297
148,1436899733184,45.5582466141465
149,1436899733878,46.6517208075739
150,1436899734614,8.46945002690373
151,1436899735355,40.3776415761294
152,1436899736079,18.3081611747701
153,1436899736822,59.1438533127366
154,1436899737551,47.3793475764459
155,1436899738278,49.1562740382863
156,1436899738945,47.7116914454757
157,1436899739555,44.0952372739502
158,1436899740300,35.7593176713554
159,1436899741053,43.2828649258794
160,1436899741798,37.8763154960601
161,1436899742522,28.8391940244177
162,1436899743277,40.846349830373
163,1436899744007,56.2050999482709
164,1436899744662,67.0232387498378
165,1436899745401,48.8782550604184
166,1436899746127,34.4974371165336
167,1436899746858,34.0656954580623
168,1436899747581,25.2101857768543
169,1436899748320,49.9162581014422
170,1436899749045,36.7012896489331
171,1436899749685,46.2539024501354
172,1436899750379,46.2412238343834
173,1436899751113,36.5845612586649
174,1436899751853,13.9195961896041
175,1436899752594,17.4770062517213
176,1436899753317,12.4935246205395
177,1436899754061,60.498088689731
178,1436899754759,55.7124603623496
179,1436899755479,42.4304971580112
180,1436899756189,40.0742788456694
181,1436899756899,45.266359785999
182,1436899757660,34.045312543752
183,1436899758430,18.2082000656689
184,1436899759161,41.0013182404206
185,1436899759890,42.0173978291098
186,1436899760612,44.5984769118804
187,1436899761332,51.8594963908238
188,1436899762078,52.7181112041287
189,1436899762823,7.50522391728008
190,1436899763465,21.6646189889069
191,1436899764199,39.4363873398971
192,1436899764925,52.8039525848573
193,1436899765691,42.8201216719138
194,1436899766468,35.7303225968262
195,1436899767182,44.3871287125022
196,1436899767900,39.7584062133161
197,1436899768691,43.2847664513465
198,1436899769436,64.9794028744542
199,1436899770120,57.7292502373453
200,1436899770831,51.0324185636012
201,1436899771597,9.11804568214041
202,1436899772309,46.9826484867417
203,1436899773044,38.384610929384
204,1436899773822,59.2439230080014
205,1436899774471,55.3006028445182
206,1436899775205,49.1652405039481
207,1436899775924,40.6682305777977
208,1436899776742,62.8948836179473
209,1436899777474,62.7708560232512
210,1436899778199,66.2327820909566
211,1436899778919,46.8958768720238
212,1436899779732,59.7202935186249
213,1436899780458,44.8365285824797
214,1436899781231,67.5669531625733
215,1436899781964,56.4522513432401
216,1436899782716,41.4207233310782
217,1436899783445,42.4919312655461
218,1436899784162,64.0417403333984
219,1436899784903,54.8502047921093
220,1436899785726,64.6520627237206
221,1436899786457,65.4549223444307
222,1436899787181,50.612593712647
223,1436899787908,51.9580924716804
224,1436899788686,60.0529699938544
225,1436899789407,57.1279739725187
226,1436899790090,62.8384594257047
227,1436899790797,38.0153025786869
228,1436899791499,37.0046062997337
229,1436899792162,31.8489043364524
230,1436899792893,15.0718099244484
231,1436899793686,56.1576003391221
232,1436899794373,46.7012443571446
233,1436899795171,47.3032695305982
234,1436899795900,41.4561401154282
235,1436899796637,12.1305618954486
236,1436899797388,46.0120868862936
237,1436899798131,26.9907605122939
238,1436899798882,40.5519780431137
239,1436899799618,42.3532910795261
240,1436899800380,14.5897040341729
241,1436899801115,22.2866294501147
242,1436899801845,24.9026294474676
243,1436899802591,39.9101002420969
244,1436899803271,38.617978780935
245,1436899804021,33.7447488931449
246,1436899804792,35.0344403465788
247,1436899805526,33.7920232976641
248,1436899806262,14.502944632757
249,1436899806998,61.9963213922936
250,1436899807745,50.8855021140745
251,1436899808485,42.5669136865522
252,1436899809338,52.1945790157913
253,1436899810080,42.0687545080305
254,1436899810699,30.4288225239734
255,1436899811374,45.1118883365716
256,1436899812110,8.26820856321549
257,1436899812838,51.1512818918166
258,1436899813544,46.5216217027061
259,1436899814218,47.478505111466
260,1436899814900,37.5666698086462
261,1436899815551,15.5328322994235
262,1436899816281,41.969815044867
263,1436899817038,27.1555414192586
264,1436899817770,38.9654767237241
265,1436899818512,43.2254673686009
266,1436899819249,2.10335568443034
267,1436899819983,5.79480829748961
268,1436899820730,43.3559247585569
269,1436899821451,45.9929837492249
270,1436899822179,39.3321088074712
271,1436899822908,20.4374128926133
272,1436899823661,48.431629130267
273,1436899824395,35.6631005730337
274,1436899825130,48.0469320538482
275,1436899825868,21.8746852794827
276,1436899826598,18.6462080443584
277,1436899827345,34.2659754225807
278,1436899828094,43.5713039698933
279,1436899828841,52.1746788124025
280,1436899829574,41.8815107745775
281,1436899830304,43.8066064138296
282,1436899831060,39.9391198473432
283,1436899831793,19.8668679038831
284,1436899832522,62.9290645322335
285,1436899833247,48.0225682040629
286,1436899833983,73.1943537283005
287,1436899834752,70.2374108408907
288,1436899835406,75.9263254285692
289,1436899836200,51.3251761077067
290,1436899836919,49.764863093894
291,1436899837686,62.1516083470604
292,1436899838415,41.9926276923755
293,1436899839171,37.9693798439731
294,1436899839897,37.6093819975389
295,1436899840636,59.1066197236198
296,1436899841370,43.491702604896
297,1436899842105,35.9625939169026
298,1436899842836,42.0591836957032
299,1436899843568,42.1491928733175
300,1436899844311,52.4521038771735
301,1436899845081,47.4423404560711
302,1436899845830,65.6892479078881
303,1436899846487,62.715829648847
304,1436899847219,62.9862381516128
305,1436899847941,41.6538833133332
306,1436899848696,31.3107026713669
307,1436899849434,42.4651424962915
308,1436899850189,49.9232044529714
309,1436899850865,38.7481803586159
310,1436899851545,12.9244743240932
311,1436899852266,48.7238897143196
312,1436899852984,43.908912359589
313,1436899853747,37.3151802396714
314,1436899854446,29.3953980324004
315,1436899855118,19.5337660173663
316,1436899855871,32.2896993990216
317,1436899856593,52.4239497939899
318,1436899857326,73.5306606620825
319,1436899858076,59.5063745856294
320,1436899858823,57.1649347815178
321,1436899859562,58.8492253173399
322,1436899860301,34.4053773066765
323,1436899861056,44.8474852771625
324,1436899861816,48.1607436828825
325,1436899862554,63.8554838705301
326,1436899863276,43.2351288925958
327,1436899864012,57.8107637488477
328,1436899864744,36.2835190016531
329,1436899865496,57.1122522751677
330,1436899866257,56.1847377645176
331,1436899866979,37.870243327372
332,1436899867732,59.5640635134658
333,1436899868459,50.1742878132641
334,1436899869198,53.3714051040436
335,1436899869922,44.552575006947
336,1436899870670,45.4934040564625
337,1436899871221,8.50702485958963
338,1436899872717,37.9187341240287
339,1436899873367,62.5707622171041
340,1436899874079,44.1385256769351
341,1436899874807,58.2979177664508
342,1436899875489,38.9255541855037
343,1436899876201,18.7389460253813
344,1436899876921,6.32875592187736
345,1436899877662,39.1562858280452
346,1436899878395,62.7079998195938
347,1436899879139,73.3560138983111
348,1436899879865,46.8321665275969
349,1436899880595,51.4073516920294
350,1436899881311,31.6206217903631
351,1436899882032,24.1972610807247
352,1436899883792,33.7651249966187
353,1436899884462,60.0707566028749
354,1436899885194,43.2567482277292
355,1436899885921,55.50703375016
356,1436899886691,57.5035595585558
357,1436899887433,54.1942977622613
358,1436899888175,43.4687801183936
359,1436899888906,26.9323187293222
360,1436899889658,35.0661492918248
361,1436899890387,61.4415324550142
362,1436899891153,57.0867457113289
363,1436899891805,44.912641741568
364,1436899892515,59.723586084506
365,1436899893164,57.2759199192935
366,1436899893856,44.0679912007239
367,1436899894589,23.6282919386019
368,1436899895305,45.417159152596
369,1436899895946,14.1521283993155
370,1436899896681,15.5632180084371
371,1436899898585,20.3393218043796
372,1436899899321,39.5346453769622
373,1436899900071,56.509526200841
374,1436899900835,29.0638430440589
375,1436899901520,8.68540578546017
376,1436899902241,40.9826700883273
377,1436899902982,17.9890474475375
378,1436899903765,46.4702027728139
379,1436899904512,50.7409476449448
380,1436899905223,42.2065041441556
381,1436899905973,47.2911397650704
382,1436899907940,34.7013072109125
383,1436899908718,35.6254508966726
384,1436899909437,31.4581117030946
385,1436899910179,49.196283360671
386,1436899910910,47.7638485107224
387,1436899911635,49.2770918436676
388,1436899912356,34.9789057661683
389,1436899913106,42.5156611812054
390,1436899913892,36.6809101801058
391,1436899914628,27.2252594955132
392,1436899915350,26.3822665068209
393,1436899916059,26.2740926902861
394,1436899916806,25.2407670259718
395,1436899917525,47.2058468360246
396,1436899918240,29.2795158232338
397,1436899918961,25.452258747146
398,1436899919649,26.6469115519187
399,1436899920370,15.776613434271
400,1436899921159,34.1213854015166
401,1436899921925,25.9519863882371
402,1436899922694,15.361740925921
403,1436899923452,52.5515633367369
404,1436899924176,65.5509088976129
405,1436899924922,67.6635288580327
406,1436899925696,46.6690005161984
407,1436899926440,46.7147248682518
408,1436899927174,30.8161587265535
409,1436899927912,41.0379550811786
410,1436899928669,69.4991619501338
411,1436899929391,67.9609470588488
412,1436899930123,67.3820896117172
413,1436899930824,59.8222636690527
414,1436899931561,51.9972569200552
415,1436899932238,65.0509287461944
416,1436899932976,51.0690434766853
417,1436899933732,44.362459900813
418,1436899934454,60.6428138772544
419,1436899935188,62.9637045992291
420,1436899935901,61.8109066012544
421,1436899936554,39.8366529345347
422,1436899937224,53.1286217682445
423,1436899937895,35.381889094286
424,1436899938665,46.3352845331469
425,1436899939412,48.9573833432348
426,1436899940123,38.2161710295363
427,1436899940851,56.5821465508628
428,1436899941582,41.9701528072471
429,1436899942309,44.8972833331103
430,1436899943054,47.553300543484
431,1436899943839,52.3620550618601
432,1436899944602,68.4082088689006
433,1436899945336,30.0325313760909
434,1436899946069,51.316306436758
435,1436899946837,63.9298965640023
436,1436899947576,52.9113636529032
437,1436899948303,40.0311355769466
438,1436899949027,58.047092726454
439,1436899949765,44.2828091478748
440,1436899950509,41.715651167013
441,1436899951288,40.776895719123
442,1436899952022,30.4090908547197
443,1436899952701,9.46459606577675
444,1436899953424,55.7718222595397
445,1436899954159,41.3741576512837
446,1436899954891,38.7907387456
447,1436899955613,52.5693867545584
448,1436899956328,27.1748266398111
449,1436899957079,39.6439899797405
450,1436899957830,49.3375491000457
451,1436899958556,56.1864595145792
452,1436899959283,49.7383013453809
453,1436899960118,62.8239398161761
454,1436899960866,56.8336626140522
455,1436899961624,64.9827912437948
456,1436899962271,15.0063430845416
457,1436899963010,69.3060860672253
458,1436899963804,74.6831500034228
459,1436899964520,71.0104978166543
460,1436899965252,47.7250585294021
461,1436899965981,24.8319676902893
462,1436899966724,59.0039011372709
463,1436899967456,45.3108052932311
464,1436899968186,38.3790190399213
465,1436899968915,25.9179807746541
466,1436899969670,37.6886709392377
467,1436899970415,27.6125632547375
468,1436899971160,34.30560688047
469,1436899971895,26.9015109519792
470,1436899972510,43.4627222816313
471,1436899973197,38.099081007652
472,1436899973926,39.6905855909278
473,1436899974694,45.8715541710443
474,1436899975419,54.3716467818743
475,1436899976149,56.1546280444739
476,1436899976797,42.190160675422
477,1436899977505,44.2196505017942
478,1436899978241,52.0760376842465
479,1436899979003,54.5712406941596
480,1436899979753,48.657466306605
481,1436899980490,48.7662007348794
482,1436899981227,47.491897216021
483,1436899981956,55.0260723056027
484,1436899982724,54.8718497638654
485,1436899983493,52.3097289727777
486,1436899984215,16.7409593009818
487,1436899984951,53.466479261165
488,1436899985696,63.2285068433327
489,1436899986487,47.3318956682363
490,1436899987216,53.3769968416288
491,1436899987940,36.808155600586
492,1436899988705,34.3115246573888
493,1436899989431,63.7017840551135
494,1436899990183,38.3646569127366
495,1436899990925,38.9905667026475
496,1436899991701,33.6899399398732
497,1436899992460,28.2193362486979
498,1436899993139,31.8422421320482
499,1436899993865,42.6117097994753
500,1436899994593,22.0870257498628
501,1436899995351,51.549611686616
502,1436899996125,49.0104657714691
503,1436899996824,60.5533692407443
504,1436899997482,62.6916268256281
505,1436899998218,33.3718218847401
506,1436899998941,9.59422101277835
507,1436899999704,37.5143730693894
508,1436900000462,32.9748483438453
509,1436900001215,49.2979419148777
510,1436900001939,53.902969091032
511,1436900002692,40.9626302017986
512,1436900003424,59.6453842384734
513,1436900004159,54.952103026911
514,1436900004903,46.9031341274414
515,1436900005662,65.3611375531097
516,1436900006377,54.9538615799501
517,1436900007162,69.2992864162134
518,1436900007882,65.3066193128587
519,1436900008671,53.7169607698683
520,1436900009392,64.75843049526
521,1436900010121,60.1216290708749
522,1436900010857,60.0316411683363
523,1436900011600,73.1668004709288
524,1436900012388,52.7997740893801
525,1436900013027,41.8462347673361
526,1436900013650,51.33466278409
527,1436900014405,59.0783769193792
528,1436900015118,39.669748409048
529,1436900015844,50.5204761064952
530,1436900016520,54.5427042207277
531,1436900017093,40.7201684400592
532,1436900017718,34.4503270349484
533,1436900018469,51.597488070667
534,1436900019259,32.5307792377011
535,1436900020022,54.583794804873
536,1436900020838,47.936133716563
537,1436900021566,64.0256842905642
538,1436900022362,50.0526594970249
539,1436900023095,36.613778784226
540,1436900023868,26.1663046703959
541,1436900024606,20.1038374583496
542,1436900025331,15.1408936763072
543,1436900026071,29.9972288876058
544,1436900026798,49.821638861151
545,1436900027540,42.4754650852338
546,1436900028274,51.4876863204741
547,1436900029011,25.6840745899471
548,1436900029763,13.2906049740582
549,1436900030489,61.6853744668967
550,1436900031222,44.78890692369
551,1436900031953,30.0457120747332
552,1436900032685,38.4429822365437
553,1436900033336,16.7413098179744
554,1436900034051,22.0597500453301
555,1436900034784,58.8513951484338
556,1436900035499,29.6325915690824
557,1436900036228,12.8933252195703
558,1436900036917,13.8841614443855
559,1436900037525,18.0010089743646
560,1436900038256,27.2030847511831
561,1436900038988,26.9187679883922
562,1436900039745,23.4518864955694
563,1436900040474,22.3129224019811
564,1436900041228,11.4847772878837
565,1436900041954,15.3148566779919
566,1436900042706,45.3392794056473
567,1436900043472,16.9788246936407
568,1436900044183,15.6625464377902
569,1436900044925,12.1828182617895
570,1436900045691,12.1100941674726
571,1436900046424,27.8815433917599
572,1436900047128,34.2260796964128
573,1436900047878,51.4649598280104
574,1436900048652,58.1113345563055
575,1436900049350,42.6690115115422
