id,attr_time,attr_db
1,1436899622925,4.5659701773138
2,1436899623469,38.6868201405711
3,1436899624008,37.8954320829685
4,1436899624549,27.475695268577
5,1436899625091,34.9573985103526
6,1436899625637,28.6429610826396
7,1436899626177,1.7451238982563
8,1436899626717,39.8247653074439
9,1436899627257,28.6002753054696
10,1436899627797,32.3466124795997
11,1436899628334,29.9096098055684
12,1436899628875,31.2881105863935
13,1436899629414,5.42195190966104
14,1436899629958,18.7233501056916
15,1436899630498,31.4604755574304
16,1436899631036,58.7870864269715
17,1436899631581,42.3991692428158
18,1436899632118,62.7215792745587
19,1436899632657,61.3330441751977
20,1436899633198,54.790638803017
21,1436899633740,65.8846470710574
22,1436899634285,57.3678732383815
23,1436899634827,64.1788297756085
24,1436899635376,53.3972050006002
25,1436899635963,60.2389992735444
26,1436899636530,55.7477338137503
27,1436899637087,45.4986898829993
28,1436899637628,25.8020096156403
29,1436899638166,10.3511234713307
30,1436899638705,45.7170422523775
31,1436899639223,42.652867063483
32,1436899639766,30.0125941349212
33,1436899640305,31.9387575079636
34,1436899640826,18.2034781948984
35,1436899641369,8.038105315109
36,1436899641909,43.1681058324868
37,1436899642427,34.883072362205
38,1436899642970,39.503847312929
39,1436899643510,46.6957339664554
40,1436899644051,47.2667763948725
41,1436899644597,62.8225195543007
42,1436899645137,53.468525100328
43,1436899645657,43.7493499815167
44,1436899646197,3.21370224142697
45,1436899646737,42.6119825248924
46,1436899647278,57.7584148914646
47,1436899647800,60.492670114358
48,1436899648344,46.2024418253746
49,1436899648886,50.5620342114011
50,1436899649425,47.6582948731258
51,1436899649965,58.8804270685192
52,1436899650505,55.0623477569266
53,1436899651024,42.2068432091307
54,1436899651566,50.7626839237186
55,1436899652085,49.7478824211524
56,1436899652625,49.4581165960577
57,1436899653165,24.0434931222863
58,1436899653707,49.6463841193996
59,1436899654244,47.0719567461562
60,1436899654780,41.4011674284607
61,1436899655321,20.7732170028162
62,1436899655860,44.1426515320414
63,1436899656398,43.0325865172915
64,1436899656937,51.2781511181019
65,1436899657480,46.4463819180722
66,1436899658056,30.5981946161227
67,1436899658606,46.5799753967653
68,1436899659148,45.1833217996807
69,1436899659687,53.0246442517426
70,1436899660227,30.3930654148656
71,1436899660765,39.9689040774195
72,1436899661305,26.8538923367
73,1436899661848,45.8264408727591
74,1436899662395,43.4908084758705
75,1436899662938,33.0964022060078
76,1436899663478,57.6036771216712
77,1436899664018,47.5555760360601
78,1436899664560,55.3343481818777
79,1436899665084,52.9275179028495
80,1436899665627,48.6809995470883
81,1436899666166,41.2963636419449
82,1436899666705,45.671233805938
83,1436899667246,43.8058389853153
84,1436899667767,2.70475979717738
85,1436899668306,7.81804059352312
86,1436899668849,38.4085040683106
87,1436899669389,44.5099545661804
88,1436899669914,0.878157084632983
89,1436899670456,45.2800656414284
90,1436899670999,40.8191053140049
91,1436899671538,40.5397535934648
92,1436899672079,34.8435106614375
93,1436899672603,54.2172458475604
94,1436899673143,46.6478203236039
95,1436899673686,50.8427851903639
96,1436899674227,27.268915989291
97,1436899674768,41.8784734202166
98,1436899675285,42.5386775227153
99,1436899675826,33.2365115231479
100,1436899676366,35.5340453609621
101,1436899676906,27.3141786745104
102,1436899677448,1.66160508517358
103,1436899677990,15.5784624935659
104,1436899678535,43.8749185709706
105,1436899679076,6.23483212061023
106,1436899679618,0.934835195290234
107,1436899680160,21.0454152378326
108,1436899680705,33.6646128468104
109,1436899681246,47.8538126661393
110,1436899681787,1.43488057469135
111,1436899682327,3.71017391592761
112,1436899682867,44.3367734573781
113,1436899683407,41.8651165358396
114,1436899683947,41.8091240889738
115,1436899684485,40.2002349244511
116,1436899685005,62.5650672520396
117,1436899685547,41.0833608778341
118,1436899686065,35.257429863398
119,1436899686609,45.9457972700941
120,1436899687147,19.2776565407151
121,1436899687689,16.4072602649898
122,1436899688228,14.0040071837143
123,1436899688769,37.7371249383351
124,1436899689309,49.6428859339631
125,1436899689856,48.6751096553633
126,1436899690375,25.6448457486041
127,1436899690920,4.85309550572937
128,1436899691465,54.3036291728436
129,1436899692006,46.1103188087823
130,1436899692546,57.358323676888
131,1436899693084,60.3514739868243
132,1436899693640,50.6348931115612
133,1436899694194,43.4844800089636
134,1436899694737,34.8330222154596
135,1436899695275,55.6094161848495
136,1436899695815,37.272924850321
137,1436899696359,53.0080023091519
138,1436899697289,42.8610474065977
139,1436899697826,58.8642100125319
140,1436899698370,31.1402782845379
141,1436899698915,40.537833328244
142,1436899699439,48.9802217848045
143,1436899699984,40.8399981962201
144,1436899700527,47.1604052997923
145,1436899701066,7.20652206014048
146,1436899701606,44.0822180982259
147,1436899702955,39.6332399537646
148,1436899703494,22.5867541093767
149,1436899704037,41.8221285487327
150,1436899704578,34.2936731585814
151,1436899705116,11.1306829328413
152,1436899705655,14.9891251094033
153,1436899706190,12.3378504203147
154,1436899706709,2.91923710501284
155,1436899707250,33.2203693271893
156,1436899707795,46.4617532488948
157,1436899708306,18.4496404346311
158,1436899708847,43.6111235861253
159,1436899710226,54.7479610327457
160,1436899710767,42.0218824380487
161,1436899711304,36.0097602014325
162,1436899711847,48.1300037289014
163,1436899712387,44.463298818071
164,1436899712930,44.7316612580145
165,1436899713471,24.3227727196589
166,1436899714016,41.836954836205
167,1436899715036,41.9632721992525
168,1436899715553,31.1112112622218
169,1436899716095,43.9668295252278
170,1436899716639,39.2002299772636
171,1436899717176,23.751358010247
172,1436899717721,40.7525770137254
173,1436899718257,42.7042355238495
174,1436899718797,55.8363922448539
175,1436899719338,49.8555385472598
176,1436899719878,46.4316063016791
177,1436899720398,49.1038084814376
178,1436899720919,43.2440810029313
179,1436899721467,56.6633831543329
180,1436899721996,39.6348121429075
181,1436899722539,42.4418279555792
182,1436899723087,55.2434773316589
183,1436899723628,51.9440685011292
184,1436899724167,53.3112031490771
185,1436899724706,54.8641657138376
186,1436899725247,53.1289432339577
187,1436899725789,39.5067894197544
188,1436899726328,41.0452607442087
189,1436899726868,19.0696156123773
190,1436899727406,35.761359376399
191,1436899728457,43.1344114681263
192,1436899728977,42.3542033568655
193,1436899729518,48.1019053019662
194,1436899730059,45.2096357324575
195,1436899730605,52.0937289046584
196,1436899731141,48.3738211441581
197,1436899731684,45.2995463024431
198,1436899732226,52.0284259260713
199,1436899732763,48.3166755637355
200,1436899733309,38.2693457782668
201,1436899733847,43.4522440313331
202,1436899734387,16.7581368887695
203,1436899734930,24.5290095968327
204,1436899735467,24.7518767717936
205,1436899736545,52.1355786508741
206,1436899737090,44.0855175955733
207,1436899737610,34.2594918639654
208,1436899738140,38.4751336347899
209,1436899738676,39.8918462730506
210,1436899739195,39.0132602045619
211,1436899739734,35.907333877698
212,1436899740254,29.3085948937312
213,1436899740775,36.5994345278417
214,1436899741314,1.11314417682225
215,1436899741857,44.1795133796398
216,1436899742396,40.1535946771168
217,1436899742935,30.8843019351092
218,1436899743473,35.4304967226653
219,1436899744018,45.0252396085551
220,1436899744565,44.6925987401123
221,1436899745107,33.0950902147428
222,1436899745646,39.3197266901606
223,1436899746188,36.1371284954704
224,1436899746730,45.0917210950308
225,1436899747268,44.6591020512956
226,1436899747816,58.5819001194282
227,1436899748356,47.7058877856361
228,1436899748895,51.933842389539
229,1436899749437,41.9513143593385
230,1436899749956,53.7611040505081
231,1436899750497,47.7571540499596
232,1436899751017,34.2509285590182
233,1436899751565,41.8081574422365
234,1436899752086,7.8004376616051
235,1436899752627,10.3463900688939
236,1436899753165,6.36706576600488
237,1436899753703,45.3785280368013
238,1436899754258,39.5687573842723
239,1436899754798,32.8383723587562
240,1436899755315,37.8145945353372
241,1436899755855,23.4123701970857
242,1436899756396,41.510111307489
243,1436899756934,40.1452874193291
244,1436899757476,9.84261536735769
245,1436899758019,41.5356914266735
246,1436899758560,17.6335120268464
247,1436899759106,44.8255178818116
248,1436899759646,49.6985316659164
249,1436899760186,44.1170724023532
250,1436899760725,40.5526088413764
251,1436899761265,53.6881140367156
252,1436899761804,34.5978850489924
253,1436899762346,21.832525785319
254,1436899762887,13.1338342190277
255,1436899763426,22.5118552306065
256,1436899763969,41.4786566062289
257,1436899764510,49.7846777859425
258,1436899765049,50.8812941922154
259,1436899765589,29.1577976487764
260,1436899766127,37.3536908979707
261,1436899766667,24.3790400034152
262,1436899767206,43.5944983943171
263,1436899767745,43.8982319219921
264,1436899768284,56.9855732667226
265,1436899768824,39.030841849798
266,1436899769370,52.6891444517528
267,1436899769910,46.9151414512296
268,1436899770457,5.95046143958712
269,1436899770997,28.5434041747878
270,1436899771538,3.4809814725866
271,1436899772078,43.0166716269847
272,1436899772627,40.7185329495169
273,1436899773146,44.5857934366402
274,1436899773664,52.5764283405423
275,1436899774186,44.2013679010353
276,1436899774767,33.8058320323322
277,1436899775308,36.7207107352358
278,1436899775825,33.574475735397
279,1436899776364,38.4613284648159
280,1436899776904,55.4347074418443
281,1436899777442,55.3392468729937
282,1436899777979,57.5339114947615
283,1436899778513,43.7918766511248
284,1436899779054,41.1661373727716
285,1436899779595,42.2485183089723
286,1436899780132,45.674483574139
287,1436899780676,44.6357158722571
288,1436899781214,55.8445068612325
289,1436899781755,46.1569190637471
290,1436899782295,36.3198631551026
291,1436899782835,43.2477200067659
292,1436899783375,43.5429468541188
293,1436899783914,43.1434531721418
294,1436899784456,47.6886756068285
295,1436899784995,49.825713063787
296,1436899785535,42.1049081304216
297,1436899786076,46.361770456114
298,1436899786624,45.5225385470199
299,1436899787167,37.1840456465217
300,1436899787735,45.9777275699581
301,1436899788279,49.0295096582877
302,1436899788807,43.1518447614368
303,1436899789328,53.347175768342
304,1436899789847,32.6274958198021
305,1436899790389,46.2269652345745
306,1436899790930,37.4717094655959
307,1436899791454,36.4973627150831
308,1436899791998,35.0423593706728
309,1436899792546,24.7905039965627
310,1436899793087,5.00261623687152
311,1436899793610,40.1103616374403
312,1436899794143,38.4355348828583
313,1436899794691,37.0171912713094
314,1436899795210,32.8243119854667
315,1436899795747,28.0324337188243
316,1436899796288,17.8639500298456
317,1436899796826,35.2952213723189
318,1436899797364,41.5263175842219
319,1436899797904,38.5536703336252
320,1436899798446,15.4066847801773
321,1436899798986,39.7759153488687
322,1436899799526,36.5772287377036
323,1436899800066,30.4811322148749
324,1436899800587,37.4550372127785
325,1436899801128,20.1910668977647
326,1436899801674,27.1845043469287
327,1436899802221,37.1039127458924
328,1436899802764,51.2166694701659
329,1436899803306,39.1802577934859
330,1436899803845,37.4832993530902
331,1436899804387,35.8359701939451
332,1436899804935,32.1758310888724
333,1436899805478,35.6001382979094
334,1436899806021,43.8292337568013
335,1436899806566,31.4038921952886
336,1436899807108,44.3156926341391
337,1436899807656,54.4980011090033
338,1436899808198,38.8641712008206
339,1436899808740,37.614985738069
340,1436899809274,44.2765472135698
341,1436899809819,41.5061083065595
342,1436899810339,37.0024479912267
343,1436899810878,41.2292370398588
344,1436899811419,45.7839077622073
345,1436899811967,2.50818703445611
346,1436899812508,45.9152197207157
347,1436899813049,43.2491333781055
348,1436899813592,44.424895544739
349,1436899814137,51.8377565591939
350,1436899814679,46.9125046277367
351,1436899815199,40.9881283160095
352,1436899815738,41.8562588746641
353,1436899816253,40.436440065178
354,1436899816775,38.2166014400067
355,1436899817315,43.6472747006824
356,1436899817856,6.02457844020449
357,1436899818395,34.8074556735799
358,1436899818939,2.28455421664694
359,1436899819479,0.746004070633405
360,1436899820020,4.70492320964456
361,1436899820564,10.7323511160736
362,1436899821107,33.7311974977023
363,1436899821649,37.1474632334838
364,1436899822190,31.1936383142514
365,1436899822705,34.8235166761341
366,1436899823227,30.4206651443595
367,1436899823749,40.0597169941762
368,1436899824294,38.1070729172352
369,1436899824815,38.0792413335397
370,1436899825355,28.1765436839906
371,1436899825899,33.8481906387273
372,1436899826439,29.7013662009172
373,1436899826981,2.57941397788284
374,1436899827520,32.8276085925842
375,1436899828047,31.3353588857318
376,1436899828586,34.6813301894575
377,1436899829107,52.8334583353528
378,1436899829648,42.1980657915873
379,1436899830186,7.99872370550758
380,1436899830707,33.1980665751227
381,1436899831249,23.0299602568824
382,1436899831790,33.7390569318421
383,1436899832312,37.471541720177
384,1436899832857,40.6175728985522
385,1436899833398,21.4775916415652
386,1436899833937,59.7884880079959
387,1436899834479,50.8248850399531
388,1436899835016,49.7292257155308
389,1436899835557,67.8430641197316
390,1436899836100,36.4006723009731
391,1436899836644,58.4484446990551
392,1436899837178,44.3934690449532
393,1436899837705,54.8046748971521
394,1436899838245,49.1034931493933
395,1436899838784,44.4707040988903
396,1436899839325,37.6198598763346
397,1436899839868,38.0779291321067
398,1436899840389,52.5810406689798
399,1436899840928,54.2778245732067
400,1436899841445,39.5221663010897
401,1436899841986,39.4725554469295
402,1436899842528,33.6109563050317
403,1436899843068,37.8280022525233
404,1436899843588,35.2307211435936
405,1436899844129,38.5591694357541
406,1436899844668,49.6700929171207
407,1436899845208,54.3593446028696
408,1436899845749,55.9655688343377
409,1436899846290,57.2858397265651
410,1436899846836,31.8357515439303
411,1436899847376,37.6203270401972
412,1436899847918,44.0259045887317
413,1436899848459,41.8172093561865
414,1436899848999,43.2184945969137
415,1436899849517,56.3917117369759
416,1436899850058,18.654671002864
417,1436899850598,25.8657462579409
418,1436899851139,29.4114070596683
419,1436899851679,49.6932996015115
420,1436899852199,29.4817535313252
421,1436899852739,38.4861068662401
422,1436899853276,41.3384362503513
423,1436899853815,20.5783259499901
424,1436899854355,33.2317215605229
425,1436899854897,38.2720084862835
426,1436899855434,55.1829695628927
427,1436899855970,50.5605445205482
428,1436899856510,44.8472392303173
429,1436899857048,62.1694765786302
430,1436899857586,52.947760435905
431,1436899858125,40.1638358272616
432,1436899858687,37.9203940037964
433,1436899859228,50.3519848254031
434,1436899859768,53.3091650669325
435,1436899860307,39.7108782969346
436,1436899860846,37.6349266653673
437,1436899861388,47.0713425373201
438,1436899861927,42.2699887530247
439,1436899862466,40.4682020809641
440,1436899863006,41.1350657640979
441,1436899863548,39.2103638725758
442,1436899864089,46.510351697917
443,1436899864630,43.3938423819335
444,1436899865175,32.3587824391874
445,1436899865695,36.9166380336764
446,1436899866235,37.3502387245153
447,1436899866786,38.966938807077
448,1436899867327,49.0237215795663
449,1436899867845,25.1644647293732
450,1436899868383,37.1617718012037
451,1436899868925,50.2009482450458
452,1436899869466,46.9432318267445
453,1436899870007,43.3826454008985
454,1436899870548,6.06899307688923
455,1436899871089,8.5100587016177
456,1436899871629,17.9217267466688
457,1436899872169,13.6157760659383
458,1436899872709,14.1787638544874
459,1436899873236,38.5792887767869
460,1436899873776,48.5028528410122
461,1436899874336,45.0619260518571
462,1436899874898,40.2954304011662
463,1436899875438,41.1159485046051
464,1436899875977,2.6144377738781
465,1436899876516,1.58760344787736
466,1436899877055,20.9813126355339
467,1436899877595,37.3923690826414
468,1436899878135,41.9265952427561
469,1436899878677,51.6085254806809
470,1436899879218,56.6070490004687
471,1436899879759,46.6794584858905
472,1436899880297,36.4754210903542
473,1436899880838,40.9793400395722
474,1436899881381,3.40460859955158
475,1436899881925,1.16342443090587
476,1436899882444,41.2632589885453
477,1436899882983,27.0591876940447
478,1436899883527,38.1568072646194
479,1436899884055,43.3546721587295
480,1436899884597,35.5049095623787
481,1436899885141,35.5837495602186
482,1436899885680,31.4483127849677
483,1436899886228,43.2368764460234
484,1436899886769,37.6777439826788
485,1436899887477,50.0695474508322
486,1436899887993,32.7350017374266
487,1436899888537,43.016473131305
488,1436899889064,47.6560127076202
489,1436899889605,39.5359022525765
490,1436899890147,47.1313434596701
491,1436899890686,36.842718009352
492,1436899891205,36.0597700668806
493,1436899891748,35.0076613022438
494,1436899892268,40.9239549366041
495,1436899892789,25.554324041979
496,1436899893306,29.5613597282793
497,1436899893850,41.0674663228538
498,1436899894389,43.3521714571457
499,1436899894925,36.1817025645768
500,1436899895466,35.7028933896498
501,1436899896007,12.0535229498009
502,1436899896547,5.49379967068611
503,1436899897086,3.46403338986689
504,1436899897626,47.7609706638713
505,1436899898167,21.1454478194366
506,1436899898708,49.4807105797452
507,1436899899247,36.2305761918314
508,1436899899790,46.9314800764429
509,1436899900328,29.2923849409545
510,1436899901504,1.80208075571283
511,1436899902027,39.6736842682964
512,1436899902565,37.61479807802
513,1436899903106,46.1640746439878
514,1436899903646,38.973303785447
515,1436899904185,39.0751635332397
516,1436899904726,43.8796199981451
517,1436899905266,43.8953929714055
518,1436899905805,48.9191846007772
519,1436899906346,38.8962399200592
520,1436899906889,41.2831821221158
521,1436899907428,38.3859227163152
522,1436899907969,23.897984252049
523,1436899908508,39.7759859951331
524,1436899909045,36.5535008393211
525,1436899909584,46.1903638838359
526,1436899910125,44.8802875794638
527,1436899911160,45.1920651422271
528,1436899911676,38.4936015880612
529,1436899912215,39.7328046091419
530,1436899912754,37.0084573275097
531,1436899913293,33.6293632137552
532,1436899913837,30.6717015477486
533,1436899914378,25.0935981439911
534,1436899914918,32.3130878202627
535,1436899915455,30.5732379473189
536,1436899915998,15.1228282161027
537,1436899916547,17.3707477834854
538,1436899917086,15.3257330744126
539,1436899917627,33.200305081356
540,1436899918146,27.7111249974224
541,1436899918694,15.2297827662543
542,1436899919234,18.2624067959886
543,1436899919774,32.6648345227215
544,1436899920314,13.7562946901069
545,1436899920857,37.2000388918669
546,1436899921397,41.3209123150533
547,1436899921938,29.5913404143053
548,1436899922478,32.4752481578586
549,1436899923017,4.48385368271999
550,1436899923535,50.1399594174227
551,1436899924075,50.9638504229048
552,1436899924600,60.2518206712089
553,1436899925144,64.8501040731376
554,1436899926488,53.5827902939506
555,1436899927028,43.4144037961217
556,1436899927569,42.4325010221316
557,1436899928095,37.7685051341479
558,1436899928614,57.7019176709106
559,1436899929154,52.1149405714315
560,1436899929696,70.0870106579484
561,1436899930235,44.3912415779869
562,1436899930776,63.075614488805
563,1436899931316,56.3993715903854
564,1436899931859,41.0718777429582
565,1436899932398,47.6531394482077
566,1436899932940,44.5772134469697
567,1436899933485,35.2138424190677
568,1436899934006,42.2914428350314
569,1436899935335,32.1223264822612
570,1436899935916,58.7712751135648
571,1436899936465,47.8831145005736
572,1436899936985,52.192827216509
573,1436899937508,45.2152933784383
574,1436899938044,57.3491406956541
575,1436899938585,47.4355651646362
