id,attr_time,attr_db
1,1435991672556,28.7651990925676
2,1435991673973,18.6649354798983
3,1435991674628,18.3261132624785
4,1435991675320,17.1234658491744
5,1435991675910,15.8675191740418
6,1435991676592,17.6240834267444
7,1435991677319,19.893018961735
8,1435991678076,18.7391333340214
9,1435991678788,18.1939569050546
10,1435991679517,18.7397996335229
11,1435991680242,21.1659433838999
12,1435991680929,19.8141990956548
13,1435991681594,21.1215627420233
14,1435991682296,29.4836194742845
15,1435991683032,16.5590782127642
16,1435991683759,28.60472574317
17,1435991684505,66.1145080766146
18,1435991685286,55.5679727610506
19,1435991686000,58.0659797959686
20,1435991686708,47.9206119042945
21,1435991687421,58.1148758940797
22,1435991688190,51.0526441270792
23,1435991688922,25.805331895391
24,1435991689673,46.0617369660452
25,1435991690395,25.9006219187739
26,1435991691182,19.5943036950119
27,1435991691851,20.3455487755223
28,1435991692597,16.380077395826
29,1435991693306,15.8606425730197
30,1435991694035,19.4238572907675
31,1435991694753,14.6513049040217
32,1435991695499,17.7374242731661
33,1435991696228,18.334671800933
34,1435991696939,17.9672418923082
35,1435991697655,21.9157869884842
36,1435991698413,18.4846799930213
37,1435991699165,16.3798808900125
38,1435991699896,16.4823358205676
39,1435991700636,16.805227712188
40,1435991701364,15.958299533266
41,1435991702116,18.7859665751897
42,1435991702839,15.6439119016039
43,1435991703527,20.9637149416897
44,1435991704270,22.3247006781059
45,1435991705019,21.6010220966733
46,1435991705749,24.4396732177673
47,1435991706461,29.8274039248683
48,1435991707111,24.598317006123
49,1435991707847,24.7973271623795
50,1435991708591,24.6916008879811
51,1435991709324,31.4133628812937
52,1435991710089,35.7012532964006
53,1435991710830,37.598880890958
54,1435991711541,22.8827491349942
55,1435991712275,39.7018109007955
56,1435991712986,35.2178104941707
57,1435991713619,20.4330607371014
58,1435991714323,19.1742008842518
59,1435991715056,25.3761614766899
60,1435991715783,25.5893189618724
61,1435991716491,42.8569414409613
62,1435991717210,44.5334438155345
63,1435991717907,37.936733222398
64,1435991718599,62.2355943740804
65,1435991719318,62.0706686289299
66,1435991720096,40.1418595606371
67,1435991720824,61.064774558599
68,1435991721559,42.1592790769219
69,1435991722295,41.5548142551143
70,1435991723042,52.8307646602059
71,1435991723777,54.5560789993368
72,1435991724519,16.6064517019644
73,1435991725278,27.7719205688595
74,1435991725996,19.9216599045111
75,1435991726727,26.7012576359675
76,1435991727426,19.075538590077
77,1435991728183,15.1724456898886
78,1435991728933,14.2637264791697
79,1435991729664,18.0986624175608
80,1435991730378,40.9682601746246
81,1435991731215,37.6540186992824
82,1435991731916,25.8981903355681
83,1435991732544,17.6795736968582
84,1435991733238,24.8308780830164
85,1435991733978,24.2286163144524
86,1435991734698,11.9832478012187
87,1435991735425,11.6316445589596
88,1435991736178,13.0085751869971
89,1435991736899,12.9405941362758
90,1435991737619,17.8328681242185
91,1435991738258,16.946518578873
92,1435991739016,17.0278818401767
93,1435991739738,19.717656696565
94,1435991740463,24.3547216427684
95,1435991741268,16.7572053815972
96,1435991742022,15.9711893852847
97,1435991742746,19.3176985531664
98,1435991743481,19.8197505013484
99,1435991744222,15.9307776530669
100,1435991744954,18.9097261056786
101,1435991745609,17.0378427103239
102,1435991746356,17.6560988194464
103,1435991747083,18.0015518698082
104,1435991747768,17.7777708229196
105,1435991748462,18.0362392800751
106,1435991749214,24.1161172274247
107,1435991749964,18.4864922611323
108,1435991750706,17.2474724614585
109,1435991751430,15.9711863309806
110,1435991752159,25.4336475733333
111,1435991752836,22.8811873937673
112,1435991753563,23.0832971017866
113,1435991754295,25.3692403481796
114,1435991755022,24.0570250308495
115,1435991755755,22.3770446473428
116,1435991756502,31.3707605909516
117,1435991757251,16.8140421097716
118,1435991757973,24.8907420436776
119,1435991758720,18.7310746161986
120,1435991759459,26.6022186214229
121,1435991760254,15.0257096246452
122,1435991760987,16.5721129416272
123,1435991761699,26.2045413064841
124,1435991762454,38.3011772640719
125,1435991763213,40.0905134727254
126,1435991763965,56.6197477616458
127,1435991764695,57.8356517080072
128,1435991765504,47.2124859830029
129,1435991766228,22.2379712890502
130,1435991766929,43.3089603727412
131,1435991767591,48.7235888471287
132,1435991768328,33.9965990665726
133,1435991768988,57.8531617614049
134,1435991769697,52.9824964546704
135,1435991770530,51.9902649608692
136,1435991771270,53.1551128654444
137,1435991771940,17.4160599759175
138,1435991772663,23.2852067348525
139,1435991773564,16.0548520759934
140,1435991774172,15.2283926999985
141,1435991774872,17.7142082301528
142,1435991775669,16.9659469510584
143,1435991776414,50.1801769183934
144,1435991777140,16.626830322558
145,1435991777916,16.5991674448357
146,1435991778631,17.3712247418973
147,1435991779297,18.1561924447132
148,1435991780065,15.8085846173586
149,1435991780783,16.5349702029539
150,1435991781508,17.0874580706536
151,1435991782241,20.7687519395187
152,1435991782970,16.8414939100311
153,1435991783684,16.7923520363998
154,1435991784381,16.4609091693987
155,1435991785153,19.6267690659318
156,1435991785879,17.3324115122574
157,1435991786554,19.7563862736265
158,1435991787213,21.4027276726697
159,1435991787956,19.7582304887631
160,1435991788696,22.2219098580078
161,1435991789435,40.0378796433261
162,1435991790212,36.6246042060871
163,1435991790925,25.4674754326788
164,1435991791659,33.9184807772934
165,1435991792382,20.2255281239174
166,1435991793146,15.9256137391678
167,1435991793863,25.2877039031951
168,1435991794567,33.7274361118799
169,1435991795295,39.3274147263727
170,1435991796066,39.2839630759193
171,1435991796790,15.953918205673
172,1435991797518,42.3641533151721
173,1435991798227,18.1710439673263
174,1435991798960,16.1034466131141
175,1435991799668,15.3483091060909
176,1435991800352,13.7819269190329
177,1435991801126,15.1037155707423
178,1435991801859,15.5273940342806
179,1435991802576,14.5093267542192
180,1435991803366,16.2375145227811
181,1435991804135,18.2295522308453
182,1435991804884,16.6980358613058
183,1435991805711,18.0226687178279
184,1435991806451,18.6203631582729
185,1435991807180,18.2955332616012
186,1435991807915,18.9923253892019
187,1435991808643,19.6213378863471
188,1435991809370,18.0400322348903
189,1435991810135,19.5713220482531
190,1435991810847,20.108415740801
191,1435991811563,20.7303341495586
192,1435991812269,18.9252397473782
193,1435991812991,20.1285245915002
194,1435991813714,21.3517386470203
195,1435991814458,18.9227917311003
196,1435991815220,19.3876463242331
197,1435991815956,19.5676533366875
198,1435991816685,21.0521843661199
199,1435991817434,19.5526401690428
200,1435991818219,18.0753198169221
201,1435991818956,17.9656038724562
202,1435991819685,19.1575251351569
203,1435991820425,18.0263504355664
204,1435991821182,17.0987228626162
205,1435991821903,16.3882779525824
206,1435991822630,15.9582293558487
207,1435991823362,16.3806094056053
208,1435991824096,19.7869412791385
209,1435991824764,17.3353073907897
210,1435991825505,16.2318734187426
211,1435991826235,16.7730648426586
212,1435991826983,36.9271450067963
213,1435991827717,57.3281020721761
214,1435991828456,40.1828195376051
215,1435991829209,44.037146871513
216,1435991829942,33.9602471064457
217,1435991831001,54.9977406304894
218,1435991831611,44.7991093098339
219,1435991832284,41.8462636393799
220,1435991832988,60.9824653276504
221,1435991833719,70.9240247074192
222,1435991834460,65.1636831390943
223,1435991835270,55.1783753797075
224,1435991836031,46.1900521126964
225,1435991836679,50.1924964465009
226,1435991837413,41.7440794279528
227,1435991838160,43.7493765578803
228,1435991838802,24.4685826357425
229,1435991839483,41.138949164837
230,1435991840205,46.8016624954189
231,1435991840760,47.1361240733099
232,1435991841365,40.0713911507342
233,1435991842093,46.7971069371359
234,1435991842824,47.3167316426558
235,1435991843571,53.9413346027597
236,1435991844306,39.1954764720866
237,1435991845036,25.2684002346048
238,1435991845865,22.403748854064
239,1435991846597,17.9029953216849
240,1435991847333,35.6167887625408
241,1435991848080,37.6508054061544
242,1435991848815,44.9413006278909
243,1435991849539,34.8366054312888
244,1435991850190,44.4217321477878
245,1435991851046,50.9580578645979
246,1435991851776,49.5621967738926
247,1435991852508,41.6064481918417
248,1435991853247,42.6746237066676
249,1435991853993,68.2789287767936
250,1435991854705,60.8314292081254
251,1435991855519,60.7277952153166
252,1435991856239,49.5576868887476
253,1435991856891,43.876983993978
254,1435991857629,20.1100392864894
255,1435991858284,19.948122551766
256,1435991859556,26.5096049597747
257,1435991860219,39.5440210112122
258,1435991861078,37.8792009036916
259,1435991861792,24.8085061631239
260,1435991862511,41.6050824152865
261,1435991863288,27.6527874441293
262,1435991864007,19.4043006510574
263,1435991864731,43.2938726776009
264,1435991865446,40.4300283315649
265,1435991866162,41.4802773336426
266,1435991866895,20.8870283204895
267,1435991867632,19.0052460041037
268,1435991868375,12.7997054368169
269,1435991870513,19.9684669609181
270,1435991871190,20.5166457378237
271,1435991871931,17.1959210494565
272,1435991872671,29.9630290800033
273,1435991873387,31.0202107282203
274,1435991874117,44.3354014282858
275,1435991874874,41.1901891689247
276,1435991875618,15.7172314835029
277,1435991876340,35.6706183640478
278,1435991877067,40.009984326632
279,1435991877809,50.8147976280568
280,1435991878594,16.4188217638462
281,1435991879310,16.4511614843971
282,1435991880029,15.3242069944291
283,1435991880734,13.8713967813735
284,1435991881434,13.5163109944641
285,1435991882085,14.1128347758354
286,1435991882784,12.4020379341002
287,1435991883506,14.258627554978
288,1435991885317,51.9856489526236
289,1435991885997,44.3760427158336
290,1435991886731,12.4202042015747
291,1435991887474,31.3047000813298
292,1435991888212,26.6630704270064
293,1435991888928,15.0982867773671
294,1435991889658,46.1595699119472
295,1435991890389,43.6378868358128
296,1435991891179,59.3664499276653
297,1435991891908,45.4540563761824
298,1435991892615,48.8733866699968
299,1435991894479,23.496290533987
300,1435991895137,42.4377793543302
301,1435991895894,61.2262353228033
302,1435991896664,59.2372013088592
303,1435991897330,35.6785017348677
304,1435991898086,45.9778513695752
305,1435991898856,32.2590218115681
306,1435991899568,26.0901035059234
307,1435991900300,14.6583823909921
308,1435991901055,42.2714266688535
309,1435991901800,42.8436348007041
310,1435991902526,48.2359695875866
311,1435991903258,61.7595801562026
312,1435991903990,34.1373142520141
313,1435991904723,53.4151179731369
314,1435991905454,49.0495400410787
315,1435991906202,46.1553631013174
316,1435991906933,48.851640095009
317,1435991907658,35.357564685617
318,1435991908374,64.2050795005981
319,1435991909128,35.6646045062224
320,1435991909869,42.4643085091868
321,1435991910614,28.4427534842314
322,1435991911364,14.2503914118578
323,1435991912079,39.740363204955
324,1435991912706,50.6385778840724
325,1435991913357,30.9754632240038
326,1435991914011,40.7926705176371
327,1435991914729,40.0537146101193
328,1435991915469,34.4970483104463
329,1435991916226,45.4257899011958
330,1435991916939,42.7064349128434
331,1435991917684,56.6346698968469
332,1435991918440,40.5431639769092
333,1435991919186,13.1406761962527
334,1435991919927,19.3178144870195
335,1435991920673,42.6582061231739
336,1435991921398,50.6204574948272
337,1435991922152,43.8744751429761
338,1435991922879,30.1106805071936
339,1435991923616,55.4459979698096
340,1435991924363,43.145875637172
341,1435991925135,47.9412708702283
342,1435991925876,46.8950019353378
343,1435991926784,51.8111548005278
344,1435991927521,47.3243701421693
345,1435991928246,42.4457045905173
346,1435991928867,42.5499545061469
347,1435991929575,50.9984624091444
348,1435991930310,40.6057693207084
349,1435991931084,24.916117412611
350,1435991931817,46.5856775168018
351,1435991932556,42.3894345318591
352,1435991933275,49.7491190095558
353,1435991933878,36.128484456324
354,1435991934617,50.4360018674065
355,1435991935353,55.1976640943147
356,1435991936074,52.764197700543
357,1435991936800,54.4484411725755
358,1435991937505,54.5031669550304
359,1435991938226,55.0665727293099
360,1435991938947,38.4271847293279
361,1435991939572,49.5925037130041
362,1435991940265,48.7020856401768
363,1435991941009,52.2544442762771
364,1435991941777,40.1186997282534
365,1435991942410,38.9209858916556
366,1435991943117,41.9916786567062
367,1435991943841,35.8766863553527
368,1435991944549,45.1172303817431
369,1435991945286,11.7950842526453
370,1435991946017,18.9309831798661
371,1435991946788,42.8350385876294
372,1435991947500,45.9940918269512
373,1435991948230,42.7395786863924
374,1435991948949,29.4263238000484
375,1435991949633,18.5495261498622
376,1435991950291,21.7150108901183
377,1435991951055,42.2351973616791
378,1435991951860,39.6783187454329
379,1435991952609,44.6884360159744
380,1435991953350,44.7638191751297
381,1435991954038,40.6229446803601
382,1435991954697,41.1331855688998
383,1435991955427,48.5942321910227
384,1435991956151,52.2920930442932
385,1435991956993,43.5358566016159
386,1435991957735,37.3771479192378
387,1435991958472,38.237020050081
388,1435991959216,46.1057997530743
389,1435991959887,49.5623692179635
390,1435991960568,42.2553510785699
391,1435991961320,43.9440887609992
392,1435991962079,52.3278001841827
393,1435991962819,37.3730437175781
394,1435991963547,53.7584979343109
395,1435991964281,49.8702223657094
396,1435991965009,49.078433425228
397,1435991965741,49.3377341387949
398,1435991966468,60.6791299670278
399,1435991967218,57.4802941555842
400,1435991967961,46.5643285948387
401,1435991968696,60.4363167875724
402,1435991969429,47.8283129116528
403,1435991970216,51.4828246554119
404,1435991970872,52.7782287787355
405,1435991971576,41.3879670254067
406,1435991972316,39.9579036780845
407,1435991973061,45.9392947298403
408,1435991973820,39.6602155932897
409,1435991974556,45.709173044111
410,1435991975328,41.7276742881587
411,1435991976040,31.3832539635792
412,1435991976763,26.052300100723
413,1435991977470,31.7444674531037
414,1435991978178,31.1941286790997
415,1435991978930,25.5184115357325
416,1435991979658,29.4522978688923
417,1435991980397,39.1540929449987
418,1435991981118,35.4561259396716
419,1435991981743,31.3618703582455
420,1435991982433,42.168992026991
421,1435991983199,41.245419918986
422,1435991983941,36.232575768907
423,1435991984676,37.1565990066139
424,1435991985402,35.7191550796734
425,1435991986163,35.9869864869058
426,1435991986843,36.2224514358384
427,1435991987514,42.3160322532951
428,1435991988249,29.9243985750769
429,1435991988936,38.5255269451731
430,1435991989573,25.4387803874033
431,1435991990324,13.7387594259432
432,1435991991063,15.2302712119156
433,1435991991777,33.3420507011774
434,1435991992376,40.8911135403497
435,1435991993036,42.465748755716
436,1435991993707,35.6687042670926
437,1435991994360,21.6386475132152
438,1435991995108,30.7374554994468
439,1435991995827,45.1335606755075
440,1435991996599,36.6739350613467
441,1435991997356,31.0023379978464
442,1435991998101,27.9306348275911
443,1435991998831,28.7967562587614
444,1435991999565,16.5435333398473
445,1435992000324,19.7290468451121
446,1435992001053,40.1699663011527
447,1435992001772,43.4114692759392
448,1435992002409,14.9011146003041
449,1435992003093,35.5339680564485
450,1435992003806,32.8206301251722
451,1435992004585,39.5893302672266
452,1435992005296,58.7586697929038
453,1435992006021,34.4152614290276
454,1435992006763,47.2241167817073
455,1435992007521,36.0764303877182
456,1435992008262,48.1656786563112
457,1435992009001,34.0261156588749
458,1435992009732,12.5457104790441
459,1435992010469,17.4448518511877
460,1435992011199,12.6202201693119
461,1435992011858,14.3499769661795
462,1435992012544,18.4002484006234
463,1435992013205,26.7730929032208
464,1435992013905,44.3671010955537
465,1435992014660,40.9383525157226
466,1435992015391,48.6350571482617
467,1435992016131,40.6281712425961
468,1435992016809,31.3602073440764
469,1435992017447,39.4579801787363
470,1435992018118,44.5571352045564
471,1435992018840,34.3235075855782
472,1435992019591,32.9271411704303
473,1435992020334,29.9355256112219
474,1435992021055,19.7074762802652
475,1435992021801,25.7287087853023
476,1435992022514,21.23229221731
477,1435992023179,17.9374532766986
478,1435992023850,41.8677262895355
479,1435992024569,45.2459132444671
480,1435992025310,18.9151740379204
481,1435992026063,41.0373637433508
482,1435992026812,53.0293676655158
483,1435992027541,48.4448193727883
484,1435992028282,50.4776137944145
485,1435992029027,21.4115430992699
486,1435992029769,25.2965061153695
487,1435992030519,48.971098240121
488,1435992031246,57.6268451332947
489,1435992031973,44.4927976959632
490,1435992032693,46.8329734073941
491,1435992033437,40.6380486192607
492,1435992034136,48.8355751006214
493,1435992034866,39.6405082709572
494,1435992035584,38.0615339330382
495,1435992036320,25.5168547721688
496,1435992037081,17.5431910970271
497,1435992037805,18.378758660759
498,1435992038546,19.9292270334742
499,1435992039260,15.398143379226
500,1435992040003,15.216939924579
501,1435992040734,17.6211294666802
502,1435992041498,19.0037441645522
503,1435992042254,18.4075451542801
504,1435992042985,15.7275711309957
505,1435992043721,17.3530679845069
506,1435992044487,19.5815347790907
507,1435992045158,17.533769114123
508,1435992045888,17.7291108150733
509,1435992046620,21.2956018715899
510,1435992047399,19.28120049354
511,1435992048180,41.6331263765946
512,1435992048912,39.5413959014626
513,1435992049650,42.7480359590933
514,1435992050381,38.3977865370631
515,1435992051130,26.3018146864471
516,1435992051937,40.2838187311729
517,1435992052665,62.9666919561058
518,1435992053383,49.1350775746505
519,1435992054153,24.6121572485146
520,1435992054883,13.9947460378864
521,1435992055595,21.1642077550384
522,1435992056331,18.2509456012205
523,1435992057061,16.9679024795161
524,1435992057851,17.1144964555787
525,1435992058580,18.6716653133559
526,1435992059304,34.2980656563586
527,1435992060060,47.586726233522
528,1435992060788,38.6421524384964
529,1435992061509,43.2987580963843
530,1435992062245,38.9138405671434
531,1435992064315,38.7021460879926
532,1435992065069,28.5313209225324
533,1435992065781,26.0451830176882
534,1435992066498,24.1823164436934
535,1435992067240,25.631455013235
536,1435992067976,32.426860454989
537,1435992068685,29.5042988434149
538,1435992069439,44.9147363618317
539,1435992070198,44.2721373662272
540,1435992070931,44.8370937688171
541,1435992071650,39.9659854359184
542,1435992072381,23.8832696411118
543,1435992073154,25.9895776546087
544,1435992073873,20.8203653321318
545,1435992074596,21.1623818197056
546,1435992075320,24.8283903870975
547,1435992076088,44.5689116984895
548,1435992076816,25.3346046432929
549,1435992078746,44.1558419179536
550,1435992079481,41.1348784422184
551,1435992080212,32.2104154930423
552,1435992080952,34.1003567129364
553,1435992081672,40.1891373531962
554,1435992082389,35.5942715812183
555,1435992083184,27.3632481716262
556,1435992083933,35.8840989279265
557,1435992084665,48.3715656842103
558,1435992085395,29.3470663979974
559,1435992086144,21.9845352158743
560,1435992086861,23.328479479554
561,1435992087495,25.2291336930171
562,1435992088161,34.0159832644445
563,1435992088862,22.0849398632457
564,1435992089520,21.1554023664815
565,1435992090218,24.0467241777227
566,1435992090960,41.9600797358661
567,1435992091668,20.2015466951457
568,1435992092416,40.879547084277
569,1435992093176,27.0643265682728
570,1435992093880,29.8713459126828
571,1435992094626,19.2982309763328
572,1435992095353,21.1736599208566
573,1435992096134,36.0473675595361
574,1435992096860,38.5750026993728
575,1435992097582,32.9653207264315
