id,attr_time,attr_db
1,1435991672064,26.5484997180755
2,1435991672556,26.0462529304582
3,1435991673043,23.2676101856886
4,1435991673574,19.3899074520097
5,1435991674058,25.7355470791556
6,1435991674543,25.2385125632355
7,1435991675032,24.4848869985701
8,1435991675513,28.8294505141255
9,1435991675989,23.8045855223209
10,1435991676527,27.3830236027307
11,1435991676913,26.0524174842525
12,1435991677352,25.9445280903313
13,1435991677818,27.6586069976821
14,1435991678298,28.9752692828847
15,1435991678864,25.9771814371561
16,1435991679359,24.7055037978362
17,1435991679866,21.9133362964216
18,1435991680370,20.8611356837293
19,1435991680869,20.8337625616163
20,1435991681346,21.9499732252835
21,1435991681850,24.7743181697508
22,1435991682342,42.7698720534665
23,1435991682806,38.7225105739595
24,1435991683222,27.7408210831308
25,1435991683762,23.2789542375808
26,1435991684248,21.918862082779
27,1435991684752,56.7120306357399
28,1435991685244,30.2426955451693
29,1435991685725,30.8073312458715
30,1435991686197,22.9533633566682
31,1435991686670,22.7781869012096
32,1435991687142,23.0524421599321
33,1435991687631,23.99591329127
34,1435991688109,26.050574657905
35,1435991688646,21.3141489399653
36,1435991689189,21.5652313016576
37,1435991689675,23.4183157385157
38,1435991690154,23.0445697001622
39,1435991690638,22.7366612701096
40,1435991691114,22.827080680516
41,1435991691609,23.9070976595067
42,1435991692089,25.0702656751001
43,1435991692665,25.6302387268443
44,1435991693151,21.6815775191326
45,1435991693652,23.3205815504941
46,1435991694142,25.7407544472001
47,1435991694628,24.2288746804514
48,1435991695111,22.757775236863
49,1435991695584,26.7348044719689
50,1435991696023,23.386986120338
51,1435991696532,20.8039924012007
52,1435991697079,19.0655601091856
53,1435991697536,20.5117105508692
54,1435991698003,21.6016738741536
55,1435991698481,19.9497458686554
56,1435991698962,23.7514050519111
57,1435991699455,19.5938076833574
58,1435991699940,24.1553904384999
59,1435991700424,24.0916601028638
60,1435991700899,27.0991424111331
61,1435991701377,27.5445646833546
62,1435991701862,30.0736810309347
63,1435991702353,30.4239066536118
64,1435991702900,29.8043529049279
65,1435991703395,31.8911417969707
66,1435991703878,30.971165271826
67,1435991704375,30.0909760509653
68,1435991704882,29.3137757735247
69,1435991705378,32.5076738548527
70,1435991705878,32.3497416806364
71,1435991706373,32.6086168470151
72,1435991706861,34.902002086028
73,1435991707361,34.8928147600914
74,1435991707870,61.8302440342672
75,1435991708358,34.3888906864683
76,1435991708851,33.353871335936
77,1435991709459,29.1799467159614
78,1435991709944,33.5328181910299
79,1435991710429,33.9595422432682
80,1435991710921,35.9294486676477
81,1435991711420,29.9650686797028
82,1435991711887,32.0616230224553
83,1435991712383,30.0277253232226
84,1435991712877,31.3156108821975
85,1435991713458,30.1846871351531
86,1435991713939,29.6959093290247
87,1435991714419,42.7390931352382
88,1435991714921,40.9825718008576
89,1435991715399,40.4403563596895
90,1435991715890,35.0537487872232
91,1435991716379,48.0919946262825
92,1435991716911,48.3625551568995
93,1435991717363,37.7844097769659
94,1435991717701,28.4610716176553
95,1435991718102,26.0280452526561
96,1435991718531,27.04448144544
97,1435991719015,27.426818350419
98,1435991719491,26.8250663688795
99,1435991719966,28.3256582800732
100,1435991720371,21.3395910024788
101,1435991720843,28.4800152847436
102,1435991721304,21.3961326401709
103,1435991721753,16.5433383599884
104,1435991722242,19.704961506129
105,1435991722740,17.3981218208708
106,1435991723146,21.6670789646798
107,1435991723600,21.1566294740917
108,1435991724062,23.4677236910596
109,1435991724552,22.9680001222829
110,1435991725049,26.3434358304252
111,1435991725517,17.3431818678005
112,1435991726002,17.342492666494
113,1435991726481,21.575163442673
114,1435991727030,22.4226592946987
115,1435991727485,21.0729765096389
116,1435991727974,32.1592672668024
117,1435991728462,39.644608298931
118,1435991728924,30.0377948557682
119,1435991729406,18.2406374604313
120,1435991729888,18.5442135554968
121,1435991730383,19.0807385107539
122,1435991730864,19.6243300348393
123,1435991731322,20.4717892941715
124,1435991731722,21.4918983766864
125,1435991732158,19.3055119911133
126,1435991732641,18.1800955751008
127,1435991733122,16.4549947226527
128,1435991733572,17.8746981195929
129,1435991734012,18.1406964755416
130,1435991734507,18.4425044138286
131,1435991734977,16.8506835894368
132,1435991735463,18.4207919620605
133,1435991735940,16.7939482643627
134,1435991736426,17.1872512739429
135,1435991736902,17.3070228425792
136,1435991737408,18.5023796142098
137,1435991737853,20.5846542230282
138,1435991738249,19.4875939047203
139,1435991738704,20.4710395021275
140,1435991739162,22.2594141422569
141,1435991739659,23.9644848803597
142,1435991740122,22.6401872257898
143,1435991740596,19.7290539347887
144,1435991741075,25.13350823061
145,1435991741559,20.8786317450259
146,1435991742045,20.9199664602172
147,1435991742525,20.8881501140069
148,1435991742999,20.3112002036987
149,1435991743541,21.8050892728147
150,1435991744015,21.625283783025
151,1435991744517,22.3015482689519
152,1435991745004,23.5764740551132
153,1435991745482,23.748644652721
154,1435991745963,25.8478100633238
155,1435991746443,19.650984715998
156,1435991746943,21.0234980567711
157,1435991747448,23.3393993691365
158,1435991747953,26.3750364734608
159,1435991748455,21.166066443497
160,1435991748922,20.9263618288178
161,1435991749390,20.8142805325269
162,1435991749894,22.2803915411914
163,1435991750384,23.4989508712766
164,1435991750884,23.5551857926143
165,1435991751380,25.5123695138849
166,1435991751864,24.6538256483528
167,1435991752354,27.4150225002015
168,1435991752870,25.7934379158958
169,1435991753369,25.3140647417534
170,1435991753876,29.1561847608072
171,1435991754362,28.2772149009941
172,1435991754868,23.4927365692737
173,1435991755367,22.1782820156818
174,1435991755852,19.714462811974
175,1435991756350,19.8064829276029
176,1435991756853,22.3734027851114
177,1435991757349,22.062974906735
178,1435991757859,22.6057764240116
179,1435991758244,19.4494644067963
180,1435991758661,20.2823252830008
181,1435991759115,19.9825165030174
182,1435991759598,22.8498421449066
183,1435991760037,44.5008389327496
184,1435991760426,40.4392815741388
185,1435991760874,42.9666549705483
186,1435991761378,40.8517293217735
187,1435991761868,23.1771418619522
188,1435991762370,41.0968124212892
189,1435991762872,35.3432417908942
190,1435991763367,35.8527903703613
191,1435991763870,31.3918814829526
192,1435991764365,23.0910678087553
193,1435991764862,26.7301831449602
194,1435991765357,28.9097926876627
195,1435991765840,25.2515997521627
196,1435991766325,24.2278059253946
197,1435991766839,29.0874274980166
198,1435991767334,34.9829111676861
199,1435991767834,24.3906021400253
200,1435991768350,21.7933240219272
201,1435991768845,24.5132865840047
202,1435991769341,24.6283585884273
203,1435991769848,25.5608411487289
204,1435991770357,26.5269557638546
205,1435991770869,27.887806764106
206,1435991771365,25.1651672451811
207,1435991771870,25.3240360439968
208,1435991772369,25.2251980079704
209,1435991772859,24.2783951947308
210,1435991773354,23.5317504307077
211,1435991773895,24.2616525343873
212,1435991774390,21.5228290825283
213,1435991774891,23.947434496421
214,1435991775397,29.872750150859
215,1435991775892,24.2159326599948
216,1435991776378,25.7532290875618
217,1435991776872,23.7120378693205
218,1435991777362,24.4358847561422
219,1435991777869,25.3748768945234
220,1435991778289,25.4730486152193
221,1435991778650,22.1557583900475
222,1435991779133,29.9709166823997
223,1435991779620,27.7147259066528
224,1435991780118,26.2492141856175
225,1435991780598,25.7378353789144
226,1435991781097,23.8764019889629
227,1435991781591,21.8130859544598
228,1435991782002,20.457964176878
229,1435991782444,21.0174209116619
230,1435991782908,23.4090655931819
231,1435991783434,25.2139196010062
232,1435991783929,28.5847501207067
233,1435991784411,29.2353963021714
234,1435991784921,24.695618114477
235,1435991785413,25.9067545289802
236,1435991785919,23.9766942507507
237,1435991786413,33.073800341762
238,1435991786918,39.0401552245923
239,1435991787397,43.632042533916
240,1435991787906,39.2528561763113
241,1435991788479,41.0912925832259
242,1435991788922,27.6459327902998
243,1435991789318,29.7574326423013
244,1435991789801,27.2157955343572
245,1435991790288,23.3547100401075
246,1435991790811,24.4879328578893
247,1435991791299,26.2936071439957
248,1435991791828,58.223206434399
249,1435991792317,50.3335445560467
250,1435991792843,60.96657451226
251,1435991793339,60.4807674356757
252,1435991793840,61.6311017770832
253,1435991794299,29.0065625470103
254,1435991794800,22.8199860891173
255,1435991795289,45.1077680185503
256,1435991795812,29.5758478337122
257,1435991796293,22.7644568681666
258,1435991796811,22.3899439747023
259,1435991797306,18.3482091021588
260,1435991797795,22.4334292030528
261,1435991798231,20.4579321328734
262,1435991798702,22.8886998907579
263,1435991799173,25.2248498139318
264,1435991799685,24.5416877253935
265,1435991800171,27.9979689447031
266,1435991800681,26.0479041061544
267,1435991801164,32.7208409020902
268,1435991801651,34.4477019264697
269,1435991802146,27.7395832599433
270,1435991802625,21.0175775056018
271,1435991803099,22.7064180604793
272,1435991803639,25.9182137628161
273,1435991804140,27.7455218876849
274,1435991804628,23.1473235227954
275,1435991805102,22.334914679041
276,1435991805577,24.2302006467632
277,1435991806063,23.4428235539602
278,1435991806526,22.4022462958947
279,1435991807028,26.601503389945
280,1435991807486,25.3531720892219
281,1435991807905,25.8441834184712
282,1435991808369,27.3499827912249
283,1435991808854,26.8446238873074
284,1435991809362,30.4684521396981
285,1435991809870,27.8429739348519
286,1435991810368,27.8014742373945
287,1435991810871,25.2220142164112
288,1435991811392,27.7819033918992
289,1435991811869,28.4517372862598
290,1435991812368,27.0198016204024
291,1435991812854,28.4134106595971
292,1435991813298,26.6691154571073
293,1435991813803,26.8261006065153
294,1435991814273,25.6208004987059
295,1435991814785,27.9136575264217
296,1435991815268,25.8681435301815
297,1435991815775,25.3763333551582
298,1435991816277,33.5158430304823
299,1435991816797,27.8007456991843
300,1435991817262,27.7811130981421
301,1435991817777,26.7803969666307
302,1435991818269,26.3907749056882
303,1435991818765,25.3987124673551
304,1435991819138,23.4711154387314
305,1435991819513,24.0207347848696
306,1435991819925,28.0982816747268
307,1435991820403,26.8267348625865
308,1435991820892,27.7577858619282
309,1435991821381,28.3224106285433
310,1435991821869,28.7615763953107
311,1435991822369,31.4858287613225
312,1435991822869,30.1246284903657
313,1435991823367,32.7441123908636
314,1435991823882,35.2405871668484
315,1435991824389,29.426862471212
316,1435991824896,34.629914610453
317,1435991825386,41.260347549661
318,1435991825882,42.7626046838915
319,1435991826386,40.1681949020292
320,1435991826879,25.2503220472686
321,1435991827376,34.9667810405382
322,1435991827863,32.3568478354434
323,1435991828360,28.9117560962491
324,1435991828833,24.6391042653097
325,1435991829202,35.2228135283559
326,1435991829656,26.142873850288
327,1435991830101,23.4938708774268
328,1435991830571,22.4842508627476
329,1435991831049,24.2465144683093
330,1435991831523,29.1180920921719
331,1435991832008,20.1868365861981
332,1435991832513,24.8173949678277
333,1435991833018,52.8464763728064
334,1435991833516,59.9973000046041
335,1435991834009,61.7145202262498
336,1435991834488,40.4135131702338
337,1435991834981,38.0481441705912
338,1435991835468,20.1504598654028
339,1435991835951,49.6392360998111
340,1435991836430,18.2861386933253
341,1435991836907,19.0749171521632
342,1435991837391,44.0368845993291
343,1435991837882,17.6603878233512
344,1435991838362,27.411815360856
345,1435991838842,51.79977388713
346,1435991839246,55.3505506790917
347,1435991840708,44.6043762999459
348,1435991841158,56.9059018960169
349,1435991841640,39.5919216397467
350,1435991842093,49.6692276395227
351,1435991842519,39.7640660133493
352,1435991842955,22.932900750729
353,1435991843429,17.9068192633794
354,1435991843923,23.7830993547572
355,1435991844393,20.3292807792847
356,1435991844823,18.4806081466544
357,1435991845280,22.3338876492053
358,1435991845789,26.7420425291724
359,1435991846254,42.4710984183339
360,1435991846761,43.9571745303277
361,1435991847267,21.4565967387928
362,1435991847772,57.8054613975481
363,1435991848264,50.4694335882906
364,1435991848772,54.5209727603954
365,1435991849255,35.445425587365
366,1435991849744,46.955207115974
367,1435991850236,39.642180338577
368,1435991850732,49.8996065106653
369,1435991851214,39.0893649241388
370,1435991851719,69.2625033880082
371,1435991852203,73.0684862265413
372,1435991852678,66.7387550410275
373,1435991853152,55.6516356430088
374,1435991853647,26.3134143900768
375,1435991854157,20.4760097501686
376,1435991855842,19.7632277017632
377,1435991856246,20.3437568708089
378,1435991856719,19.7273943686419
379,1435991857204,17.4034332619452
380,1435991857688,55.5885977325216
381,1435991858177,56.6239051161352
382,1435991858628,48.8031209929685
383,1435991859053,34.1784316354026
384,1435991859509,61.1515230315349
385,1435991859972,24.4656334036875
386,1435991860480,40.5786859627503
387,1435991860962,23.4549637030631
388,1435991861447,19.8394937692476
389,1435991861917,19.7925753102595
390,1435991862397,44.1049594555996
391,1435991862891,27.4233538798293
392,1435991863374,53.0490281797428
393,1435991863877,20.6205879822255
394,1435991864389,19.1037764249697
395,1435991864878,19.3919973431703
396,1435991865389,17.8347276803762
397,1435991865894,16.9748125902192
398,1435991866384,18.2442281729075
399,1435991866880,21.5982156969831
400,1435991867374,19.5276251347231
401,1435991867871,19.2226125799863
402,1435991868353,20.1276173490127
403,1435991868861,21.9790984343685
404,1435991869356,21.7287816739847
405,1435991869883,20.7601032723481
406,1435991870395,20.2064670272834
407,1435991870893,20.3183229735356
408,1435991871312,46.170571297839
409,1435991871662,47.4592813142216
410,1435991872097,61.197956722737
411,1435991872558,54.1401220514166
412,1435991873043,30.2849432608805
413,1435991873514,19.2473115382189
414,1435991873998,59.2178116605438
415,1435991874482,30.7347839632014
416,1435991874973,52.8020368358039
417,1435991875449,45.3054669194946
418,1435991875930,58.6838139374514
419,1435991876437,21.4985503899691
420,1435991876895,20.9027122538253
421,1435991878475,19.7685211757986
422,1435991878845,20.6688484110697
423,1435991879300,20.8294967551214
424,1435991879886,19.8670521922848
425,1435991880338,21.6906024151533
426,1435991880772,19.7978038565123
427,1435991881188,18.4645361340528
428,1435991881571,18.5227457403981
429,1435991882053,16.5838454641694
430,1435991882563,38.0601538616411
431,1435991883068,43.2381431780663
432,1435991883581,47.4467296728936
433,1435991883998,41.6261195697294
434,1435991884466,29.9988263391736
435,1435991884958,20.5369804735919
436,1435991885445,25.867784374238
437,1435991885968,35.7288112560291
438,1435991886439,31.2754386696527
439,1435991886914,21.5273866536882
440,1435991887390,50.9341206993728
441,1435991887880,31.4960203509726
442,1435991888382,45.8106579499878
443,1435991888863,28.0914758236746
444,1435991889320,35.9098438687327
445,1435991889848,41.7473525565193
446,1435991890278,39.9469584182337
447,1435991891563,43.9232682352126
448,1435991891921,43.0387115320423
449,1435991892356,18.6560379150552
450,1435991892841,17.9790321195318
451,1435991893331,15.832346596744
452,1435991893875,57.7836396614556
453,1435991894352,38.2515512912486
454,1435991894908,36.6889383288259
455,1435991895422,27.3069835474168
456,1435991895910,39.2157251223927
457,1435991896416,18.4397614235519
458,1435991896900,19.4101126135124
459,1435991897409,16.8965212992738
460,1435991897931,53.4430991961432
461,1435991898427,18.3141294427339
462,1435991898870,56.2162737840481
463,1435991899298,53.4219845849613
464,1435991899749,44.2591935689981
465,1435991900166,61.3856193614587
466,1435991900518,37.7915279532295
467,1435991900931,64.9936389972716
468,1435991901387,46.0351682981808
469,1435991901883,54.3298514902615
470,1435991902409,48.1230624185577
471,1435991902958,16.4049540886025
472,1435991903388,17.6021348340654
473,1435991903812,16.575770480942
474,1435991904263,63.998584394083
475,1435991904816,61.0401926945795
476,1435991905322,54.5937196026176
477,1435991905846,56.062140824802
478,1435991906351,63.119716515449
479,1435991906840,30.0547383598643
480,1435991907333,43.1035635047009
481,1435991907821,58.9487793307491
482,1435991908326,24.2956000712078
483,1435991908862,18.7171982167101
484,1435991909361,19.3687544622484
485,1435991909951,47.0757390003213
486,1435991910431,56.020565197528
487,1435991910920,48.8042114671791
488,1435991911433,45.9328214153878
489,1435991911926,62.0230542428725
490,1435991912434,53.3646866198688
491,1435991912924,51.808240660921
492,1435991913418,28.87982091589
493,1435991913897,57.5413229861034
494,1435991914272,64.8097474894106
495,1435991914693,61.0427329591021
496,1435991915138,69.006993647652
497,1435991915629,63.4474546826841
498,1435991916128,62.4392733200175
499,1435991916640,25.9006791660638
500,1435991917134,23.1475182333912
501,1435991917594,48.0145265645823
502,1435991918105,22.9162213456036
503,1435991918595,59.8858332021441
504,1435991919052,58.8255017838228
505,1435991919563,46.0708229140007
506,1435991920050,59.3565153216469
507,1435991920517,27.0646720464465
508,1435991920915,24.0228434323839
509,1435991921403,65.0670652922009
510,1435991921892,67.7909781813092
511,1435991922396,57.4523794127382
512,1435991922917,63.9337049661676
513,1435991923413,66.9710988245439
514,1435991923907,45.5119729105896
515,1435991924396,59.7111172360515
516,1435991924891,58.9304056381801
517,1435991925378,51.1260687492002
518,1435991925865,21.8287088396855
519,1435991926238,64.0377356231122
520,1435991926653,66.898649772288
521,1435991927112,61.3730317904603
522,1435991927625,56.8262827151966
523,1435991928151,59.0608998358751
524,1435991928641,37.6730265211873
525,1435991929143,21.6471181543903
526,1435991929615,57.4981273766197
527,1435991930042,69.0888733706703
528,1435991930427,65.122596748739
529,1435991930855,58.0916686093355
530,1435991931331,27.90595440464
531,1435991931822,30.2861163313536
532,1435991932302,51.3243049867816
533,1435991932823,51.370692612652
534,1435991933306,69.5791988033056
535,1435991933823,70.791161435845
536,1435991934306,34.2345705698307
537,1435991934836,66.8909262530043
538,1435991935338,60.7661997912609
539,1435991935830,71.9678745929839
540,1435991936338,64.4965099467636
541,1435991936855,40.9870625291323
542,1435991937354,19.7964376135464
543,1435991937873,65.2727042535431
544,1435991938384,60.5107394841607
545,1435991938869,64.7758754999984
546,1435991939380,66.6451320014935
547,1435991939870,51.0224749377612
548,1435991940396,20.7327656341946
549,1435991940762,61.3519293516187
550,1435991941135,48.2898554111027
551,1435991941630,67.4694939655646
552,1435991942118,48.9163933073315
553,1435991942585,54.4917720051056
554,1435991943005,23.1149652072593
555,1435991943443,36.8635679961894
556,1435991943905,28.1583151063248
557,1435991944389,58.0938119505131
558,1435991944884,61.6925345792326
559,1435991945376,65.7684728842703
560,1435991945878,30.0636760643355
561,1435991946368,53.3587425520912
562,1435991946886,21.6588862677406
563,1435991947359,19.9354870755044
564,1435991947961,18.0293378769336
565,1435991948429,19.0684345224528
566,1435991948842,36.2980142803846
567,1435991949307,45.2528756751192
568,1435991949823,56.9512924173815
569,1435991950354,56.3603459317191
570,1435991950852,53.7328022642543
571,1435991951336,49.0514772955527
572,1435991951842,54.6892932907493
573,1435991952352,58.325148369307
574,1435991952848,43.7146186465163
575,1435991953372,46.4397310132849
