id,attr_time,attr_db
1,1435991672641,15.9142019531298
2,1435991673253,15.1915641764433
3,1435991673884,17.5226262137646
4,1435991674538,17.4592116637381
5,1435991675214,19.4404626149153
6,1435991675835,18.9863618533425
7,1435991676505,18.0325829958277
8,1435991677178,23.666636852658
9,1435991677789,21.9791068369587
10,1435991678443,21.1461532252799
11,1435991679081,18.2367067947262
12,1435991679765,16.0421674279567
13,1435991680423,15.6025503726595
14,1435991681071,18.0559201798699
15,1435991681762,32.6926714601217
16,1435991682357,43.1664547966298
17,1435991683020,43.0656211108612
18,1435991683687,49.529798312243
19,1435991684368,39.257413995151
20,1435991685034,32.0906748409073
21,1435991685683,18.1574110584516
22,1435991686335,26.6203049055079
23,1435991686986,44.2893139202973
24,1435991687579,37.2871802887686
25,1435991688208,17.875863443801
26,1435991688835,22.1260576580284
27,1435991689516,16.7163862868139
28,1435991690141,16.2419093327838
29,1435991690814,16.9872946178068
30,1435991691452,15.9887114797932
31,1435991692088,21.6315140733746
32,1435991692748,19.7205497826623
33,1435991693388,18.1731078606084
34,1435991694039,19.6229529582096
35,1435991694654,16.4262127618242
36,1435991695318,15.6935336620153
37,1435991695935,15.8194808865803
38,1435991696565,14.8901885430476
39,1435991697193,15.9995777184671
40,1435991697882,15.9098729747739
41,1435991698509,15.9130771906245
42,1435991699122,14.965386156571
43,1435991699804,16.3529477129097
44,1435991700387,20.6502294963834
45,1435991701080,17.7196488159824
46,1435991701727,23.2067646295261
47,1435991702341,21.5222089722329
48,1435991702989,21.1711292696357
49,1435991703641,23.6914416905131
50,1435991704310,30.591261871164
51,1435991704987,23.2767038167886
52,1435991705648,28.6236307583493
53,1435991706294,24.2567044029858
54,1435991706967,27.4342751423706
55,1435991707635,41.554933083186
56,1435991708299,32.4394392548565
57,1435991708986,23.0570512660031
58,1435991709633,31.3841470788362
59,1435991710281,37.3172437733581
60,1435991710895,25.862653654582
61,1435991711558,21.0855928631962
62,1435991712224,24.1064407844706
63,1435991712837,24.7113345314274
64,1435991713501,23.4649645030841
65,1435991714139,39.7103179445577
66,1435991714789,45.2042800511016
67,1435991715369,45.5919537870597
68,1435991716013,50.2004401199908
69,1435991716692,47.4904148953426
70,1435991717315,57.9268772309765
71,1435991717912,35.5721522299325
72,1435991718564,46.3802684203272
73,1435991719249,28.9096784189526
74,1435991719872,48.807347404504
75,1435991720542,40.7864128646202
76,1435991721222,39.6692938583569
77,1435991721815,26.8110888766736
78,1435991722422,24.3718403997655
79,1435991723031,23.9208415527653
80,1435991723680,32.7279155945786
81,1435991724348,18.9804568147558
82,1435991724998,27.440338943068
83,1435991725630,20.7613514019123
84,1435991726286,30.8842068788069
85,1435991726943,38.3474619517472
86,1435991727559,18.8691098363561
87,1435991728226,37.7472081775305
88,1435991728886,39.2476113190395
89,1435991729511,22.5280764006346
90,1435991730151,31.4669175783822
91,1435991730790,35.8337648896898
92,1435991731460,19.3321382078417
93,1435991732108,38.9580099130234
94,1435991732777,17.6931477075485
95,1435991733425,31.503480533204
96,1435991734051,33.9405320625082
97,1435991734698,16.0382038623503
98,1435991735332,17.2453722839065
99,1435991736011,24.0281685226296
100,1435991736614,12.1475781109596
101,1435991737216,19.3917410490701
102,1435991737892,33.2065133956898
103,1435991738519,27.3932757345843
104,1435991739132,22.6934946006513
105,1435991739812,20.0557814781373
106,1435991740493,31.7307817647459
107,1435991741139,18.8076049554112
108,1435991741803,19.9616492429219
109,1435991742462,16.2925145401423
110,1435991743076,31.0808951294421
111,1435991743731,41.472614110357
112,1435991744356,27.6814218685405
113,1435991745033,37.7292012351981
114,1435991745686,23.6646833300095
115,1435991746320,28.3330650738887
116,1435991746993,29.2043141738485
117,1435991747611,20.9224600324113
118,1435991748291,19.5847858026039
119,1435991748958,16.2642585767581
120,1435991749584,19.9761157527105
121,1435991750226,22.0328974280987
122,1435991750869,37.306690152535
123,1435991751555,24.181951943054
124,1435991752193,25.1907136297911
125,1435991752840,27.8368506896119
126,1435991753503,31.6619079823257
127,1435991754104,41.1967789195466
128,1435991754760,22.1944384188438
129,1435991755400,19.6716899473926
130,1435991756036,33.4114445063201
131,1435991756681,25.2503336300495
132,1435991757320,25.9763954426143
133,1435991757946,22.9855726500312
134,1435991758622,20.0194230358814
135,1435991759276,20.9949206959106
136,1435991759925,43.1190784511897
137,1435991760604,26.3917389049082
138,1435991761280,43.1994327708662
139,1435991761900,53.4594610176135
140,1435991762564,49.653849142875
141,1435991763201,61.1406995203973
142,1435991763848,44.1336989456823
143,1435991764518,57.6025135687762
144,1435991765167,31.5099640754793
145,1435991765827,28.4257290135944
146,1435991766449,25.7977387231837
147,1435991767119,37.0895620081278
148,1435991767827,40.9410741007932
149,1435991768422,19.3269763012819
150,1435991769045,27.4427502679882
151,1435991769639,24.9004825700619
152,1435991770322,21.8860620603996
153,1435991770996,23.0217095569285
154,1435991771612,30.7736810480072
155,1435991772282,26.6489251033524
156,1435991772947,19.0525546141335
157,1435991773589,23.2840596114078
158,1435991774230,31.3439387564723
159,1435991774842,16.3635012875302
160,1435991775482,16.8789962178752
161,1435991776127,17.3378647890443
162,1435991776790,18.3703462805418
163,1435991777463,19.4681633576019
164,1435991778145,16.6843860507537
165,1435991778783,15.9203809785377
166,1435991779456,19.5641518823678
167,1435991780099,16.9790079096864
168,1435991780735,16.3856406110285
169,1435991781394,18.4894679856189
170,1435991782042,16.5295417424082
171,1435991782703,18.4110378689252
172,1435991783317,18.2364369551814
173,1435991783969,17.1197590365564
174,1435991784655,20.9914098269711
175,1435991785254,16.847025903157
176,1435991785920,20.4471549078135
177,1435991786587,21.075207646088
178,1435991787234,39.8193951349897
179,1435991787895,37.9678416378145
180,1435991788520,29.5203073954659
181,1435991789137,21.0058354391986
182,1435991789801,23.103550395462
183,1435991790463,26.4521119443855
184,1435991791095,17.2607280985809
185,1435991791769,42.291094576689
186,1435991792413,37.9345788181699
187,1435991793083,43.2772263250964
188,1435991793698,40.1176156217705
189,1435991794370,15.1766127637789
190,1435991795027,21.176525509156
191,1435991795590,36.2978231730547
192,1435991796852,13.5572874580556
193,1435991797512,15.323707477437
194,1435991798107,11.5443217565781
195,1435991798687,14.1285348062238
196,1435991799335,14.4842194480157
197,1435991799999,13.0300425622356
198,1435991800630,12.9647179001989
199,1435991801319,14.3322238579152
200,1435991801987,16.5127340849554
201,1435991802627,15.2747520485503
202,1435991803236,15.4810818438811
203,1435991804750,15.2031488485134
204,1435991805407,18.3604564910447
205,1435991806074,20.0264930695635
206,1435991806682,20.422072510888
207,1435991807334,17.7303798090608
208,1435991807988,17.8184605467512
209,1435991808632,21.1583212544205
210,1435991809283,20.8643316733094
211,1435991809891,18.2185506327869
212,1435991811051,17.8301087546422
213,1435991811689,15.6090325358978
214,1435991812342,19.2249606065555
215,1435991813024,17.6383392329187
216,1435991813625,20.108006902267
217,1435991814279,19.8824924679752
218,1435991814859,17.5738582827654
219,1435991815866,14.9148121588028
220,1435991816514,18.3504110284334
221,1435991817150,18.4837804257846
222,1435991817819,14.8930902562416
223,1435991818491,17.5949096446726
224,1435991819141,16.3348415479362
225,1435991819810,16.2132279393833
226,1435991820470,14.4592180340824
227,1435991821127,17.0966509894496
228,1435991821762,15.005205219912
229,1435991822417,16.63013381997
230,1435991823101,16.8887061200089
231,1435991823744,16.7080750951032
232,1435991824391,18.3153701086473
233,1435991825055,45.7439683812213
234,1435991825673,40.2902221196371
235,1435991826284,54.474467834173
236,1435991826924,30.9694732762602
237,1435991827605,46.021037972892
238,1435991828247,40.6109019684913
239,1435991828909,40.1361553063022
240,1435991829589,38.0855054385618
241,1435991830256,29.6456292915527
242,1435991830856,38.9299028815079
243,1435991831526,37.7637464639641
244,1435991832158,33.7364906011008
245,1435991832792,43.5460011031112
246,1435991833459,53.2435596393416
247,1435991834110,37.2801278284652
248,1435991834723,41.2787569521258
249,1435991835349,17.6648775854542
250,1435991836009,42.8073182154818
251,1435991836675,17.4148681917896
252,1435991837379,36.5911118853509
253,1435991838044,53.168023854339
254,1435991838698,41.0341074738518
255,1435991839382,47.7973514423874
256,1435991840054,48.1641531944491
257,1435991840757,41.9750658308527
258,1435991841423,49.3000378402399
259,1435991842077,38.7308104275312
260,1435991842684,16.7683813244496
261,1435991843330,13.5480709729374
262,1435991843978,22.1819138717627
263,1435991844641,12.9480598490217
264,1435991845260,13.6614152218891
265,1435991845973,38.9631289783058
266,1435991846658,45.9665435458058
267,1435991847286,16.8022004975457
268,1435991847954,34.7810027067013
269,1435991848606,51.4737905535515
270,1435991849246,42.395971555747
271,1435991849895,49.8200962571128
272,1435991850541,46.9391250021062
273,1435991851221,46.4414018638828
274,1435991851834,58.5136281149928
275,1435991852504,59.1891495687233
276,1435991853162,60.8009330464047
277,1435991853811,41.0380009437509
278,1435991854435,18.4835122278784
279,1435991855081,10.7544102321901
280,1435991855663,14.5797677293222
281,1435991856252,16.8063314384595
282,1435991856938,10.780080002105
283,1435991857600,42.0088401747048
284,1435991858228,52.7710728923555
285,1435991858872,39.6394659518698
286,1435991859536,41.5983791828891
287,1435991860178,38.8552724968139
288,1435991860860,15.8742844128277
289,1435991861538,17.9827258215393
290,1435991862211,40.9426254730439
291,1435991862883,40.3751562205781
292,1435991863565,15.0679629047281
293,1435991864244,49.382560524923
294,1435991864925,11.3993560346043
295,1435991865555,14.3206676247871
296,1435991866207,20.9510919878963
297,1435991866845,14.6923374734757
298,1435991867508,14.8118469707686
299,1435991868156,18.9176667025749
300,1435991868782,24.4226570963667
301,1435991869445,19.7262086846068
302,1435991870112,14.3006947813746
303,1435991870753,14.7151145593546
304,1435991871427,42.82654546093
305,1435991872098,42.0288088205453
306,1435991872704,40.5828093968268
307,1435991873382,15.7635451672402
308,1435991874061,46.0934469159935
309,1435991874695,33.2612950186298
310,1435991875363,35.9988135149977
311,1435991875990,30.0471210122225
312,1435991876613,14.5191755549929
313,1435991877268,17.5807505939119
314,1435991877933,14.2110759771148
315,1435991878548,21.2182487286549
316,1435991879168,17.1964433303297
317,1435991879818,14.3813116166235
318,1435991880477,13.3559820578383
319,1435991881090,14.4339048392683
320,1435991881738,15.0472022400988
321,1435991882394,41.1451201494311
322,1435991883035,47.9288986025577
323,1435991883688,40.93654888633
324,1435991884335,31.8257339329266
325,1435991885017,18.0671597403613
326,1435991885627,34.128444913783
327,1435991886277,43.3985227101128
328,1435991886939,15.220514840773
329,1435991887518,45.5017126116303
330,1435991888136,44.2972938958426
331,1435991888749,60.7589070365043
332,1435991889396,62.273275540747
333,1435991890053,52.5508436721139
334,1435991890704,53.0359082245975
335,1435991891384,59.3437864029566
336,1435991892050,34.8253461970039
337,1435991892681,34.153711600106
338,1435991893340,23.9444836525696
339,1435991893992,24.8899550746443
340,1435991894665,53.4717670853944
341,1435991895323,29.495745805608
342,1435991895968,44.9094398521649
343,1435991896588,21.0710577802172
344,1435991897253,17.339924362994
345,1435991897916,44.5546499762105
346,1435991898571,45.6604128519654
347,1435991899240,40.3465956244248
348,1435991899895,45.0389224742531
349,1435991900526,28.1939188026359
350,1435991901181,47.8177946065106
351,1435991901855,40.4325742078825
352,1435991902469,47.8104215411494
353,1435991903096,21.0884430931117
354,1435991903777,33.966303939445
355,1435991904422,46.9190201786594
356,1435991905061,46.1160325405404
357,1435991905730,45.0366908630721
358,1435991906383,44.2170765145114
359,1435991907021,13.9097045333838
360,1435991907666,43.7857514309703
361,1435991908322,17.7581437015816
362,1435991908967,17.2063347641972
363,1435991909570,36.0971893711706
364,1435991910229,40.5342831024723
365,1435991910853,42.4153289672804
366,1435991911533,43.7827624885024
367,1435991912172,44.0275875718357
368,1435991912830,36.1476000738788
369,1435991913454,46.0980649743232
370,1435991914098,39.4898046960364
371,1435991914755,43.5173717387184
372,1435991915405,47.8703240616727
373,1435991916005,43.816429170304
374,1435991916693,34.2965036740882
375,1435991917321,31.916916711382
376,1435991917967,22.9947342308071
377,1435991918573,43.3270679503815
378,1435991919270,56.5683739940533
379,1435991919911,41.2898572259083
380,1435991920533,17.7142082301528
381,1435991921190,48.1724671853793
382,1435991921840,52.8331589368999
383,1435991922481,54.5120592099515
384,1435991923137,47.2286181717598
385,1435991923799,33.0244903405612
386,1435991924467,51.3365919179663
387,1435991925093,50.2848183732582
388,1435991925757,23.3446218792327
389,1435991926389,39.348873225048
390,1435991927028,44.129001313176
391,1435991927647,37.0116661071347
392,1435991928301,50.5609367935582
393,1435991928972,15.4509379896203
394,1435991929578,51.9126950079885
395,1435991930261,37.7428191135454
396,1435991930878,47.308970372899
397,1435991931562,20.4087781097895
398,1435991932180,43.0250948408382
399,1435991932849,43.5221759341415
400,1435991933495,43.3722269073012
401,1435991934151,40.640239834667
402,1435991934772,49.0471810776546
403,1435991935406,58.288905344218
404,1435991935999,55.9616563083587
405,1435991936645,33.4624903020239
406,1435991937305,14.7659519471579
407,1435991937961,51.4217551726624
408,1435991938638,44.102112683212
409,1435991939299,44.5792435629604
410,1435991939978,18.3366535232174
411,1435991940675,46.3278901168973
412,1435991941345,41.7620169290405
413,1435991942041,42.7535683363547
414,1435991942692,45.4169651472399
415,1435991943334,37.6783791216047
416,1435991944004,53.7627107110984
417,1435991944659,44.4872118577042
418,1435991945304,42.9721254322537
419,1435991945952,28.0000497085162
420,1435991946628,23.2285245822903
421,1435991947261,21.968478911591
422,1435991947939,15.0299829850007
423,1435991948608,36.264680767057
424,1435991949242,41.9758119465681
425,1435991949918,33.4975254779148
426,1435991950555,37.0363332147776
427,1435991951196,43.0953508885704
428,1435991951836,40.9093057929392
429,1435991952475,37.877259417316
430,1435991953127,45.7126232815629
431,1435991953744,40.7153914866996
432,1435991954401,29.0803641437565
433,1435991955082,45.0328401844423
434,1435991955715,23.6974316356417
435,1435991956389,40.7694708324205
436,1435991956985,48.4742915663177
437,1435991957665,59.4582301003237
438,1435991958278,43.649588934783
439,1435991958951,17.6163559717506
440,1435991959612,50.7418701852946
441,1435991960244,44.7475620265977
442,1435991960945,53.2152254703227
443,1435991961593,54.76258553721
444,1435991962236,41.9637486245709
445,1435991962889,41.5456503962889
446,1435991963539,48.5002638302995
447,1435991964201,52.9952225421834
448,1435991964835,59.2474316862203
449,1435991965510,47.1867441180248
450,1435991966193,50.1703658782593
451,1435991966817,47.2581296856172
452,1435991967470,37.9252792571852
453,1435991968136,45.6510944954705
454,1435991968782,51.0138415336697
455,1435991969403,42.2245899139094
456,1435991970044,40.1365929063889
457,1435991970684,49.2210718245921
458,1435991971325,51.4792257464302
459,1435991972007,45.3733515873379
460,1435991972672,55.9368524040726
461,1435991973296,29.0247933046948
462,1435991973942,22.3585657965691
463,1435991974553,23.0790756771682
464,1435991975176,31.5650816662838
465,1435991975819,18.5941368928456
466,1435991976475,28.5177248932916
467,1435991977111,36.2963824341834
468,1435991977736,21.6750744609798
469,1435991978367,43.0559088726869
470,1435991979026,32.8492202407659
471,1435991979610,44.2722365948327
472,1435991980205,40.2366272245756
473,1435991980836,43.6485508651127
474,1435991981482,18.6777215324073
475,1435991982160,47.368645085445
476,1435991982820,19.8128097929724
477,1435991983477,36.8445832502621
478,1435991984141,41.658768668934
479,1435991984785,35.8541538618706
480,1435991985391,48.4569116169772
481,1435991986071,30.8860520494973
482,1435991986752,36.3749765586629
483,1435991987376,26.3686057762838
484,1435991988019,12.0011059682194
485,1435991988640,22.446912479052
486,1435991989286,30.6332650669322
487,1435991989891,23.2608442276396
488,1435991990567,46.4186202498349
489,1435991991202,32.0799723498007
490,1435991991836,15.2038584952048
491,1435991992493,17.3416800383385
492,1435991993136,20.5120161438766
493,1435991993774,48.6256783159284
494,1435991994379,39.9095967832819
495,1435991995064,43.3981585671684
496,1435991995739,37.1916068880992
497,1435991996368,31.4479731890964
498,1435991997042,19.2971718505685
499,1435991997709,29.2460636861423
500,1435991998331,36.9501522103901
501,1435991998926,41.6901100439987
502,1435991999532,41.806265820635
503,1435992001046,34.6719809635802
504,1435992001715,42.3930033458549
505,1435992002349,35.0537189466152
506,1435992003004,49.1329289913945
507,1435992003680,32.4868135894197
508,1435992004320,49.9620423660522
509,1435992004968,34.9111569554636
510,1435992005635,32.3630775617661
511,1435992006229,33.0766023174453
512,1435992006840,36.3179501947795
513,1435992007515,25.9821469010906
514,1435992008178,31.6366532157509
515,1435992008807,32.0901992418281
516,1435992009445,16.0756045781252
517,1435992010102,31.3015842195034
518,1435992010739,31.5032715794056
519,1435992011364,40.8632986222423
520,1435992012810,48.3288192296332
521,1435992013489,63.1685233471934
522,1435992014177,40.1735922803522
523,1435992014792,40.1514496235229
524,1435992015439,40.9332069083862
525,1435992016038,35.7803684467729
526,1435992016688,34.5816001230921
527,1435992017345,36.1887041500685
528,1435992017977,23.0113336517314
529,1435992018626,27.3684933452097
530,1435992019276,25.8337714299226
531,1435992019909,22.8839721695493
532,1435992020540,42.5920785517491
533,1435992021216,23.8574532753496
534,1435992021880,44.9885884449964
535,1435992022491,34.3566611171409
536,1435992023144,20.7945344231421
537,1435992023791,39.8615944902782
538,1435992024477,55.7976262954587
539,1435992025119,51.8947102945615
540,1435992025751,50.7574123935978
541,1435992027297,20.1902862783824
542,1435992027963,41.7646686138488
543,1435992028598,38.8316525930731
544,1435992029269,50.1135529080123
545,1435992029937,62.3475833947386
546,1435992030537,62.9840908272705
547,1435992031191,23.5358447679733
548,1435992031871,25.9134642149527
549,1435992032524,24.9826781064112
550,1435992033165,20.7724878794618
551,1435992033830,28.2315854403002
552,1435992034488,18.7002850717922
553,1435992035073,24.1357332480442
554,1435992035992,23.2928724666032
555,1435992036634,20.1346278737836
556,1435992037289,17.9321807799544
557,1435992037944,16.7039266554516
558,1435992038594,15.3769998001359
559,1435992039253,20.7522170748171
560,1435992039899,19.9089911168576
561,1435992040556,20.4483793828228
562,1435992041175,51.7849937581699
563,1435992041840,19.3906231793431
564,1435992042490,22.8635573484445
565,1435992043128,17.2027196882889
566,1435992043778,15.1651577604369
567,1435992044435,19.1512472345875
568,1435992045102,17.4767287937375
569,1435992045716,36.6253184208751
570,1435992046340,41.2615609958581
571,1435992047009,37.8985441990298
572,1435992047668,47.8758206448956
573,1435992048264,47.5630972530026
574,1435992048917,33.5668988474969
575,1435992049565,44.5048998960642
