id,attr_time,attr_light
1,1436164600934,27.0
2,1436164600952,27.0
3,1436164600972,27.0
4,1436164600995,27.0
5,1436164601016,27.0
6,1436164601033,27.0
7,1436164601053,27.0
8,1436164601077,27.0
9,1436164601097,27.0
10,1436164601119,27.0
11,1436164601137,27.0
12,1436164601158,27.0
13,1436164601177,27.0
14,1436164601197,27.0
15,1436164601219,27.0
16,1436164601238,27.0
17,1436164601255,27.0
18,1436164601277,27.0
19,1436164601309,27.0
20,1436164601314,27.0
21,1436164601334,27.0
22,1436164601354,27.0
23,1436164601374,27.0
24,1436164601394,27.0
25,1436164601414,27.0
26,1436164601434,27.0
27,1436164601454,27.0
28,1436164601474,27.0
29,1436164601494,27.0
30,1436164601517,27.0
31,1436164601589,27.0
32,1436164601590,27.0
33,1436164601591,27.0
34,1436164601600,27.0
35,1436164601614,27.0
36,1436164601640,27.0
37,1436164601654,27.0
38,1436164601674,27.0
39,1436164601697,27.0
40,1436164601715,27.0
41,1436164601734,27.0
42,1436164601758,27.0
43,1436164601779,27.0
44,1436164601794,27.0
45,1436164601814,27.0
46,1436164601837,27.0
47,1436164601857,28.0
48,1436164601877,28.0
49,1436164601897,28.0
50,1436164601917,28.0
51,1436164601938,28.0
52,1436164601957,28.0
53,1436164601977,28.0
54,1436164601996,28.0
55,1436164602018,28.0
56,1436164602038,28.0
57,1436164602057,28.0
58,1436164602077,28.0
59,1436164602095,28.0
60,1436164602119,28.0
61,1436164602140,28.0
62,1436164602159,28.0
63,1436164602176,28.0
64,1436164602195,28.0
65,1436164602215,28.0
66,1436164602235,28.0
67,1436164602261,28.0
68,1436164602276,28.0
69,1436164602341,28.0
70,1436164602342,28.0
71,1436164602343,28.0
72,1436164602355,28.0
73,1436164602377,28.0
74,1436164602396,28.0
75,1436164602415,28.0
76,1436164602438,28.0
77,1436164602455,28.0
78,1436164602476,28.0
79,1436164602503,28.0
80,1436164602516,28.0
81,1436164602535,28.0
82,1436164602557,28.0
83,1436164602575,28.0
84,1436164602595,28.0
85,1436164602615,28.0
86,1436164602638,28.0
87,1436164602658,28.0
88,1436164602678,28.0
89,1436164602698,28.0
90,1436164602720,28.0
91,1436164602737,28.0
92,1436164602758,28.0
93,1436164602777,28.0
94,1436164602799,28.0
95,1436164602817,28.0
96,1436164602840,28.0
97,1436164602860,28.0
98,1436164602880,28.0
99,1436164602898,28.0
100,1436164602916,28.0
101,1436164602936,28.0
102,1436164602957,28.0
103,1436164602978,29.0
104,1436164602995,29.0
105,1436164603068,29.0
106,1436164603069,29.0
107,1436164603092,28.0
108,1436164603093,28.0
109,1436164603098,29.0
110,1436164603115,29.0
111,1436164603135,29.0
112,1436164603155,29.0
113,1436164603187,29.0
114,1436164603195,29.0
115,1436164603216,29.0
116,1436164603235,29.0
117,1436164603255,29.0
118,1436164603275,29.0
119,1436164603298,29.0
120,1436164603319,29.0
121,1436164603339,29.0
122,1436164603359,29.0
123,1436164603378,29.0
124,1436164603399,29.0
125,1436164603419,28.0
126,1436164603439,28.0
127,1436164603458,29.0
128,1436164603478,29.0
129,1436164603499,29.0
130,1436164603516,29.0
131,1436164603539,29.0
132,1436164603558,29.0
133,1436164603581,29.0
134,1436164603607,29.0
135,1436164603623,29.0
136,1436164603637,29.0
137,1436164603656,29.0
138,1436164603677,29.0
139,1436164603696,29.0
140,1436164603717,29.0
141,1436164603739,29.0
142,1436164603789,29.0
143,1436164603801,29.0
144,1436164603802,29.0
145,1436164603816,29.0
146,1436164603838,29.0
147,1436164603858,29.0
148,1436164603877,29.0
149,1436164603899,29.0
150,1436164603917,29.0
151,1436164603937,29.0
152,1436164603958,29.0
153,1436164603977,29.0
154,1436164603997,29.0
155,1436164604019,29.0
156,1436164604039,30.0
157,1436164604059,30.0
158,1436164604079,29.0
159,1436164604099,29.0
160,1436164604119,28.0
161,1436164604139,28.0
162,1436164604159,27.0
163,1436164604180,28.0
164,1436164604200,28.0
165,1436164604220,27.0
166,1436164604239,27.0
167,1436164604259,26.0
168,1436164604278,26.0
169,1436164604300,26.0
170,1436164604320,26.0
171,1436164604340,26.0
172,1436164604359,26.0
173,1436164604378,26.0
174,1436164604399,26.0
175,1436164604419,26.0
176,1436164604438,25.0
177,1436164604461,25.0
178,1436164604522,24.0
179,1436164604523,24.0
180,1436164604524,23.0
181,1436164604539,23.0
182,1436164604572,23.0
183,1436164604579,23.0
184,1436164604597,22.0
185,1436164604618,21.0
186,1436164604637,21.0
187,1436164604660,21.0
188,1436164604679,21.0
189,1436164604698,21.0
190,1436164604718,21.0
191,1436164604740,21.0
192,1436164604759,21.0
193,1436164604780,21.0
194,1436164604802,21.0
195,1436164604820,21.0
196,1436164604840,21.0
197,1436164604859,21.0
198,1436164604880,22.0
199,1436164604900,22.0
200,1436164604920,22.0
201,1436164604942,22.0
202,1436164604957,23.0
203,1436164604980,23.0
204,1436164604999,23.0
205,1436164605018,23.0
206,1436164605039,23.0
207,1436164605061,22.0
208,1436164605081,22.0
209,1436164605100,22.0
210,1436164605120,22.0
211,1436164605140,22.0
212,1436164605160,22.0
213,1436164605179,22.0
214,1436164605200,22.0
215,1436164605224,22.0
216,1436164605290,22.0
217,1436164605291,22.0
218,1436164605292,23.0
219,1436164605300,23.0
220,1436164605327,23.0
221,1436164605341,23.0
222,1436164605358,23.0
223,1436164605378,23.0
224,1436164605398,24.0
225,1436164605421,24.0
226,1436164605442,24.0
227,1436164605459,25.0
228,1436164605480,25.0
229,1436164605501,25.0
230,1436164605521,25.0
231,1436164605543,26.0
232,1436164605558,26.0
233,1436164605580,26.0
234,1436164605605,26.0
235,1436164605620,27.0
236,1436164605639,26.0
237,1436164605661,26.0
238,1436164605678,25.0
239,1436164605701,25.0
240,1436164605720,24.0
241,1436164605741,24.0
242,1436164605761,25.0
243,1436164605781,25.0
244,1436164605801,25.0
245,1436164605821,25.0
246,1436164605841,26.0
247,1436164605861,27.0
248,1436164605881,27.0
249,1436164605901,27.0
250,1436164605921,27.0
251,1436164605945,27.0
252,1436164606011,27.0
253,1436164606012,29.0
254,1436164606013,29.0
255,1436164606020,29.0
256,1436164606048,29.0
257,1436164606059,30.0
258,1436164606081,30.0
259,1436164606100,30.0
260,1436164606120,30.0
261,1436164606139,30.0
262,1436164606160,29.0
263,1436164606180,29.0
264,1436164606200,28.0
265,1436164606221,28.0
266,1436164606241,28.0
267,1436164606261,28.0
268,1436164606282,28.0
269,1436164606302,30.0
270,1436164606322,30.0
271,1436164606342,32.0
272,1436164606361,32.0
273,1436164606384,31.0
274,1436164606402,31.0
275,1436164606422,30.0
276,1436164606441,30.0
277,1436164606461,30.0
278,1436164606481,30.0
279,1436164606503,30.0
280,1436164606522,31.0
281,1436164606543,31.0
282,1436164606559,34.0
283,1436164606580,34.0
284,1436164606602,36.0
285,1436164606622,36.0
286,1436164606651,35.0
287,1436164606710,35.0
288,1436164606711,34.0
289,1436164606712,31.0
290,1436164606719,31.0
291,1436164606739,27.0
292,1436164606759,27.0
293,1436164606779,27.0
294,1436164606799,27.0
295,1436164606819,27.0
296,1436164606839,27.0
297,1436164606859,30.0
298,1436164606880,30.0
299,1436164606899,32.0
300,1436164606919,32.0
301,1436164606939,32.0
302,1436164606959,33.0
303,1436164606979,33.0
304,1436164606999,35.0
305,1436164607019,35.0
306,1436164607039,36.0
307,1436164607059,36.0
308,1436164607080,38.0
309,1436164607100,40.0
310,1436164607120,40.0
311,1436164607139,40.0
312,1436164607159,40.0
313,1436164607180,37.0
314,1436164607200,37.0
315,1436164607220,35.0
316,1436164607240,35.0
317,1436164607259,34.0
318,1436164607280,34.0
319,1436164607301,35.0
320,1436164607323,36.0
321,1436164607340,36.0
322,1436164607361,37.0
323,1436164607380,37.0
324,1436164607399,37.0
325,1436164607420,37.0
326,1436164607452,38.0
327,1436164607462,38.0
328,1436164607481,40.0
329,1436164607500,40.0
330,1436164607523,45.0
331,1436164607540,53.0
332,1436164607603,53.0
333,1436164607604,53.0
334,1436164607633,53.0
335,1436164607634,52.0
336,1436164607674,52.0
337,1436164607675,52.0
338,1436164607681,52.0
339,1436164607699,51.0
340,1436164607719,48.0
341,1436164607738,48.0
342,1436164607758,45.0
343,1436164607778,45.0
344,1436164607799,44.0
345,1436164607818,44.0
346,1436164607839,44.0
347,1436164607859,44.0
348,1436164607880,47.0
349,1436164607899,47.0
350,1436164607919,49.0
351,1436164607939,50.0
352,1436164607959,50.0
353,1436164607979,57.0
354,1436164607999,57.0
355,1436164608019,63.0
356,1436164608040,63.0
357,1436164608059,65.0
358,1436164608080,65.0
359,1436164608099,67.0
360,1436164608119,67.0
361,1436164608139,67.0
362,1436164608159,63.0
363,1436164608179,63.0
364,1436164608200,57.0
365,1436164608219,57.0
366,1436164608240,49.0
367,1436164608259,49.0
368,1436164608279,47.0
369,1436164608299,47.0
370,1436164608319,47.0
371,1436164608339,47.0
372,1436164608359,49.0
373,1436164608379,51.0
374,1436164608399,51.0
375,1436164608420,52.0
376,1436164608441,52.0
377,1436164608460,51.0
378,1436164608481,51.0
379,1436164608504,53.0
380,1436164608520,53.0
381,1436164608542,56.0
382,1436164608567,59.0
383,1436164608581,59.0
384,1436164608603,58.0
385,1436164608622,58.0
386,1436164608642,59.0
387,1436164608662,59.0
388,1436164608682,61.0
389,1436164608702,61.0
390,1436164608722,59.0
391,1436164608747,59.0
392,1436164608845,55.0
393,1436164608846,51.0
394,1436164608847,51.0
395,1436164608848,52.0
396,1436164608849,52.0
397,1436164608861,54.0
398,1436164608883,54.0
399,1436164608901,58.0
400,1436164608924,58.0
401,1436164608941,60.0
402,1436164608961,60.0
403,1436164608983,61.0
404,1436164609001,64.0
405,1436164609022,64.0
406,1436164609042,68.0
407,1436164609063,68.0
408,1436164609084,71.0
409,1436164609104,71.0
410,1436164609124,74.0
411,1436164609144,74.0
412,1436164609162,75.0
413,1436164609182,74.0
414,1436164609204,74.0
415,1436164609221,73.0
416,1436164609242,73.0
417,1436164609263,68.0
418,1436164609284,68.0
419,1436164609303,64.0
420,1436164609322,64.0
421,1436164609344,64.0
422,1436164609362,64.0
423,1436164609383,65.0
424,1436164609405,67.0
425,1436164609425,67.0
426,1436164609444,68.0
427,1436164609462,68.0
428,1436164609485,67.0
429,1436164609543,67.0
430,1436164609591,68.0
431,1436164609592,68.0
432,1436164609596,72.0
433,1436164609597,72.0
434,1436164609628,80.0
435,1436164609629,83.0
436,1436164609643,83.0
437,1436164609663,81.0
438,1436164609683,81.0
439,1436164609708,81.0
440,1436164609722,81.0
441,1436164609743,83.0
442,1436164609762,83.0
443,1436164609785,79.0
444,1436164609805,75.0
445,1436164609825,75.0
446,1436164609845,67.0
447,1436164609862,67.0
448,1436164609882,64.0
449,1436164609905,64.0
450,1436164609925,62.0
451,1436164609945,62.0
452,1436164609962,63.0
453,1436164609984,63.0
454,1436164610003,67.0
455,1436164610025,71.0
456,1436164610043,71.0
457,1436164610063,76.0
458,1436164610082,76.0
459,1436164610103,80.0
460,1436164610125,80.0
461,1436164610143,87.0
462,1436164610163,87.0
463,1436164610183,91.0
464,1436164610203,91.0
465,1436164610223,95.0
466,1436164610244,98.0
467,1436164610266,98.0
468,1436164610282,100.0
469,1436164610307,100.0
470,1436164610322,100.0
471,1436164610342,100.0
472,1436164610363,97.0
473,1436164610383,97.0
474,1436164610403,97.0
475,1436164610425,97.0
476,1436164610444,98.0
477,1436164610464,98.0
478,1436164610483,98.0
479,1436164610504,99.0
480,1436164610522,99.0
481,1436164610543,103.0
482,1436164610565,103.0
483,1436164610582,105.0
484,1436164610605,105.0
485,1436164610622,108.0
486,1436164610645,108.0
487,1436164610665,108.0
488,1436164610686,131.0
489,1436164610705,131.0
490,1436164610725,146.0
491,1436164610747,146.0
492,1436164610763,150.0
493,1436164610785,150.0
494,1436164610805,151.0
495,1436164610826,151.0
496,1436164610847,146.0
497,1436164610866,140.0
498,1436164610886,140.0
499,1436164610904,133.0
500,1436164610923,133.0
501,1436164610944,129.0
502,1436164610965,129.0
503,1436164610986,126.0
504,1436164611029,126.0
505,1436164611030,122.0
506,1436164611051,122.0
507,1436164611063,116.0
508,1436164611083,115.0
509,1436164611103,115.0
510,1436164611128,120.0
511,1436164611143,120.0
512,1436164611163,132.0
513,1436164611189,132.0
514,1436164611204,135.0
515,1436164611227,135.0
516,1436164611243,135.0
517,1436164611266,139.0
518,1436164611287,139.0
519,1436164611306,146.0
520,1436164611326,146.0
521,1436164611347,151.0
522,1436164611365,151.0
523,1436164611387,153.0
524,1436164611407,153.0
525,1436164611423,152.0
526,1436164611447,152.0
527,1436164611464,151.0
528,1436164611486,152.0
529,1436164611507,152.0
530,1436164611527,149.0
531,1436164611547,149.0
532,1436164611573,142.0
533,1436164611588,142.0
534,1436164611615,141.0
535,1436164611629,141.0
536,1436164611649,145.0
537,1436164611667,145.0
538,1436164611687,154.0
539,1436164611751,159.0
540,1436164611752,159.0
541,1436164611753,156.0
542,1436164611764,156.0
543,1436164611786,159.0
544,1436164611808,159.0
545,1436164611825,168.0
546,1436164611847,168.0
547,1436164611864,172.0
548,1436164611885,172.0
549,1436164611904,172.0
550,1436164611926,167.0
551,1436164611944,167.0
552,1436164611966,157.0
553,1436164611988,157.0
554,1436164612007,150.0
555,1436164612027,150.0
556,1436164612048,147.0
557,1436164612066,147.0
558,1436164612087,151.0
559,1436164612108,151.0
560,1436164612128,151.0
561,1436164612147,150.0
562,1436164612164,150.0
563,1436164612186,152.0
564,1436164612207,152.0
565,1436164612226,158.0
566,1436164612247,158.0
567,1436164612268,164.0
568,1436164612288,164.0
569,1436164612307,163.0
570,1436164612327,171.0
571,1436164612346,171.0
572,1436164612364,181.0
573,1436164612387,181.0
574,1436164612407,188.0
575,1436164612460,188.0
576,1436164612461,191.0
577,1436164612464,191.0
578,1436164612486,189.0
579,1436164612506,189.0
580,1436164612525,189.0
581,1436164612544,189.0
582,1436164612565,189.0
583,1436164612587,192.0
584,1436164612611,192.0
585,1436164612630,186.0
586,1436164612690,186.0
587,1436164612691,181.0
588,1436164612692,181.0
589,1436164612726,181.0
590,1436164612727,179.0
591,1436164612748,179.0
592,1436164612768,180.0
593,1436164612787,180.0
594,1436164612808,172.0
595,1436164612837,172.0
596,1436164612847,157.0
597,1436164612869,157.0
598,1436164612887,151.0
599,1436164612908,151.0
600,1436164612929,154.0
601,1436164612945,155.0
602,1436164612968,155.0
603,1436164612985,152.0
604,1436164613005,152.0
605,1436164613025,156.0
606,1436164613050,156.0
607,1436164613071,148.0
608,1436164613091,148.0
609,1436164613108,151.0
610,1436164613125,151.0
611,1436164613145,146.0
612,1436164613165,139.0
613,1436164613188,139.0
614,1436164613251,134.0
615,1436164613252,134.0
616,1436164613253,136.0
617,1436164613270,136.0
618,1436164613286,144.0
619,1436164613307,144.0
620,1436164613325,154.0
621,1436164613367,154.0
622,1436164613368,168.0
623,1436164613385,189.0
624,1436164613405,189.0
625,1436164613432,199.0
626,1436164613447,199.0
627,1436164613465,208.0
628,1436164613488,208.0
629,1436164613508,214.0
630,1436164613528,214.0
631,1436164613548,216.0
632,1436164613567,212.0
633,1436164613587,212.0
634,1436164613607,202.0
635,1436164613628,202.0
636,1436164613647,180.0
637,1436164613667,180.0
638,1436164613689,164.0
639,1436164613709,164.0
640,1436164613729,160.0
641,1436164613749,160.0
642,1436164613769,158.0
643,1436164613788,165.0
644,1436164613809,165.0
645,1436164613829,172.0
646,1436164613849,172.0
647,1436164613868,178.0
648,1436164613889,178.0
649,1436164613908,190.0
650,1436164613935,190.0
651,1436164614000,206.0
652,1436164614001,206.0
653,1436164614002,223.0
654,1436164614009,242.0
655,1436164614026,242.0
656,1436164614050,249.0
657,1436164614067,249.0
658,1436164614088,247.0
659,1436164614106,247.0
660,1436164614128,247.0
661,1436164614146,247.0
662,1436164614167,247.0
663,1436164614188,248.0
664,1436164614209,248.0
665,1436164614229,239.0
666,1436164614249,239.0
667,1436164614269,228.0
668,1436164614289,228.0
669,1436164614309,215.0
670,1436164614329,215.0
671,1436164614349,199.0
672,1436164614370,199.0
673,1436164614386,192.0
674,1436164614409,183.0
675,1436164614430,183.0
676,1436164614449,177.0
677,1436164614470,177.0
678,1436164614489,186.0
679,1436164614509,186.0
680,1436164614533,205.0
681,1436164614548,205.0
682,1436164614572,226.0
683,1436164614589,226.0
684,1436164614610,243.0
685,1436164614626,253.0
686,1436164614648,253.0
687,1436164614672,266.0
688,1436164614692,266.0
689,1436164614707,269.0
690,1436164614727,269.0
691,1436164614747,269.0
692,1436164614767,269.0
693,1436164614787,268.0
694,1436164614807,268.0
695,1436164614827,269.0
696,1436164614849,269.0
697,1436164614868,269.0
698,1436164614888,265.0
699,1436164614909,265.0
700,1436164614930,267.0
701,1436164614950,267.0
702,1436164614970,276.0
703,1436164614990,276.0
704,1436164615010,284.0
705,1436164615030,278.0
706,1436164615050,278.0
707,1436164615070,271.0
708,1436164615090,271.0
709,1436164615108,269.0
710,1436164615130,269.0
711,1436164615150,266.0
712,1436164615167,266.0
713,1436164615190,256.0
714,1436164615210,256.0
715,1436164615230,248.0
716,1436164615250,245.0
717,1436164615270,245.0
718,1436164615290,243.0
719,1436164615310,243.0
720,1436164615329,237.0
721,1436164615349,237.0
722,1436164615380,224.0
723,1436164615440,224.0
724,1436164615441,214.0
725,1436164615442,214.0
726,1436164615447,217.0
727,1436164615478,223.0
728,1436164615489,223.0
729,1436164615508,230.0
730,1436164615531,230.0
731,1436164615548,236.0
732,1436164615571,236.0
733,1436164615611,241.0
734,1436164615614,241.0
735,1436164615631,249.0
736,1436164615647,255.0
737,1436164615669,255.0
738,1436164615688,259.0
739,1436164615710,259.0
740,1436164615830,260.0
741,1436164615831,260.0
742,1436164615832,256.0
743,1436164615833,256.0
744,1436164615834,253.0
745,1436164615835,253.0
746,1436164615847,247.0
747,1436164615868,241.0
748,1436164615888,241.0
749,1436164615911,239.0
750,1436164615928,239.0
751,1436164615948,240.0
752,1436164615968,240.0
753,1436164615988,242.0
754,1436164616016,242.0
755,1436164616030,238.0
756,1436164616047,238.0
757,1436164616067,237.0
758,1436164616087,246.0
759,1436164616107,246.0
760,1436164616127,260.0
761,1436164616147,260.0
762,1436164616167,271.0
763,1436164616188,271.0
764,1436164616207,279.0
765,1436164616227,279.0
766,1436164616247,283.0
767,1436164616267,289.0
768,1436164616287,289.0
769,1436164616307,272.0
770,1436164616327,272.0
771,1436164616347,267.0
772,1436164616367,267.0
773,1436164616387,246.0
774,1436164616407,246.0
775,1436164616427,234.0
776,1436164616447,234.0
777,1436164616467,234.0
778,1436164616488,242.0
779,1436164616508,242.0
780,1436164616529,253.0
781,1436164616549,253.0
782,1436164616568,248.0
783,1436164616588,248.0
784,1436164616614,248.0
785,1436164616634,248.0
786,1436164616654,260.0
787,1436164616671,260.0
788,1436164616688,273.0
789,1436164616722,281.0
790,1436164616728,281.0
791,1436164616748,282.0
792,1436164616768,282.0
793,1436164616788,281.0
794,1436164616808,281.0
795,1436164616829,277.0
796,1436164616849,277.0
797,1436164616868,274.0
798,1436164616892,274.0
799,1436164616912,270.0
800,1436164616931,270.0
801,1436164616949,270.0
802,1436164616968,275.0
803,1436164616992,275.0
804,1436164617012,280.0
805,1436164617032,280.0
806,1436164617050,277.0
807,1436164617072,277.0
808,1436164617089,273.0
809,1436164617112,277.0
810,1436164617132,277.0
811,1436164617149,286.0
812,1436164617169,286.0
813,1436164617190,297.0
814,1436164617214,297.0
815,1436164617234,297.0
816,1436164617254,297.0
817,1436164617270,287.0
818,1436164617289,287.0
819,1436164617309,278.0
820,1436164617329,266.0
821,1436164617350,266.0
822,1436164617370,246.0
823,1436164617423,246.0
824,1436164617424,233.0
825,1436164617441,233.0
826,1436164617449,229.0
827,1436164617475,229.0
828,1436164617490,230.0
829,1436164617511,230.0
830,1436164617532,237.0
831,1436164617549,246.0
832,1436164617570,246.0
833,1436164617590,250.0
834,1436164617609,250.0
835,1436164617632,258.0
836,1436164617649,258.0
837,1436164617679,266.0
838,1436164617691,266.0
839,1436164617713,276.0
840,1436164617732,286.0
841,1436164617749,286.0
842,1436164617769,288.0
843,1436164617789,288.0
844,1436164617809,283.0
845,1436164617832,283.0
846,1436164617852,275.0
847,1436164617873,275.0
848,1436164617892,269.0
849,1436164617913,269.0
850,1436164617933,265.0
851,1436164617952,257.0
852,1436164617973,257.0
853,1436164617993,253.0
854,1436164618013,253.0
855,1436164618033,255.0
856,1436164618053,255.0
