id,attr_time,attr_light
1,1436285439614,2.0
2,1436285439633,2.0
3,1436285439655,2.0
4,1436285439671,2.0
5,1436285439692,2.0
6,1436285439711,2.0
7,1436285439737,2.0
8,1436285439757,2.0
9,1436285439777,2.0
10,1436285439795,2.0
11,1436285439812,2.0
12,1436285439831,2.0
13,1436285439852,2.0
14,1436285439872,2.0
15,1436285439892,2.0
16,1436285439946,2.0
17,1436285439958,2.0
18,1436285439959,2.0
19,1436285439971,2.0
20,1436285439995,2.0
21,1436285440012,2.0
22,1436285440032,2.0
23,1436285440057,2.0
24,1436285440073,2.0
25,1436285440095,2.0
26,1436285440112,2.0
27,1436285440136,2.0
28,1436285440154,2.0
29,1436285440173,2.0
30,1436285440192,2.0
31,1436285440215,2.0
32,1436285440235,2.0
33,1436285440255,2.0
34,1436285440275,2.0
35,1436285440295,2.0
36,1436285440314,2.0
37,1436285440333,2.0
38,1436285440355,2.0
39,1436285440375,2.0
40,1436285440395,2.0
41,1436285440414,2.0
42,1436285440435,2.0
43,1436285440455,2.0
44,1436285440475,2.0
45,1436285440495,2.0
46,1436285440514,2.0
47,1436285440535,2.0
48,1436285440552,2.0
49,1436285440574,2.0
50,1436285440593,2.0
51,1436285440613,2.0
52,1436285440660,2.0
53,1436285440661,2.0
54,1436285440681,2.0
55,1436285440692,2.0
56,1436285440717,2.0
57,1436285440732,2.0
58,1436285440752,2.0
59,1436285440774,2.0
60,1436285440796,2.0
61,1436285440814,2.0
62,1436285440837,2.0
63,1436285440852,2.0
64,1436285440872,2.0
65,1436285440893,2.0
66,1436285440912,2.0
67,1436285440935,2.0
68,1436285440954,2.0
69,1436285440975,2.0
70,1436285440996,2.0
71,1436285441012,2.0
72,1436285441033,2.0
73,1436285441117,2.0
74,1436285441127,2.0
75,1436285441128,2.0
76,1436285441129,2.0
77,1436285441166,2.0
78,1436285441167,2.0
79,1436285441173,2.0
80,1436285441193,2.0
81,1436285441214,2.0
82,1436285441233,2.0
83,1436285441253,2.0
84,1436285441273,2.0
85,1436285441293,2.0
86,1436285441316,2.0
87,1436285441380,2.0
88,1436285441381,2.0
89,1436285441382,2.0
90,1436285441393,2.0
91,1436285441422,2.0
92,1436285441434,2.0
93,1436285441454,2.0
94,1436285441473,2.0
95,1436285441495,2.0
96,1436285441514,2.0
97,1436285441534,2.0
98,1436285441557,2.0
99,1436285441574,2.0
100,1436285441594,2.0
101,1436285441617,2.0
102,1436285441637,2.0
103,1436285441657,2.0
104,1436285441677,2.0
105,1436285441697,2.0
106,1436285441714,2.0
107,1436285441737,2.0
108,1436285441755,2.0
109,1436285441774,2.0
110,1436285441797,2.0
111,1436285441817,2.0
112,1436285441834,2.0
113,1436285441857,2.0
114,1436285441874,2.0
115,1436285441894,2.0
116,1436285441913,2.0
117,1436285441934,2.0
118,1436285441957,2.0
119,1436285441974,2.0
120,1436285441995,2.0
121,1436285442020,2.0
122,1436285442095,2.0
123,1436285442096,2.0
124,1436285442097,2.0
125,1436285442098,2.0
126,1436285442119,2.0
127,1436285442136,2.0
128,1436285442174,2.0
129,1436285442175,2.0
130,1436285442211,2.0
131,1436285442220,2.0
132,1436285442234,2.0
133,1436285442267,2.0
134,1436285442274,2.0
135,1436285442294,2.0
136,1436285442321,2.0
137,1436285442336,2.0
138,1436285442354,2.0
139,1436285442375,2.0
140,1436285442394,2.0
141,1436285442414,2.0
142,1436285442438,2.0
143,1436285442455,2.0
144,1436285442474,2.0
145,1436285442524,2.0
146,1436285442525,2.0
147,1436285442533,2.0
148,1436285442554,2.0
149,1436285442574,2.0
150,1436285442594,2.0
151,1436285442615,2.0
152,1436285442636,2.0
153,1436285442656,2.0
154,1436285442676,2.0
155,1436285442694,2.0
156,1436285442713,2.0
157,1436285442736,2.0
158,1436285442756,2.0
159,1436285442776,2.0
160,1436285442796,2.0
161,1436285442818,2.0
162,1436285442842,2.0
163,1436285442855,2.0
164,1436285442873,2.0
165,1436285442893,2.0
166,1436285442913,2.0
167,1436285442936,2.0
168,1436285442954,2.0
169,1436285442976,2.0
170,1436285442998,2.0
171,1436285443015,2.0
172,1436285443036,2.0
173,1436285443058,2.0
174,1436285443089,2.0
175,1436285443094,2.0
176,1436285443114,2.0
177,1436285443134,2.0
178,1436285443154,2.0
179,1436285443174,2.0
180,1436285443194,2.0
181,1436285443214,2.0
182,1436285443235,2.0
183,1436285443254,2.0
184,1436285443274,2.0
185,1436285443297,2.0
186,1436285443318,2.0
187,1436285443338,2.0
188,1436285443356,2.0
189,1436285443378,2.0
190,1436285443398,2.0
191,1436285443417,2.0
192,1436285443441,2.0
193,1436285443479,2.0
194,1436285443480,2.0
195,1436285443494,2.0
196,1436285443514,2.0
197,1436285443534,2.0
198,1436285443556,2.0
199,1436285443575,2.0
200,1436285443598,2.0
201,1436285443615,2.0
202,1436285443638,2.0
203,1436285443655,2.0
204,1436285443676,2.0
205,1436285443696,2.0
206,1436285443717,2.0
207,1436285443737,2.0
208,1436285443758,2.0
209,1436285443778,2.0
210,1436285443800,2.0
211,1436285443817,2.0
212,1436285443839,2.0
213,1436285443858,2.0
214,1436285443877,2.0
215,1436285443900,2.0
216,1436285443921,2.0
217,1436285443940,2.0
218,1436285443959,2.0
219,1436285443975,2.0
220,1436285443995,2.0
221,1436285444015,2.0
222,1436285444045,2.0
223,1436285444062,2.0
224,1436285444082,2.0
225,1436285444096,2.0
226,1436285444122,2.0
227,1436285444182,2.0
228,1436285444183,2.0
229,1436285444184,2.0
230,1436285444205,2.0
231,1436285444216,2.0
232,1436285444241,2.0
233,1436285444257,2.0
234,1436285444277,2.0
235,1436285444300,2.0
236,1436285444316,2.0
237,1436285444337,2.0
238,1436285444357,2.0
239,1436285444378,2.0
240,1436285444396,2.0
241,1436285444420,2.0
242,1436285444439,2.0
243,1436285444459,2.0
244,1436285444477,2.0
245,1436285444496,2.0
246,1436285444518,2.0
247,1436285444540,2.0
248,1436285444560,2.0
249,1436285444578,2.0
250,1436285444608,2.0
251,1436285444619,2.0
252,1436285444636,2.0
253,1436285444659,2.0
254,1436285444679,2.0
255,1436285444700,2.0
256,1436285444719,2.0
257,1436285444739,2.0
258,1436285444760,2.0
259,1436285444778,2.0
260,1436285444799,2.0
261,1436285444819,2.0
262,1436285444837,2.0
263,1436285444866,2.0
264,1436285444933,2.0
265,1436285444935,2.0
266,1436285444937,2.0
267,1436285444938,2.0
268,1436285444960,2.0
269,1436285444981,2.0
270,1436285444999,2.0
271,1436285445016,2.0
272,1436285445039,2.0
273,1436285445058,2.0
274,1436285445082,2.0
275,1436285445099,2.0
276,1436285445125,2.0
277,1436285445139,2.0
278,1436285445160,2.0
279,1436285445179,2.0
280,1436285445200,2.0
281,1436285445220,2.0
282,1436285445240,2.0
283,1436285445260,2.0
284,1436285445280,2.0
285,1436285445301,2.0
286,1436285445317,2.0
287,1436285445340,2.0
288,1436285445360,2.0
289,1436285445377,2.0
290,1436285445397,2.0
291,1436285445418,2.0
292,1436285445442,2.0
293,1436285445463,2.0
294,1436285445483,2.0
295,1436285445501,2.0
296,1436285445518,2.0
297,1436285445537,2.0
298,1436285445557,2.0
299,1436285445578,2.0
300,1436285445601,2.0
301,1436285445664,2.0
302,1436285445665,2.0
303,1436285445666,2.0
304,1436285445677,2.0
305,1436285445698,2.0
306,1436285445718,2.0
307,1436285445870,2.0
308,1436285445871,2.0
309,1436285445872,2.0
310,1436285445873,2.0
311,1436285445874,2.0
312,1436285445875,2.0
313,1436285445895,2.0
314,1436285445896,2.0
315,1436285445909,2.0
316,1436285445917,2.0
317,1436285445937,2.0
318,1436285445959,2.0
319,1436285445977,2.0
320,1436285445997,2.0
321,1436285446017,2.0
322,1436285446037,2.0
323,1436285446057,2.0
324,1436285446077,2.0
325,1436285446097,2.0
326,1436285446117,2.0
327,1436285446137,2.0
328,1436285446157,2.0
329,1436285446177,2.0
330,1436285446197,2.0
331,1436285446217,2.0
332,1436285446237,2.0
333,1436285446257,2.0
334,1436285446277,2.0
335,1436285446297,2.0
336,1436285446317,2.0
337,1436285446337,2.0
338,1436285446357,2.0
339,1436285446377,2.0
340,1436285446397,2.0
341,1436285446417,2.0
342,1436285446437,2.0
343,1436285446459,2.0
344,1436285446477,2.0
345,1436285446497,2.0
346,1436285446517,2.0
347,1436285446537,2.0
348,1436285446557,2.0
349,1436285446577,2.0
350,1436285446597,2.0
351,1436285446617,2.0
352,1436285446637,2.0
353,1436285446657,2.0
354,1436285446677,2.0
355,1436285446697,2.0
356,1436285446722,2.0
357,1436285446742,2.0
358,1436285446763,2.0
359,1436285446782,2.0
360,1436285446799,2.0
361,1436285446819,2.0
362,1436285446839,2.0
363,1436285446863,2.0
364,1436285446883,2.0
365,1436285446903,2.0
366,1436285446919,2.0
367,1436285446946,2.0
368,1436285447018,2.0
369,1436285447019,2.0
370,1436285447020,2.0
371,1436285447021,2.0
372,1436285447040,2.0
373,1436285447062,2.0
374,1436285447081,2.0
375,1436285447100,2.0
376,1436285447122,2.0
377,1436285447152,2.0
378,1436285447160,2.0
379,1436285447179,2.0
380,1436285447202,2.0
381,1436285447222,2.0
382,1436285447242,2.0
383,1436285447262,2.0
384,1436285447282,2.0
385,1436285447302,2.0
386,1436285447321,2.0
387,1436285447342,2.0
388,1436285447362,2.0
389,1436285447382,2.0
390,1436285447402,2.0
391,1436285447420,2.0
392,1436285447442,2.0
393,1436285447462,2.0
394,1436285447482,2.0
395,1436285447501,2.0
396,1436285447536,2.0
397,1436285447541,2.0
398,1436285447559,2.0
399,1436285447579,2.0
400,1436285447601,2.0
401,1436285447619,2.0
402,1436285447639,2.0
403,1436285447661,2.0
404,1436285447688,2.0
405,1436285447746,2.0
406,1436285447747,2.0
407,1436285447748,2.0
408,1436285447761,2.0
409,1436285447782,2.0
410,1436285447808,2.0
411,1436285447820,2.0
412,1436285447840,2.0
413,1436285447861,2.0
414,1436285447881,2.0
415,1436285447902,2.0
416,1436285447920,2.0
417,1436285447942,2.0
418,1436285447960,2.0
419,1436285447982,2.0
420,1436285448002,2.0
421,1436285448022,2.0
422,1436285448043,2.0
423,1436285448063,2.0
424,1436285448081,2.0
425,1436285448100,2.0
426,1436285448121,2.0
427,1436285448153,2.0
428,1436285448162,2.0
429,1436285448180,2.0
430,1436285448203,2.0
431,1436285448223,2.0
432,1436285448243,2.0
433,1436285448262,2.0
434,1436285448282,2.0
435,1436285448302,2.0
436,1436285448323,2.0
437,1436285448343,2.0
438,1436285448363,2.0
439,1436285448380,2.0
440,1436285448408,2.0
441,1436285448471,2.0
442,1436285448472,2.0
443,1436285448473,2.0
444,1436285448482,2.0
445,1436285448511,2.0
446,1436285448522,2.0
447,1436285448540,2.0
448,1436285448562,2.0
449,1436285448587,2.0
450,1436285448601,2.0
451,1436285448620,2.0
452,1436285448640,2.0
453,1436285448663,2.0
454,1436285448684,2.0
455,1436285448703,2.0
456,1436285448723,2.0
457,1436285448743,2.0
458,1436285448763,2.0
459,1436285448783,2.0
460,1436285448803,2.0
461,1436285448823,2.0
462,1436285448843,2.0
463,1436285448862,2.0
464,1436285448883,2.0
465,1436285448907,2.0
466,1436285448925,2.0
467,1436285448945,2.0
468,1436285448963,2.0
469,1436285448981,2.0
470,1436285449001,3.0
471,1436285449022,3.0
472,1436285449045,3.0
473,1436285449066,3.0
474,1436285449087,3.0
475,1436285449101,2.0
476,1436285449210,2.0
477,1436285449211,2.0
478,1436285449212,2.0
479,1436285449213,2.0
480,1436285449214,2.0
481,1436285449232,2.0
482,1436285449242,2.0
483,1436285449261,2.0
484,1436285449280,3.0
485,1436285449304,3.0
486,1436285449321,3.0
487,1436285449341,3.0
488,1436285449362,3.0
489,1436285449382,3.0
490,1436285449404,3.0
491,1436285449424,3.0
492,1436285449444,3.0
493,1436285449464,3.0
494,1436285449484,3.0
495,1436285449504,3.0
496,1436285449524,3.0
497,1436285449544,2.0
498,1436285449564,2.0
499,1436285449584,2.0
500,1436285449602,2.0
501,1436285449624,2.0
502,1436285449644,2.0
503,1436285449664,2.0
504,1436285449684,2.0
505,1436285449703,2.0
506,1436285449724,2.0
507,1436285449744,2.0
508,1436285449764,2.0
509,1436285449784,2.0
510,1436285449804,2.0
511,1436285449823,2.0
512,1436285449843,2.0
513,1436285449862,2.0
514,1436285449935,2.0
515,1436285449936,2.0
516,1436285449937,2.0
517,1436285449944,2.0
518,1436285449961,2.0
519,1436285449982,2.0
520,1436285450001,2.0
521,1436285450021,2.0
522,1436285450044,2.0
523,1436285450063,2.0
524,1436285450085,2.0
525,1436285450104,2.0
526,1436285450132,2.0
527,1436285450143,2.0
528,1436285450163,2.0
529,1436285450183,2.0
530,1436285450205,2.0
531,1436285450225,2.0
532,1436285450245,2.0
533,1436285450265,2.0
534,1436285450285,2.0
535,1436285450304,2.0
536,1436285450322,2.0
537,1436285450345,2.0
538,1436285450365,2.0
539,1436285450382,2.0
540,1436285450402,2.0
541,1436285450422,2.0
542,1436285450447,2.0
543,1436285450467,2.0
544,1436285450488,2.0
545,1436285450505,2.0
546,1436285450522,2.0
547,1436285450542,2.0
548,1436285450562,2.0
549,1436285450582,2.0
550,1436285450622,2.0
551,1436285450623,2.0
552,1436285450650,2.0
553,1436285450746,2.0
554,1436285450747,2.0
555,1436285450748,2.0
556,1436285450749,2.0
557,1436285450750,2.0
558,1436285450762,2.0
559,1436285450782,2.0
560,1436285450803,2.0
561,1436285450825,2.0
562,1436285450842,2.0
563,1436285450863,2.0
564,1436285450883,2.0
565,1436285450904,2.0
566,1436285450924,2.0
567,1436285450945,2.0
568,1436285450965,2.0
569,1436285450985,2.0
570,1436285451004,2.0
571,1436285451024,2.0
572,1436285451045,2.0
573,1436285451065,2.0
574,1436285451084,2.0
575,1436285451105,2.0
576,1436285451147,2.0
577,1436285451148,2.0
578,1436285451164,2.0
579,1436285451184,2.0
580,1436285451205,2.0
581,1436285451226,2.0
582,1436285451243,2.0
583,1436285451263,2.0
584,1436285451283,2.0
585,1436285451304,2.0
586,1436285451325,2.0
587,1436285451345,2.0
588,1436285451363,2.0
589,1436285451390,2.0
590,1436285451444,2.0
591,1436285451445,2.0
592,1436285451446,2.0
593,1436285451467,2.0
594,1436285451484,2.0
595,1436285451506,2.0
596,1436285451523,2.0
597,1436285451543,2.0
598,1436285451564,2.0
599,1436285451584,2.0
600,1436285451604,2.0
601,1436285451623,2.0
602,1436285451646,2.0
603,1436285451664,2.0
604,1436285451686,2.0
605,1436285451704,2.0
606,1436285451725,2.0
607,1436285451746,2.0
608,1436285451766,2.0
609,1436285451786,2.0
610,1436285451804,2.0
611,1436285451824,2.0
612,1436285451845,2.0
613,1436285451863,2.0
614,1436285451886,2.0
615,1436285451903,2.0
616,1436285451924,2.0
617,1436285451944,2.0
618,1436285451966,2.0
619,1436285451987,2.0
620,1436285452007,2.0
621,1436285452025,2.0
622,1436285452045,2.0
623,1436285452064,2.0
624,1436285452084,2.0
625,1436285452106,2.0
626,1436285452195,2.0
627,1436285452196,2.0
628,1436285452208,2.0
629,1436285452212,2.0
630,1436285452213,2.0
631,1436285452227,2.0
632,1436285452243,2.0
633,1436285452263,2.0
634,1436285452283,2.0
635,1436285452304,2.0
636,1436285452324,2.0
637,1436285452346,2.0
638,1436285452364,2.0
639,1436285452387,2.0
640,1436285452404,2.0
641,1436285452427,2.0
642,1436285452447,2.0
643,1436285452467,2.0
644,1436285452487,2.0
645,1436285452504,2.0
646,1436285452525,2.0
647,1436285452547,2.0
648,1436285452567,2.0
649,1436285452585,2.0
650,1436285452605,2.0
651,1436285452627,2.0
652,1436285452645,2.0
653,1436285452665,2.0
654,1436285452684,2.0
655,1436285452707,2.0
656,1436285452726,2.0
657,1436285452747,2.0
658,1436285452764,2.0
659,1436285452784,2.0
660,1436285452805,2.0
661,1436285452826,2.0
662,1436285452844,2.0
663,1436285452864,2.0
664,1436285452884,2.0
665,1436285452907,2.0
666,1436285452924,2.0
667,1436285452944,2.0
668,1436285452964,2.0
669,1436285452984,2.0
670,1436285453010,2.0
671,1436285453023,2.0
672,1436285453043,2.0
673,1436285453066,2.0
674,1436285453084,2.0
675,1436285453103,2.0
676,1436285453128,2.0
677,1436285453146,2.0
678,1436285453166,2.0
679,1436285453186,2.0
680,1436285453206,2.0
681,1436285453227,2.0
682,1436285453244,2.0
683,1436285453264,2.0
684,1436285453284,2.0
685,1436285453323,2.0
686,1436285453325,2.0
687,1436285453350,2.0
688,1436285453366,2.0
689,1436285453388,2.0
690,1436285453405,2.0
691,1436285453427,2.0
692,1436285453447,2.0
693,1436285453467,2.0
694,1436285453488,2.0
695,1436285453508,2.0
696,1436285453528,2.0
697,1436285453548,2.0
698,1436285453567,2.0
699,1436285453600,2.0
700,1436285453605,2.0
701,1436285453625,2.0
702,1436285453646,2.0
703,1436285453668,2.0
704,1436285453684,2.0
705,1436285453707,2.0
706,1436285453725,2.0
707,1436285453746,2.0
708,1436285453764,2.0
709,1436285453784,2.0
710,1436285453804,2.0
711,1436285453827,2.0
712,1436285453848,2.0
713,1436285453867,2.0
714,1436285453889,2.0
715,1436285453909,2.0
716,1436285453927,2.0
717,1436285453948,2.0
718,1436285453966,2.0
719,1436285453989,2.0
720,1436285454010,2.0
721,1436285454028,2.0
722,1436285454048,2.0
723,1436285454067,2.0
724,1436285454089,2.0
725,1436285454113,2.0
726,1436285454136,2.0
727,1436285454180,2.0
728,1436285454181,2.0
729,1436285454187,2.0
730,1436285454207,2.0
731,1436285454226,2.0
732,1436285454289,2.0
733,1436285454290,2.0
734,1436285454291,2.0
735,1436285454312,2.0
736,1436285454325,2.0
737,1436285454345,2.0
738,1436285454365,2.0
739,1436285454385,2.0
740,1436285454406,2.0
741,1436285454427,2.0
742,1436285454446,2.0
743,1436285454467,2.0
744,1436285454488,2.0
745,1436285454506,2.0
746,1436285454530,2.0
747,1436285454548,2.0
748,1436285454568,2.0
749,1436285454589,2.0
750,1436285454608,2.0
751,1436285454629,2.0
752,1436285454650,2.0
753,1436285454669,2.0
754,1436285454689,2.0
755,1436285454706,2.0
756,1436285454725,2.0
757,1436285454746,2.0
758,1436285454766,2.0
759,1436285454791,2.0
760,1436285454808,2.0
761,1436285454832,2.0
762,1436285454849,2.0
763,1436285454866,2.0
764,1436285454886,2.0
765,1436285454906,2.0
766,1436285454929,2.0
767,1436285454950,2.0
768,1436285455004,2.0
769,1436285455005,2.0
770,1436285455020,2.0
771,1436285455026,2.0
772,1436285455048,2.0
773,1436285455066,2.0
774,1436285455087,2.0
775,1436285455107,2.0
776,1436285455128,2.0
777,1436285455149,2.0
778,1436285455169,2.0
779,1436285455186,2.0
780,1436285455207,2.0
781,1436285455230,2.0
782,1436285455250,2.0
783,1436285455269,2.0
784,1436285455290,2.0
785,1436285455310,2.0
786,1436285455329,2.0
787,1436285455350,2.0
788,1436285455370,2.0
789,1436285455390,2.0
790,1436285455411,2.0
791,1436285455426,2.0
792,1436285455450,2.0
793,1436285455470,2.0
794,1436285455489,2.0
795,1436285455509,2.0
796,1436285455530,2.0
797,1436285455550,2.0
798,1436285455570,2.0
799,1436285455590,2.0
800,1436285455610,2.0
801,1436285455630,2.0
802,1436285455650,2.0
803,1436285455670,2.0
804,1436285455690,2.0
805,1436285455740,2.0
806,1436285455744,2.0
807,1436285455760,2.0
808,1436285455767,2.0
809,1436285455824,2.0
810,1436285455825,2.0
811,1436285455840,2.0
812,1436285455853,2.0
813,1436285455867,2.0
814,1436285455887,2.0
815,1436285455913,2.0
816,1436285455927,2.0
817,1436285455947,2.0
818,1436285455968,2.0
819,1436285455988,2.0
820,1436285456010,2.0
821,1436285456030,2.0
822,1436285456050,2.0
823,1436285456070,2.0
824,1436285456090,2.0
825,1436285456112,2.0
826,1436285456129,2.0
827,1436285456151,2.0
828,1436285456170,2.0
829,1436285456188,2.0
830,1436285456217,2.0
831,1436285456249,2.0
832,1436285456250,2.0
833,1436285456309,2.0
834,1436285456310,2.0
835,1436285456311,2.0
836,1436285456327,2.0
837,1436285456347,2.0
838,1436285456367,2.0
839,1436285456453,2.0
840,1436285456454,2.0
841,1436285456455,2.0
842,1436285456456,2.0
843,1436285456515,2.0
844,1436285456516,2.0
845,1436285456517,2.0
846,1436285456543,2.0
847,1436285456550,2.0
848,1436285456568,2.0
849,1436285456587,2.0
850,1436285456608,2.0
851,1436285456627,2.0
852,1436285456648,2.0
853,1436285456667,2.0
854,1436285456687,2.0
855,1436285456707,2.0
856,1436285456727,2.0
857,1436285456747,2.0
858,1436285456767,2.0
859,1436285456787,2.0
860,1436285456807,2.0
861,1436285456827,2.0
862,1436285456847,2.0
863,1436285456867,2.0
864,1436285456887,2.0
865,1436285456907,2.0
866,1436285456927,2.0
867,1436285456947,2.0
868,1436285456967,2.0
869,1436285456987,2.0
870,1436285457007,2.0
871,1436285457027,2.0
872,1436285457047,2.0
873,1436285457067,2.0
874,1436285457087,2.0
875,1436285457111,2.0
876,1436285457129,2.0
877,1436285457147,2.0
878,1436285457174,2.0
879,1436285457187,2.0
880,1436285457210,2.0
881,1436285457227,2.0
882,1436285457248,2.0
883,1436285457270,2.0
884,1436285457292,2.0
885,1436285457308,2.0
886,1436285457330,2.0
887,1436285457352,2.0
888,1436285457372,2.0
889,1436285457388,2.0
890,1436285457412,2.0
891,1436285457432,2.0
892,1436285457452,2.0
893,1436285457472,2.0
894,1436285457492,2.0
895,1436285457512,2.0
896,1436285457529,2.0
897,1436285457552,2.0
898,1436285457569,2.0
899,1436285457591,2.0
900,1436285457612,2.0
901,1436285457630,2.0
902,1436285457651,2.0
903,1436285457672,2.0
904,1436285457692,2.0
905,1436285457712,2.0
906,1436285457730,2.0
907,1436285457750,2.0
908,1436285457771,2.0
909,1436285457791,2.0
910,1436285457809,2.0
911,1436285457863,2.0
912,1436285457876,2.0
