id,attr_time,attr_db
1,1436969335980,35.7439575480949
2,1436969336550,36.3513145777656
3,1436969337099,40.8569098954644
4,1436969337654,43.4697318896326
5,1436969338220,49.6369108469138
6,1436969338777,47.2256905436259
7,1436969339341,37.8362474023099
8,1436969339924,44.2945515537117
9,1436969340498,40.9419341832182
10,1436969341095,47.8606187186497
11,1436969341652,35.6139116230513
12,1436969342212,37.7025889035793
13,1436969342795,39.3125099673871
14,1436969343342,31.9710218983613
15,1436969343919,28.6777950626112
16,1436969344477,29.8894175556147
17,1436969345053,39.1488621664475
18,1436969345636,39.5615952091663
19,1436969346206,27.7420647683433
20,1436969346763,45.1269045700676
21,1436969347340,42.7349822436834
22,1436969347927,35.4623368216968
23,1436969348509,18.8430320721294
24,1436969349088,21.5771644797056
25,1436969349654,31.8592393987722
26,1436969350226,35.388830297034
27,1436969350782,34.8437784266994
28,1436969351364,44.4102358091693
29,1436969351929,20.5766053523767
30,1436969352529,15.4696380422592
31,1436969353146,16.5410528258873
32,1436969353737,21.0675743727099
33,1436969354336,16.5169206573261
34,1436969354949,24.5679435704015
35,1436969355545,16.375770600392
36,1436969356141,23.8639599243208
37,1436969356727,31.666632320836
38,1436969357310,46.2963267564425
39,1436969357901,25.9111760942776
40,1436969359313,43.5168489274275
41,1436969360020,47.5496681918054
42,1436969360898,68.1079819957841
43,1436969361482,31.7887186214169
44,1436969362023,23.9219909298266
45,1436969362620,24.8164208912619
46,1436969363163,25.9136693454429
47,1436969363738,24.1347464785339
48,1436969365155,25.576772119647
49,1436969365709,46.9266041096413
50,1436969366300,60.2564066019476
51,1436969366885,59.05055514065
52,1436969367443,46.2887245353409
53,1436969367995,29.2504778863737
54,1436969368539,39.9659901939798
55,1436969369080,41.4475672578097
56,1436969369637,58.4355698152446
57,1436969370201,34.987222754748
58,1436969370761,44.7025413953711
59,1436969372258,31.2186348764808
60,1436969372824,39.5475032821055
61,1436969373401,37.8450047067952
62,1436969373992,57.6932402479636
63,1436969374586,34.9001513820134
64,1436969375164,48.2040079894295
65,1436969375755,33.3534580567571
66,1436969376932,49.6218532843959
67,1436969377476,27.3074753276725
68,1436969378043,42.2787465543137
69,1436969378626,29.5505667203424
70,1436969379193,37.8543279850081
71,1436969380402,31.8112926090793
72,1436969380973,32.0594104012873
73,1436969381543,57.0354837252524
74,1436969382160,48.7233533737459
75,1436969382738,39.174492579417
76,1436969383309,24.5329127304575
77,1436969383866,39.5336538545224
78,1436969384422,34.3568331410488
79,1436969384975,43.9800314962944
80,1436969385532,48.6002086030577
81,1436969386087,40.3643524877383
82,1436969386653,37.9101047364301
83,1436969387232,47.2729541813362
84,1436969387778,25.7597985264091
85,1436969388320,28.2661439352909
86,1436969388878,48.1121114370412
87,1436969390293,42.5998980822229
88,1436969390844,45.5734941254929
89,1436969391407,35.7890495839939
90,1436969391963,62.2268112325708
91,1436969392546,61.0461686252753
92,1436969393146,43.4409457246519
93,1436969393696,57.0110352504223
94,1436969394249,68.0409520545327
95,1436969394799,53.2367900748063
96,1436969395393,55.2526120076094
97,1436969396118,52.1294673925779
98,1436969396832,65.5863972475758
99,1436969397500,44.161624079494
100,1436969398054,31.1951356228696
101,1436969398633,51.0448144249218
102,1436969399235,64.832019660156
103,1436969399837,52.9107036738638
104,1436969400431,58.8027988688466
105,1436969401752,54.949051356012
106,1436969402489,47.594787926277
107,1436969403202,47.0397147300907
108,1436969403884,37.6514210582711
109,1436969404590,42.0512221590028
110,1436969405270,40.3535393255699
111,1436969405970,28.7553262571663
112,1436969406704,41.7106192600212
113,1436969407369,42.1456168620361
114,1436969408099,42.9440080771993
115,1436969408822,37.1390753298503
116,1436969409520,46.1934141347946
117,1436969410240,40.7846719342308
118,1436969410978,66.6972026669807
119,1436969411705,44.1371755545287
120,1436969412452,46.5184357590178
121,1436969413170,43.1904266278691
122,1436969413904,20.2353480281093
123,1436969414621,46.7149642173856
124,1436969415338,32.4027955916653
125,1436969415993,25.7951855259206
126,1436969416718,48.0557597795474
127,1436969417483,21.0829659460681
128,1436969418209,37.9505360762568
129,1436969418873,25.5125655890872
130,1436969419629,34.6606533185938
131,1436969420348,25.2316554811083
132,1436969421090,40.093141732733
133,1436969421809,29.7118381507936
134,1436969422482,24.4802886969557
135,1436969423156,33.9173502703652
136,1436969423899,45.2413590534412
137,1436969424633,38.886594184741
138,1436969425342,30.0213516035275
139,1436969426021,45.9059000356114
140,1436969426670,24.6989380575631
141,1436969427439,41.7234070746931
142,1436969428141,47.1370932129857
143,1436969428853,36.7866932492884
144,1436969429528,43.2566654233158
145,1436969430212,19.2491533274183
146,1436969430934,38.4187645401362
147,1436969431681,21.0855688636314
148,1436969432397,24.5348786768575
149,1436969433118,39.0332156596962
150,1436969433879,38.6088332134226
151,1436969434618,42.0725611771051
152,1436969435331,41.5644274447755
153,1436969436014,42.0424573896882
154,1436969436654,39.119079861103
155,1436969437338,25.3049319906251
156,1436969438099,39.9019485695453
157,1436969438758,54.9171710411396
158,1436969439470,38.8147736710667
159,1436969440101,33.0147578717602
160,1436969440788,47.6098788281745
161,1436969441545,27.954719672074
162,1436969442290,53.969461800919
163,1436969442986,46.8598194905888
164,1436969443687,38.7745562387522
165,1436969444405,43.8289457315084
166,1436969445125,21.9910356164554
167,1436969445824,23.8859785024164
168,1436969446508,40.6085038008942
169,1436969447229,18.1067544430664
170,1436969447851,34.5099714744559
171,1436969448564,32.9715010048788
172,1436969449303,38.9860277742395
173,1436969450037,29.2352154494488
174,1436969450784,41.4038838619084
175,1436969451486,42.6493109078847
176,1436969452118,39.9055225208402
177,1436969452856,60.3092337359927
178,1436969453598,52.6604200543823
179,1436969454357,45.3150165274841
180,1436969455098,31.7986579575458
181,1436969455822,47.5782788395988
182,1436969456607,64.1723368884396
183,1436969457376,29.5773249331242
184,1436969458021,40.3127025471495
185,1436969458771,39.6048385416889
186,1436969459515,47.8840015773673
187,1436969460227,35.1574577441527
188,1436969460926,37.248670374162
189,1436969461653,58.9956579366456
190,1436969462268,56.2686552059353
191,1436969462947,35.9324787194049
192,1436969463668,36.017162047085
193,1436969464400,36.8294688072459
194,1436969465141,34.4953699106989
195,1436969465872,66.3695068726073
196,1436969466590,40.4496233409342
197,1436969467345,34.3784915548
198,1436969467998,39.4143228155319
199,1436969468741,54.4043249326999
200,1436969469458,39.9121179421454
201,1436969470146,46.0064045354919
202,1436969470855,60.1940016480726
203,1436969471557,39.1014983493646
204,1436969472258,39.8545540594292
205,1436969472996,42.8293153495166
206,1436969473721,44.139477742127
207,1436969474473,42.9412393874691
208,1436969475198,42.5640190442465
209,1436969475955,40.1743435164949
210,1436969476680,39.0710058909807
211,1436969477389,38.6116579794978
212,1436969478091,35.0835948021094
213,1436969478678,30.9633153773715
214,1436969479345,34.5181582109647
215,1436969480066,29.9315224123415
216,1436969480809,45.8877175589695
217,1436969481529,46.9543791126991
218,1436969482400,33.3911305627021
219,1436969483016,34.5324207905512
220,1436969483727,33.2500395711919
221,1436969484468,49.690097295273
222,1436969485188,34.7313729396605
223,1436969485902,51.8429129882194
224,1436969486642,58.5462099273446
225,1436969487363,35.6937768141616
226,1436969488062,63.2874887381118
227,1436969488719,43.5102125704209
228,1436969489445,28.8871951017776
229,1436969490175,68.581770687443
230,1436969490924,63.883011222808
231,1436969491684,70.8031585936419
232,1436969492395,32.5760373482525
233,1436969493080,34.9003480729403
234,1436969493820,38.2591237944704
235,1436969494556,42.0748250580928
236,1436969495293,30.8834215063763
237,1436969496014,30.7116180987805
238,1436969496739,33.0814055490457
239,1436969497466,62.5209052770884
240,1436969498185,45.8605466474924
241,1436969498901,44.9121393000301
242,1436969499601,68.4168099417792
243,1436969500327,57.5719230704266
244,1436969501047,34.8983270876682
245,1436969501746,57.9864794000323
246,1436969502356,71.345092549546
247,1436969503014,59.9985276630792
248,1436969503752,29.9541228717373
249,1436969504481,64.1862544424952
250,1436969505206,36.4438243234921
251,1436969505933,22.8041365606785
252,1436969506648,25.7757839661926
253,1436969507382,60.4935954934222
254,1436969508090,61.5687506297026
255,1436969508807,26.9990190350546
256,1436969509495,36.5056290089347
257,1436969510141,43.6868793928926
258,1436969510829,26.7902195566942
259,1436969511538,28.7107554936426
260,1436969512278,41.2192143741315
261,1436969512954,47.8743024947924
262,1436969513640,64.6724237687414
263,1436969514353,43.0981506143903
264,1436969515076,54.7436992397282
265,1436969515801,33.8149022696683
266,1436969516539,55.1579283527087
267,1436969517260,67.3457553873997
268,1436969518028,61.7299237362801
269,1436969518764,57.8468532219052
270,1436969519439,39.3522795038857
271,1436969520145,23.2650867144049
272,1436969520813,72.1907635523757
273,1436969521535,64.75192405429
274,1436969522298,48.2287208664681
275,1436969523026,39.7379343318919
276,1436969523787,52.5106658126894
277,1436969524451,50.9819079574912
278,1436969525176,60.1851881911402
279,1436969525904,45.9354646951359
280,1436969526652,38.0041174677738
281,1436969527393,39.5429690740452
282,1436969528110,38.7435316792868
283,1436969528844,57.003552274976
284,1436969529586,36.4704513014334
285,1436969530218,31.5121364572908
286,1436969530918,31.4614954460908
287,1436969531643,49.581488644658
288,1436969532385,71.2362907490335
289,1436969533128,57.2167879319912
290,1436969533868,32.3788292285282
291,1436969534525,67.0800536536005
292,1436969535259,36.4092952844849
293,1436969536001,64.8105720186324
294,1436969536713,54.8710968262871
295,1436969537438,63.596161478573
296,1436969538181,52.0809287394309
297,1436969538869,56.1597868093782
298,1436969539443,61.130703221696
299,1436969540110,35.2767717135424
300,1436969540802,43.8267204816827
301,1436969541513,57.6169077966287
302,1436969542232,62.4060473598583
303,1436969542949,55.7074828264653
304,1436969543590,51.7114877873924
305,1436969544285,60.8606650105481
306,1436969545022,28.1147476146171
307,1436969545761,64.678573951319
308,1436969546493,32.0624911268194
309,1436969547227,65.4897106398453
310,1436969548027,39.6827746131538
311,1436969548792,55.4992049036432
312,1436969549523,44.1744200929784
313,1436969550251,49.167938261772
314,1436969550959,71.9714423845092
315,1436969551603,59.7023347192847
316,1436969552368,49.2295473815893
317,1436969553123,59.5171991787913
318,1436969553858,32.827812538908
319,1436969554539,55.6811133072365
320,1436969555147,49.2886497979073
321,1436969555839,53.0498444744655
322,1436969556587,48.8560886957177
323,1436969557323,64.7407276972183
324,1436969558062,35.7187275758421
325,1436969558806,49.202041973715
326,1436969559530,43.559764968547
327,1436969560260,43.0537575101153
328,1436969560974,25.0265061451532
329,1436969561659,66.2428689201443
330,1436969562254,63.856976561224
331,1436969563509,71.3655278715445
332,1436969564183,65.9657919979087
333,1436969564873,61.2896751122503
334,1436969565564,66.8069243998296
335,1436969566262,59.1726442836176
336,1436969566987,31.5538886413968
337,1436969567720,69.7855933295643
338,1436969568477,27.7580783485797
339,1436969569204,66.5214206174106
340,1436969569925,68.4597288114685
341,1436969570648,60.0625432670253
342,1436969571332,66.872976582355
343,1436969571963,67.4029514765768
344,1436969573507,59.6597930252158
345,1436969574204,71.8022286972484
346,1436969574951,40.5677876615658
347,1436969575716,36.1327333836077
348,1436969576342,30.2938124959563
349,1436969577023,61.1873834476741
350,1436969577747,49.8855909112078
351,1436969578482,35.2700053079357
352,1436969579181,66.8499316601716
353,1436969579761,62.3209786128346
354,1436969580429,60.0212549702215
355,1436969581162,28.7431322344912
356,1436969581873,49.3855468775712
357,1436969582564,49.7433644215536
358,1436969583254,60.1037406677486
359,1436969583928,44.4270010016306
360,1436969584693,53.3055917384575
361,1436969585409,33.0453949264735
362,1436969586126,65.9945494516838
363,1436969586822,59.9443353407545
364,1436969588627,35.9325283020196
365,1436969589310,62.1942866030692
366,1436969590034,52.1898837322489
367,1436969590773,36.4582101132878
368,1436969591482,36.3944478153294
369,1436969592263,32.3805322474198
370,1436969592982,68.5574036768293
371,1436969593701,23.0702003147862
372,1436969594423,25.6792843724841
373,1436969595144,42.2201626143296
374,1436969595825,51.3078511095067
375,1436969597481,62.8048531836292
376,1436969598221,64.7658705749735
377,1436969598939,61.173492487703
378,1436969599656,61.0187081788417
379,1436969600290,37.6788041278154
380,1436969600970,49.8666310244845
381,1436969601747,40.3021051474485
382,1436969602486,62.6268589320499
383,1436969603225,49.2672210723151
384,1436969603967,64.6110308862644
385,1436969604583,54.5811157245604
386,1436969605313,28.7852020253363
387,1436969606040,63.8023472291031
388,1436969606785,20.3436076604854
389,1436969607562,62.9664095639043
390,1436969608299,46.6132367724708
391,1436969609019,51.133773863265
392,1436969609692,34.0564474878781
393,1436969610397,39.2092782365866
394,1436969611130,22.0943076338782
395,1436969611853,12.3101125780205
396,1436969612572,37.8733989323455
397,1436969613307,39.6868153377171
398,1436969614025,42.7086384872195
399,1436969614704,59.107934438083
400,1436969615425,43.6403100496594
401,1436969616146,56.5581053311506
402,1436969616882,23.3925342991656
403,1436969617618,51.5283883553151
404,1436969618358,56.8586486490989
405,1436969619032,60.0865560426027
406,1436969619719,48.4455362561038
407,1436969620423,51.0401526645226
408,1436969621144,39.8088322053712
409,1436969621870,60.0210111937664
410,1436969622604,58.7668087300609
411,1436969623331,45.6305176752989
412,1436969624019,29.6907470265987
413,1436969624645,50.5439873242829
414,1436969625375,62.1249294263911
415,1436969626119,45.9668817377216
416,1436969626870,62.2055809455899
417,1436969627634,66.5729999916657
418,1436969628377,48.5053368261885
419,1436969629067,59.2708166593592
420,1436969629740,41.5323362039909
421,1436969630488,42.3397931651542
422,1436969631232,37.4638464229302
423,1436969631968,67.7345253179724
424,1436969632669,67.0279384530956
425,1436969633389,69.3204608208722
426,1436969634121,58.3284584009908
427,1436969634850,27.0266693364572
428,1436969635541,59.1522596700008
429,1436969636228,71.3526268559105
430,1436969636981,64.676654280521
431,1436969637738,45.7303578392729
432,1436969638456,53.2926199051574
433,1436969639194,72.2349361497034
434,1436969640019,69.6151687788958
435,1436969640723,45.1459108889646
436,1436969641442,43.81140384319
437,1436969642122,37.4938428736145
438,1436969642838,75.2042106307698
439,1436969643551,52.7158575950703
440,1436969644219,58.2013054934997
441,1436969644811,64.9887979573163
442,1436969645403,61.2101541131709
443,1436969645949,46.9622350851753
444,1436969646499,61.3172504675613
445,1436969647093,62.3730722203161
446,1436969647788,46.9739230062552
447,1436969648552,54.8663604459474
448,1436969649228,53.9959449269966
449,1436969649780,57.6922296586165
450,1436969650361,69.322345505963
451,1436969650938,61.2912306630915
452,1436969651502,31.2787531542897
453,1436969653086,40.0513515557074
454,1436969653767,29.7291640239322
455,1436969654493,65.9830086670791
456,1436969655209,65.2566325379032
457,1436969655974,69.3246929124993
458,1436969656536,67.3677377974172
459,1436969657138,58.5316664516739
460,1436969657689,70.5570470567613
461,1436969658270,65.7516034498076
462,1436969658972,55.766885788703
463,1436969659668,32.387719658484
464,1436969660198,20.6884218749052
465,1436969660761,43.5590958982312
466,1436969661318,26.5958668063332
467,1436969661867,28.5048344625438
468,1436969663139,40.4440588286287
469,1436969663803,26.5609837157955
470,1436969664522,26.3636211099394
471,1436969665259,37.3396220339727
472,1436969666009,25.30557951092
473,1436969666708,21.3453610946217
474,1436969667285,46.8124560195148
475,1436969667865,20.6772446317699
476,1436969668417,35.3047593021615
477,1436969668981,24.3343097442573
478,1436969669614,23.2881346871038
479,1436969670333,59.9610317082815
480,1436969671034,61.3762156980521
481,1436969671579,61.6210954980399
482,1436969672151,29.7259276037632
483,1436969672708,21.7581945501814
484,1436969674093,37.8370923912814
485,1436969674833,26.6675046116677
486,1436969675567,64.1648359262016
487,1436969676278,44.3831069597158
488,1436969677146,32.2746301632682
489,1436969677836,46.1663834450405
490,1436969678483,56.5537773905657
491,1436969679220,54.4364769535178
492,1436969679949,35.4380765826871
493,1436969680626,27.1985030646381
494,1436969681296,71.2705031295469
495,1436969682043,47.720130262267
496,1436969682821,26.552650886454
497,1436969683543,24.1046297562941
498,1436969684286,27.7058733220859
499,1436969685043,37.8091270767927
500,1436969685753,25.0699648333448
501,1436969686478,23.2726279018926
502,1436969687243,68.8977520679926
503,1436969687972,57.5173545341814
504,1436969688622,58.5404227487984
505,1436969689340,55.9836687265362
506,1436969690072,57.7265653232645
507,1436969690778,28.1779946775399
508,1436969691494,70.4704595189907
509,1436969692217,63.2046006886757
510,1436969692947,42.1213860219586
511,1436969693656,22.6144377738781
512,1436969694371,69.7801379631002
513,1436969695113,62.0981931941517
514,1436969695833,19.4481299782345
515,1436969696653,14.6791708608711
516,1436969697364,14.8258181970435
517,1436969698091,17.0269754242139
518,1436969698826,38.4249892620965
519,1436969699534,12.1594435381672
520,1436969700170,17.5410341674162
521,1436969700858,46.4709258751873
522,1436969701463,48.4164362148682
523,1436969702158,66.690665918872
524,1436969702924,62.464507539787
525,1436969703646,27.4540634246449
526,1436969704390,61.2497513381975
527,1436969705129,64.7121192612513
528,1436969705799,64.2107675717524
529,1436969706539,67.7471855087821
530,1436969707282,68.8109648262404
531,1436969708057,20.4050097986982
532,1436969708720,19.7584359272919
533,1436969709435,70.1140073149957
534,1436969710167,67.1216239251807
535,1436969710889,54.1778770836818
536,1436969711609,57.3863504326223
537,1436969712351,70.327400964863
538,1436969713085,55.6602435593402
539,1436969713801,61.5588576297409
540,1436969714542,60.6488517550604
541,1436969715271,64.1218810769677
542,1436969716021,59.6674993906064
543,1436969716740,68.5531689152763
544,1436969717499,47.4263273114351
545,1436969718198,62.0135618226566
546,1436969718898,57.8794047063118
547,1436969719627,28.1729094808621
548,1436969720347,28.8668459195318
549,1436969721086,34.0853677482182
550,1436969721766,63.9141624170286
551,1436969722374,52.2174358914035
552,1436969723070,46.9395794905298
553,1436969723792,46.8221246631309
554,1436969724552,41.0090770901548
555,1436969725269,44.7454569126608
556,1436969725922,61.0788287141654
557,1436969726613,59.0676279952884
558,1436969727340,21.8920714858371
559,1436969728116,58.7361770323215
560,1436969728874,37.9905920987636
561,1436969729587,41.1695092347342
562,1436969730330,47.9756010478093
563,1436969731072,36.4878115194713
564,1436969731790,60.8633952446442
565,1436969732513,42.0776816436518
566,1436969733226,22.8999377351891
567,1436969733930,68.4787779568074
568,1436969734673,42.9100384400976
569,1436969735349,29.0759037777201
570,1436969736075,66.0086760700814
571,1436969736869,69.5723547757663
572,1436969737601,71.4883245231166
573,1436969738332,33.42744755343
574,1436969739091,61.7360302628709
575,1436969739808,27.7960286393728
