id,attr_time,attr_db
1,1436969335861,32.7072614424442
2,1436969336589,32.8766144960775
3,1436969338070,38.1326045127971
4,1436969338872,48.7468910137881
5,1436969339576,34.309076855042
6,1436969340302,52.5797452011057
7,1436969341059,53.7026368890296
8,1436969341830,35.1244797278961
9,1436969342483,36.3567714032268
10,1436969343183,35.5785538572807
11,1436969343886,26.1362629549917
12,1436969345263,33.2162163230001
13,1436969346004,23.7520400331762
14,1436969346743,52.5939759978489
15,1436969347474,36.9059559685119
16,1436969348158,36.0746710385058
17,1436969348816,15.4413910726703
18,1436969350231,27.5314182942806
19,1436969350951,14.3516588928223
20,1436969351649,22.226692880033
21,1436969352310,14.6123993088535
22,1436969353006,16.5449765487105
23,1436969353663,19.6671224074707
24,1436969354435,14.4358792861076
25,1436969355188,47.5032209652172
26,1436969355920,18.8957625761379
27,1436969356608,36.546643481207
28,1436969357360,60.5237197972174
29,1436969358088,23.9133795028629
30,1436969358797,16.0234770303452
31,1436969359479,40.7659214387059
32,1436969360113,45.5181412979382
33,1436969360825,22.9371704885226
34,1436969361555,42.4159469625397
35,1436969362273,21.0068920891096
36,1436969363020,23.7346900448615
37,1436969363744,30.2362415346878
38,1436969364500,22.4068129670277
39,1436969365233,26.1434636929279
40,1436969365954,40.6309884211518
41,1436969366694,46.6813085197705
42,1436969367416,59.0917333235149
43,1436969368159,34.5704544841193
44,1436969368881,39.9470696453311
45,1436969369620,47.4043876028507
46,1436969370257,39.7518674569073
47,1436969370953,40.4943794601448
48,1436969371682,41.5828695754025
49,1436969372361,29.9347467579905
50,1436969373060,16.5911399603941
51,1436969373783,46.0343550507762
52,1436969374530,36.6940366892738
53,1436969375280,41.5596841980519
54,1436969375960,44.3896876145497
55,1436969376646,16.228962597791
56,1436969377375,36.8398607147975
57,1436969378105,39.6202646930872
58,1436969378847,36.6522945586181
59,1436969379573,38.8232441939464
60,1436969380297,38.8752233435351
61,1436969380983,29.3948877363648
62,1436969381737,57.3140798301831
63,1436969382462,40.6327115662233
64,1436969383202,35.4076366063398
65,1436969383970,41.8028017368899
66,1436969384707,35.5058400716114
67,1436969385445,47.5106214625946
68,1436969386185,42.7654938721306
69,1436969386923,43.1398881168563
70,1436969387666,47.5201472418275
71,1436969388416,29.0459627011878
72,1436969389196,43.7436666158082
73,1436969389929,57.8753666504978
74,1436969390606,63.7871464761721
75,1436969391265,48.1397442876345
76,1436969391907,67.2201001882287
77,1436969392593,66.5815511852789
78,1436969393324,42.1164015763172
79,1436969394034,73.2827561992867
80,1436969394766,64.5686626828537
81,1436969395523,54.7305425662873
82,1436969396137,50.5026508080688
83,1436969396836,45.2910128278455
84,1436969397567,42.9800032931638
85,1436969398272,22.559781635189
86,1436969398947,57.0694131884296
87,1436969399697,48.4124152810695
88,1436969400428,61.3239388786117
89,1436969401161,23.4138900497363
90,1436969401872,49.0860717431847
91,1436969402507,44.2413648628402
92,1436969403222,36.6324087248284
93,1436969403953,40.0750952006071
94,1436969404717,45.71218280363
95,1436969405431,47.5787703286471
96,1436969406167,29.0846544566839
97,1436969406913,36.1705761625498
98,1436969407663,51.0387752788992
99,1436969408396,41.1050708967221
100,1436969409121,29.2549841499564
101,1436969409857,49.9146428454206
102,1436969410592,76.7267544638025
103,1436969411389,56.8905102473064
104,1436969412181,50.0720610503694
105,1436969412829,45.3055702618892
106,1436969413570,35.4319589422579
107,1436969414340,55.0110838711777
108,1436969415100,28.1240597144819
109,1436969415833,15.2153707700449
110,1436969416557,64.162269246152
111,1436969417292,34.0969407419779
112,1436969418028,46.9626322713051
113,1436969418793,27.7918468075816
114,1436969419548,23.8544652645986
115,1436969420305,22.9471468042462
116,1436969421035,34.2359098276681
117,1436969421774,27.2465389090626
118,1436969422517,20.4288472817853
119,1436969423247,20.3376105562297
120,1436969423951,18.7207071281919
121,1436969424700,31.1195947919149
122,1436969425443,20.2901219974146
123,1436969426128,37.4334637222915
124,1436969426834,19.4990087551982
125,1436969427561,35.3300644740751
126,1436969428289,47.3140444133789
127,1436969428982,38.350840798637
128,1436969429661,39.0489584689255
129,1436969430424,18.8235263366571
130,1436969431169,43.5650649223923
131,1436969431895,20.0149353242673
132,1436969432612,21.498229303625
133,1436969433255,55.2162337940901
134,1436969433999,37.8308446803804
135,1436969434741,28.5822000745812
136,1436969435511,49.4264650419288
137,1436969436247,39.5668797778851
138,1436969436885,45.6210171985347
139,1436969437561,17.3388986050631
140,1436969438234,42.3998243193434
141,1436969438989,35.9555674411534
142,1436969439701,41.0216754558895
143,1436969440368,30.1660686160602
144,1436969441095,42.4945833799156
145,1436969441817,20.1955817441289
146,1436969442552,40.188022681786
147,1436969443283,45.7333453258285
148,1436969444000,42.3880787026051
149,1436969444689,30.4011501580763
150,1436969445340,18.3469411009883
151,1436969446062,20.5331380203469
152,1436969446869,28.7443348824378
153,1436969447602,16.4862712891184
154,1436969448343,44.8705812677675
155,1436969449082,42.3798269955796
156,1436969449816,45.0123619548682
157,1436969450563,72.1515520373122
158,1436969451308,50.5044583205657
159,1436969452059,44.2725398470784
160,1436969452785,43.4728254838477
161,1436969453509,58.5672548749321
162,1436969454237,39.7702365925418
163,1436969454895,59.8522452489359
164,1436969455646,56.6514734308629
165,1436969456366,42.3878051389859
166,1436969457022,31.839185141266
167,1436969457779,50.0232087967533
168,1436969458459,54.2402429842712
169,1436969459197,45.4013051031784
170,1436969459923,41.1273598913951
171,1436969460670,28.579878541951
172,1436969461408,31.1733099914234
173,1436969462142,61.8451978891775
174,1436969462884,34.4218002125931
175,1436969463600,30.2396890999698
176,1436969464363,30.6714671340879
177,1436969465073,27.8638001375801
178,1436969465792,73.2098857727355
179,1436969466523,45.5544600496927
180,1436969467238,36.0804733142625
181,1436969467968,35.1469261808822
182,1436969468704,48.1947550985745
183,1436969469394,35.4831320485242
184,1436969470117,49.1238570346671
185,1436969470860,51.7956786840551
186,1436969471593,38.203966014002
187,1436969472361,40.1179457538537
188,1436969473401,49.9914736652867
189,1436969473978,41.3547557311842
190,1436969474651,40.0213411599292
191,1436969475318,38.7790028373731
192,1436969475937,40.0637674772338
193,1436969476619,37.6708770492669
194,1436969477346,36.8928754073508
195,1436969478125,31.9155565253011
196,1436969478854,30.2937667295989
197,1436969479498,32.6667498436798
198,1436969480122,23.5241017347678
199,1436969480810,44.5172057371355
200,1436969481509,49.9818152278331
201,1436969482176,40.2885791383332
202,1436969482927,40.7146110776451
203,1436969483652,28.2770800882017
204,1436969484383,43.1029137812501
205,1436969485119,32.7687235706217
206,1436969485787,65.7267773035207
207,1436969486401,27.2436864035207
208,1436969487096,25.1725586103435
209,1436969487861,55.1812732917857
210,1436969488586,75.7508001580051
211,1436969489386,40.0581735185824
212,1436969490186,55.3579839704834
213,1436969490916,71.3597828669603
214,1436969491655,70.8423617598003
215,1436969492379,32.4508340856242
216,1436969493110,34.0424378439182
217,1436969493816,34.4223660213401
218,1436969494497,43.808503477852
219,1436969495318,29.5264983760997
220,1436969496102,27.7364657638613
221,1436969496848,29.9549800421894
222,1436969497475,67.2878337564652
223,1436969498167,39.8279122803773
224,1436969498913,45.9189177323421
225,1436969499714,66.7504335522912
226,1436969500427,55.2641246133636
227,1436969501165,25.0989132356687
228,1436969501895,69.2395510411302
229,1436969502614,67.4067161335099
230,1436969503345,47.6520073138666
231,1436969504082,25.0416344858888
232,1436969504803,46.0359613826999
233,1436969505542,37.3326764815242
234,1436969506285,65.6496618909939
235,1436969507021,49.6836958767942
236,1436969507713,65.2725321108055
237,1436969508430,63.1361659067796
238,1436969509171,25.5417382563559
239,1436969510006,22.1046265732523
240,1436969510614,24.5885435063235
241,1436969511345,22.3020749635336
242,1436969512062,36.5789925017633
243,1436969512797,35.4887660066611
244,1436969513523,34.5279798516878
245,1436969514229,43.2339390380101
246,1436969514969,70.0728149631775
247,1436969515688,38.1155329007185
248,1436969516390,57.5145438989565
249,1436969517060,71.2103184336348
250,1436969517778,72.6819025898011
251,1436969518361,69.2018273066975
252,1436969519074,65.1774968591317
253,1436969519793,30.567314720171
254,1436969520614,70.4270610742753
255,1436969521346,61.0948914477529
256,1436969522062,61.1251697108662
257,1436969522759,63.0437799254707
258,1436969523506,30.5504330997158
259,1436969524233,55.6543496943586
260,1436969525012,69.4235301816522
261,1436969525768,61.0994924331838
262,1436969526505,39.4017144338953
263,1436969527245,39.3158134608875
264,1436969527992,34.641258685609
265,1436969528704,73.1919212880379
266,1436969529412,46.3663874707497
267,1436969530142,29.1516268786778
268,1436969530905,31.4180482243052
269,1436969531622,28.4896271243308
270,1436969532319,70.2436629302717
271,1436969533031,67.6006380639383
272,1436969533699,70.106298115444
273,1436969534373,70.9618528938757
274,1436969534990,68.0968835624104
275,1436969536420,72.7767318655053
276,1436969537083,65.2100071867986
277,1436969537817,63.0108868311886
278,1436969538537,37.9091808483692
279,1436969539181,67.1451723703128
280,1436969539856,33.0361230677433
281,1436969540575,31.1020687133112
282,1436969541324,75.1285391409976
283,1436969542070,69.9830127112957
284,1436969542871,74.4157512771865
285,1436969543601,75.9399251597424
286,1436969544326,68.451590388144
287,1436969545005,26.3841794687111
288,1436969546382,69.9987320160424
289,1436969547096,67.6716754338681
290,1436969547819,67.9486785056339
291,1436969548551,76.095205512415
292,1436969549305,73.6687218740578
293,1436969550025,48.5166948011411
294,1436969550693,63.210474262136
295,1436969551409,77.519227705054
296,1436969552124,45.94569169417
297,1436969552880,49.8190360313962
298,1436969553536,36.2851900868362
299,1436969554282,52.894825068832
300,1436969554999,50.3053844528366
301,1436969555752,75.0012735570044
302,1436969556491,74.4322573999479
303,1436969557228,69.4222073628256
304,1436969557946,35.4888732750673
305,1436969558674,52.3665164098451
306,1436969559386,47.0208084886439
307,1436969560097,48.9420225415607
308,1436969561436,59.5217223043902
309,1436969562119,67.3815445123405
310,1436969562838,66.141986672542
311,1436969563561,74.0722402618652
312,1436969564315,67.8530095827004
313,1436969565033,73.7193278224037
314,1436969565767,59.6686671293062
315,1436969566477,78.1908324345736
316,1436969567229,77.2849504160109
317,1436969567972,70.5963142661769
318,1436969568693,68.8080722883323
319,1436969570602,49.1404349760151
320,1436969571313,73.3324153323252
321,1436969571953,48.8329215313984
322,1436969572636,70.9385102380414
323,1436969573367,71.6478086828431
324,1436969574089,39.4706157515169
325,1436969574905,49.1224465105511
326,1436969575512,72.3594502987337
327,1436969576222,72.7437335652091
328,1436969576983,65.4559454381489
329,1436969577733,73.2055340212347
330,1436969578463,41.7308929726565
331,1436969579176,74.8028712793825
332,1436969579939,65.0729652539514
333,1436969580625,65.7779579658724
334,1436969581350,19.6672336328408
335,1436969581991,66.3158254230464
336,1436969582719,73.9580271691216
337,1436969583468,48.9816456254003
338,1436969584209,57.3438519181614
339,1436969584842,78.3934914858678
340,1436969585529,75.4574429219182
341,1436969586293,68.1796983315195
342,1436969587015,69.6175694432205
343,1436969587752,66.8501046890046
344,1436969588472,45.4379438186265
345,1436969589210,73.807008770469
346,1436969590020,47.268777038934
347,1436969590756,44.9188498613978
348,1436969591466,29.0158275236769
349,1436969592127,37.1625642251063
350,1436969592877,34.3566400961368
351,1436969593617,16.8616694089996
352,1436969594440,43.0225526678341
353,1436969595214,37.2744383437442
354,1436969595898,53.9222764697524
355,1436969596606,39.4044832667652
356,1436969597326,69.6003210547803
357,1436969598052,67.8984525091151
358,1436969598790,62.0587340485292
359,1436969599509,67.1974542227404
360,1436969600139,44.7157813551751
361,1436969600830,14.2170527284034
362,1436969601573,41.0322017434178
363,1436969602308,15.2636289748171
364,1436969602986,71.0483292727952
365,1436969603767,66.0574831994061
366,1436969604490,16.0041064981037
367,1436969605111,31.1020257167143
368,1436969605810,48.5091863744748
369,1436969606541,18.7932875775444
370,1436969607274,13.8835701496551
371,1436969608027,12.6587614351423
372,1436969608786,29.4821456765141
373,1436969609561,13.4532513567193
374,1436969610315,37.4756523584284
375,1436969611063,34.1347147350779
376,1436969611810,11.8703352990658
377,1436969612541,42.195140980542
378,1436969613203,34.0614813144637
379,1436969613958,38.1847236244908
380,1436969614632,72.512171091615
381,1436969615298,52.7912815870866
382,1436969616017,66.289286159745
383,1436969616749,53.8428944257565
384,1436969617430,53.5217658672703
385,1436969618156,67.1507406002969
386,1436969618894,63.0583807412504
387,1436969619625,73.0566523484352
388,1436969620301,46.8062212584069
389,1436969621041,66.1724106466814
390,1436969621784,67.4532719763453
391,1436969622532,74.574037392739
392,1436969623204,68.3583375720329
393,1436969623834,67.7773283187929
394,1436969624535,72.0418481617441
395,1436969625340,69.5113338131542
396,1436969626092,64.1593808235061
397,1436969626817,71.1859431214454
398,1436969627399,60.6318928229581
399,1436969628086,23.2945630233828
400,1436969628810,48.0040163996746
401,1436969629525,46.0415409354783
402,1436969630309,39.6607123703607
403,1436969631030,35.5950778776256
404,1436969631760,75.9105283995472
405,1436969632514,68.0533840613487
406,1436969633265,70.4589531512733
407,1436969633963,73.6281690978609
408,1436969634690,69.3782648404377
409,1436969635439,42.6599151514133
410,1436969636117,68.0022424945931
411,1436969636892,53.0082537517568
412,1436969637553,59.7072241593912
413,1436969638267,65.6646361267538
414,1436969639031,72.428277097247
415,1436969639747,45.5898658685538
416,1436969640403,32.4281647045992
417,1436969641120,28.5909946898814
418,1436969641851,37.2530242936419
419,1436969642594,48.7385170119779
420,1436969643335,61.3746040869472
421,1436969644059,74.2160458333782
422,1436969644750,64.551000000056
423,1436969645446,62.9741392744298
424,1436969646172,60.3494382627591
425,1436969646924,57.0734424516722
426,1436969647575,72.6313349044573
427,1436969648310,71.8705036974751
428,1436969649039,37.0986396136032
429,1436969649888,76.6338200554855
430,1436969650604,74.3805195900252
431,1436969651247,44.151590992083
432,1436969651837,28.9864699973932
433,1436969652509,40.8549083570003
434,1436969653243,31.769919141501
435,1436969653970,32.7900397617116
436,1436969654708,67.7045696372266
437,1436969655533,34.8650013146964
438,1436969656161,66.5011617885587
439,1436969656882,30.2891743831334
440,1436969657599,74.4850317369991
441,1436969658302,67.3869806344683
442,1436969659024,61.8191670120051
443,1436969659719,25.9878572102858
444,1436969660392,19.2418379742224
445,1436969661114,42.9145543437233
446,1436969661866,54.7640177928923
447,1436969662600,57.4149502479376
448,1436969663330,28.1923487828727
449,1436969664073,35.1133209845445
450,1436969664807,23.1765333603676
451,1436969665607,34.7009605370674
452,1436969666334,19.1993026506346
453,1436969667086,16.0110628486939
454,1436969667840,16.1682345573732
455,1436969668551,34.0061655385365
456,1436969669245,20.3976202089896
457,1436969670014,18.3670042353773
458,1436969670774,55.4139215029967
459,1436969671523,56.805836283061
460,1436969672251,36.2552655757925
461,1436969672975,31.8025275875139
462,1436969673704,18.0873678804141
463,1436969674441,29.2128765282147
464,1436969675157,25.2368820635137
465,1436969675884,68.1360632854995
466,1436969676527,69.8592547407873
467,1436969677215,29.5778385068116
468,1436969677970,68.2262926504936
469,1436969678699,67.9975680176105
470,1436969679383,64.5952586670317
471,1436969680141,38.4124870489646
472,1436969680817,21.3032435878505
473,1436969681544,62.6853213089387
474,1436969682287,51.9192654459415
475,1436969683013,25.2504346680485
476,1436969683733,22.2619884358411
477,1436969684482,39.6503406319606
478,1436969685213,29.2356854626933
479,1436969685952,13.2979238868792
480,1436969686635,58.7389586215504
481,1436969687394,65.4676066176469
482,1436969688139,69.3451553794453
483,1436969688872,72.0636346476591
484,1436969689576,58.4047270820261
485,1436969690229,58.2681662179376
486,1436969690958,26.6247399584955
487,1436969691716,73.12934534458
488,1436969692442,70.737675094101
489,1436969693180,46.1617898753732
490,1436969693923,11.225934869907
491,1436969694688,60.4719801789171
492,1436969695415,51.661665686069
493,1436969696172,10.8179270756591
494,1436969696861,15.1869547360504
495,1436969697525,15.664566446714
496,1436969698264,16.0182919115785
497,1436969698982,33.9754151396294
498,1436969699754,10.8392854508489
499,1436969700414,11.2937665230783
500,1436969701099,42.0716229491273
501,1436969701838,66.2267823045689
502,1436969702545,68.0568215521044
503,1436969703211,32.759217574984
504,1436969703910,15.879971815719
505,1436969704654,69.4318519820999
506,1436969705394,65.556679479456
507,1436969706146,65.9422638998282
508,1436969706843,67.617784133694
509,1436969707496,55.3683222546418
510,1436969708226,17.997638192776
511,1436969708961,25.7338620224866
512,1436969709686,74.5005775432862
513,1436969710363,57.6482685597249
514,1436969711106,41.1213047803667
515,1436969711842,71.5635003139921
516,1436969712578,69.2460320042011
517,1436969713319,43.8186200094443
518,1436969714057,62.9207058406492
519,1436969714798,33.4344304959841
520,1436969715541,73.2753503814712
521,1436969716288,67.0848007465839
522,1436969716938,69.1203883985865
523,1436969717618,63.5306074475628
524,1436969718353,70.827023967993
525,1436969719096,41.9015998519837
526,1436969719844,19.3080149647297
527,1436969720437,26.8173687932761
528,1436969721121,32.6202884678353
529,1436969721853,71.3095172065781
530,1436969722579,72.8648274126334
531,1436969723299,69.7281455946316
532,1436969724036,71.0128443865047
533,1436969724776,71.212969297329
534,1436969725502,61.5504398539289
535,1436969726232,72.4379916990798
536,1436969726978,73.7696150482362
537,1436969727665,67.8195969396665
538,1436969728291,74.0517125471833
539,1436969729006,50.2384782529547
540,1436969729766,42.0100932484706
541,1436969730480,33.1100029885414
542,1436969731211,20.5491849953657
543,1436969731877,43.8627576515815
544,1436969732622,22.4644732099118
545,1436969733366,59.4736110385702
546,1436969734097,70.3711608896145
547,1436969734832,74.2771634038103
548,1436969735563,70.5144143184745
549,1436969736247,69.7116892144649
550,1436969736888,69.5397391670604
551,1436969737577,60.0985202643519
552,1436969738244,36.1084585079049
553,1436969738874,72.4596431449139
554,1436969740713,71.8136006896144
555,1436969741382,72.0133233114622
556,1436969742081,41.0682583875203
557,1436969742771,54.0659044664486
558,1436969743510,63.438804940296
559,1436969744244,37.6457561784541
560,1436969744994,48.8675519434988
561,1436969745723,60.7109085060818
562,1436969746452,57.1648970399626
563,1436969747120,60.1677301945309
564,1436969747846,17.3972493742599
565,1436969748559,17.5743398216486
566,1436969749181,15.9421291611003
567,1436969749861,17.0471175533174
568,1436969750567,66.7545709453118
569,1436969751303,70.2833996662485
570,1436969752030,60.4603033664503
571,1436969752773,58.9229118959675
572,1436969754664,65.425540891178
573,1436969755371,59.1114268147292
574,1436969756037,55.1890113942141
575,1436969756795,31.2164152992447
