id,attr_time,attr_db
1,1436969336174,31.4911213855941
2,1436969336902,39.673091287848
3,1436969337634,42.0613605519466
4,1436969338355,37.2261741253594
5,1436969339105,36.0681207388121
6,1436969339821,41.0880756102949
7,1436969340461,43.7711517306178
8,1436969341163,43.2183609201768
9,1436969341884,31.3743117402227
10,1436969342609,32.7533386840533
11,1436969343328,22.5848435727172
12,1436969344068,23.9166890639184
13,1436969344804,36.3919388587439
14,1436969345533,25.3105512105283
15,1436969346196,21.7293255160352
16,1436969346928,46.0498023901725
17,1436969347676,32.4889088687308
18,1436969348391,19.2049977552449
19,1436969349128,12.5657116676015
20,1436969349862,23.191449736588
21,1436969350579,18.2351765463007
22,1436969351310,27.5755126705957
23,1436969352023,13.3697617751367
24,1436969352699,10.9016509485609
25,1436969353438,9.0691661990677
26,1436969354178,11.976171129253
27,1436969354893,11.2024759360916
28,1436969355607,11.3905476890703
29,1436969356252,13.2391283351053
30,1436969356929,15.1825622953383
31,1436969357694,20.1699999710218
32,1436969358385,13.1465701298697
33,1436969359116,41.4378199629202
34,1436969359826,27.459068957197
35,1436969360511,31.9025825474048
36,1436969361149,39.5261542748519
37,1436969361906,18.941148674335
38,1436969362577,16.9457072768461
39,1436969363302,35.8243153049356
40,1436969364032,17.8785728413539
41,1436969364758,18.0220665458743
42,1436969365546,22.4162136980903
43,1436969366256,60.5180653021328
44,1436969366927,57.94274896971
45,1436969367647,42.7301856406202
46,1436969368356,43.0192861645597
47,1436969369107,37.6799236607976
48,1436969369834,43.3107631013489
49,1436969370616,35.778048599463
50,1436969371369,34.5228633580772
51,1436969372086,44.003432985546
52,1436969372812,32.4808172276365
53,1436969373545,33.2672992798022
54,1436969374277,27.0036397804349
55,1436969375006,18.0077041796127
56,1436969375729,37.0939931745232
57,1436969376521,30.3889335193332
58,1436969378090,34.6837189829863
59,1436969378817,34.889844434987
60,1436969379533,35.8626474500902
61,1436969380249,25.5632772268056
62,1436969381010,29.2441582693499
63,1436969381757,38.0511854459684
64,1436969382353,39.4691324449075
65,1436969383046,36.3835270578164
66,1436969384815,23.2646460217046
67,1436969385616,47.1283387201603
68,1436969386345,38.3200298894877
69,1436969387012,29.9288361484524
70,1436969387744,29.0916410318955
71,1436969388484,35.0745702565647
72,1436969389207,41.6605007828851
73,1436969389910,48.4187059458873
74,1436969391920,46.614633107988
75,1436969392672,56.6506209509382
76,1436969393391,38.2010012985351
77,1436969394119,63.1888845418313
78,1436969394827,51.3775596605835
79,1436969396625,39.4803975615199
80,1436969397272,37.4467848328263
81,1436969398001,40.9011416227661
82,1436969398747,57.8088998153749
83,1436969399479,44.0947979623509
84,1436969400203,43.6359071772997
85,1436969400886,33.6839442601663
86,1436969401560,38.4603141802545
87,1436969402223,34.5994095900891
88,1436969402926,21.8164458204075
89,1436969403648,30.2120126986584
90,1436969404383,39.7602440436579
91,1436969405120,41.7168214847428
92,1436969405878,18.6269668212488
93,1436969406653,37.3293439805147
94,1436969407344,40.3254590227156
95,1436969407988,42.037943573004
96,1436969408722,38.000272796012
97,1436969409438,30.2301529674286
98,1436969410160,25.9349610448246
99,1436969410910,57.9711519757121
100,1436969411648,45.0298228161962
101,1436969412372,46.2429326044255
102,1436969413109,16.3473694104362
103,1436969413892,15.9201565178125
104,1436969414620,42.3954402635696
105,1436969415348,35.0225875676467
106,1436969416125,15.7605181823385
107,1436969416790,32.293705688982
108,1436969417418,16.1384187048633
109,1436969418148,42.464947089964
110,1436969418875,21.0528029304801
111,1436969419598,20.4752781568284
112,1436969420346,21.6223940916338
113,1436969421059,37.6785927252212
114,1436969421746,23.1436782259417
115,1436969422460,17.9329776359178
116,1436969423196,26.6961167511966
117,1436969423927,47.5483825744197
118,1436969424685,35.5687118820618
119,1436969425418,15.9354292707348
120,1436969426143,33.9362525892129
121,1436969426880,23.5018861508796
122,1436969427493,35.8356813638319
123,1436969428202,43.5103590798814
124,1436969428912,30.8604009482562
125,1436969429688,25.4717486645048
126,1436969430409,18.3085174620708
127,1436969431105,32.4430199337013
128,1436969431829,13.5553933347206
129,1436969432553,21.5866135464987
130,1436969433298,46.0003178711699
131,1436969434043,36.180110020284
132,1436969434772,30.2902621629259
133,1436969435502,44.4082696144491
134,1436969436264,36.2508024453071
135,1436969437042,38.2554713410576
136,1436969437678,26.6814843814541
137,1436969438351,34.0097471849092
138,1436969439119,38.867532296689
139,1436969439854,35.4697982090742
140,1436969440555,41.7414522326905
141,1436969441183,31.2104717733779
142,1436969441848,19.4213617522691
143,1436969442559,47.1320842429967
144,1436969443277,43.5459862916127
145,1436969444006,40.386211468905
146,1436969444714,22.8817709521498
147,1436969445423,17.69506324451
148,1436969446160,31.8833475588237
149,1436969446878,27.3163748157121
150,1436969447611,13.3167018078251
151,1436969448333,40.7165124276615
152,1436969449013,47.72778575103
153,1436969449768,44.4306635151458
154,1436969450489,62.3844823580622
155,1436969451224,41.716305749405
156,1436969451930,57.2935534443593
157,1436969452605,48.3547807256251
158,1436969453316,44.6510766461767
159,1436969454047,16.5988651445693
160,1436969454778,57.0082725186253
161,1436969455508,48.4994692105487
162,1436969456233,44.0738980085394
163,1436969456972,33.6752054478696
164,1436969457649,50.9912336592517
165,1436969458257,43.9325608730595
166,1436969458903,33.7464693815436
167,1436969459585,31.3831418824957
168,1436969460320,33.5195836494177
169,1436969461055,36.7104878212966
170,1436969461875,60.3603697813273
171,1436969462515,45.0501686810245
172,1436969463236,25.3989309484553
173,1436969463953,25.4063174021043
174,1436969464694,34.1945318224987
175,1436969465426,26.1172107656507
176,1436969466219,49.1415292384842
177,1436969466965,30.4543479137548
178,1436969467707,31.6554701437529
179,1436969468394,36.7739584694831
180,1436969469067,43.7335514234497
181,1436969469778,47.2483952634576
182,1436969470470,36.8938507472696
183,1436969471152,44.5472450602263
184,1436969471961,37.9013449397626
185,1436969472675,38.4409673294188
186,1436969473429,43.3874106309623
187,1436969474167,38.9962178204019
188,1436969474901,41.2702559796763
189,1436969475627,37.9345449062226
190,1436969476358,38.876777267569
191,1436969477106,36.2156817018902
192,1436969477822,34.2292799484953
193,1436969478553,28.9680914958111
194,1436969479234,22.5812054275141
195,1436969479887,22.2620164060725
196,1436969480613,22.4877502917907
197,1436969481371,38.1524412809654
198,1436969482039,33.9033188727795
199,1436969482771,37.4365383878658
200,1436969483507,26.5112213563669
201,1436969484220,47.2727713278822
202,1436969484963,32.8732074467558
203,1436969485680,56.5162714092496
204,1436969486436,39.7305328392761
205,1436969487148,21.4747482381428
206,1436969487860,45.2244862171725
207,1436969488587,57.5353168033091
208,1436969489309,32.4282251709099
209,1436969489989,26.9174907789608
210,1436969490727,37.6061896661318
211,1436969491467,62.0096625933652
212,1436969492205,44.6422897621401
213,1436969492927,32.5939640511097
214,1436969493652,29.6169366361418
215,1436969494392,37.122665956129
216,1436969495132,24.4696449028629
217,1436969495878,27.462135145638
218,1436969496467,39.136795181489
219,1436969497124,39.3238158079006
220,1436969497823,56.3848106627799
221,1436969498553,39.483660225696
222,1436969499262,30.4961974420564
223,1436969499944,58.4506687619383
224,1436969500690,31.9638469671659
225,1436969501347,55.5828968035916
226,1436969501982,49.7684459866547
227,1436969502710,47.6027131613446
228,1436969503440,29.3800642115623
229,1436969504195,48.1159861764911
230,1436969504915,31.2290664474347
231,1436969505647,18.3220694502629
232,1436969506447,50.440226335663
233,1436969507202,24.9221253707794
234,1436969507948,29.8084576939849
235,1436969508685,48.2715047945219
236,1436969509407,18.477749605403
237,1436969510108,24.4684393767818
238,1436969510856,21.7607711206439
239,1436969511628,23.7779254803992
240,1436969512352,33.4255934121401
241,1436969513089,31.0289817406168
242,1436969513844,45.8591797715255
243,1436969514545,40.09522044487
244,1436969515286,47.1242300626986
245,1436969516039,28.2726777880203
246,1436969516792,59.9356555350201
247,1436969517524,41.423750194988
248,1436969518144,58.3868305660081
249,1436969518835,57.8080846032351
250,1436969519545,36.3831416391505
251,1436969520251,21.0812071769544
252,1436969520926,44.9660804355322
253,1436969521641,55.6220859273477
254,1436969522285,45.2184807109135
255,1436969523000,29.0253600504234
256,1436969523795,46.7121797963138
257,1436969524508,50.4588651772043
258,1436969525245,50.7131516530151
259,1436969525968,37.6186205505925
260,1436969526702,27.4922134949763
261,1436969527424,31.22880543282
262,1436969528160,39.1084244692593
263,1436969528819,42.4512378014378
264,1436969529559,31.3448503710445
265,1436969530295,26.5088611455452
266,1436969530988,24.6352224580477
267,1436969531753,64.7997646479898
268,1436969532485,38.0647609408354
269,1436969533214,53.1800954437958
270,1436969533924,30.9435365471456
271,1436969534699,50.0862796217942
272,1436969535440,29.6352043572212
273,1436969536152,47.1373601534927
274,1436969536829,62.7764901373695
275,1436969537541,54.9867553885969
276,1436969538305,36.6439716399448
277,1436969538978,60.9647483283011
278,1436969539715,42.9899829358855
279,1436969540438,40.0083816155649
280,1436969541093,59.9233418748916
281,1436969541846,65.0815698858466
282,1436969542554,52.3030472556968
283,1436969543234,27.0223438489308
284,1436969543948,45.7602889648885
285,1436969544703,28.0563217114771
286,1436969545436,50.6072794278536
287,1436969546149,49.8501234374827
288,1436969546888,60.7813759426525
289,1436969547643,40.8405977370954
290,1436969548358,62.0000548119615
291,1436969549080,28.746818858545
292,1436969549784,41.3439847833869
293,1436969550484,51.4122708864769
294,1436969551179,60.1313715128373
295,1436969551864,58.5946553742194
296,1436969552584,39.5203106476307
297,1436969553324,38.5851429462881
298,1436969554050,30.8067790523721
299,1436969554787,49.1707232727673
300,1436969555466,48.9567689164681
301,1436969556191,62.2209993289494
302,1436969556927,35.5049006518004
303,1436969557655,38.8431379379841
304,1436969558336,67.16613969569
305,1436969558920,44.7381658443582
306,1436969559601,35.5031206731312
307,1436969560336,44.8593540396757
308,1436969561067,15.2711121311136
309,1436969561760,62.8797818601723
310,1436969562514,56.6859913775149
311,1436969563117,27.7144642793658
312,1436969563843,35.8109933149646
313,1436969564544,39.4134984670641
314,1436969565256,44.2927028392991
315,1436969565990,47.5127374329213
316,1436969566760,23.088851575488
317,1436969567502,62.3835092412788
318,1436969568137,34.7019400052238
319,1436969568840,55.9869432625504
320,1436969569564,59.3319199945463
321,1436969570312,54.0648974338844
322,1436969571030,21.1919197191316
323,1436969571650,49.0431615073569
324,1436969572340,34.9551628582225
325,1436969573099,50.0004588673695
326,1436969573842,53.8590020406345
327,1436969574559,49.6232431637653
328,1436969575270,41.5531829104753
329,1436969576090,51.674021657672
330,1436969576811,60.4796082379963
331,1436969577540,47.4177589929044
332,1436969578268,42.7143372931402
333,1436969578993,57.8585618694415
334,1436969579688,45.5002610211972
335,1436969580412,51.2759565095064
336,1436969581128,21.1907416911733
337,1436969582695,55.1088430026105
338,1436969583330,48.4979836298644
339,1436969584093,53.7087513061342
340,1436969584822,64.3872794626595
341,1436969585549,63.1252649444934
342,1436969586289,58.8684136153373
343,1436969587020,50.8936912485452
344,1436969587770,57.9408607038388
345,1436969588490,38.8297399329472
346,1436969589228,61.6402804729669
347,1436969589979,48.6064116940879
348,1436969590753,37.920961656103
349,1436969591468,26.0419757464467
350,1436969593030,62.7343516917747
351,1436969593751,19.1147422598639
352,1436969594474,36.2000531849671
353,1436969595209,35.3410200503796
354,1436969595939,39.4231804471585
355,1436969596635,16.5490311692641
356,1436969597273,54.6369986081276
357,1436969597986,41.3203476726957
358,1436969598725,56.1854447241428
359,1436969599476,48.4869627393846
360,1436969600154,42.7611188485983
361,1436969600890,14.8112637363297
362,1436969601616,38.2461723850105
363,1436969602332,28.1493333380602
364,1436969603011,60.2163252805521
365,1436969603674,49.2332393965783
366,1436969604368,12.5794968022463
367,1436969605106,25.0160370712119
368,1436969605844,35.7222810625354
369,1436969606538,11.913131865754
370,1436969608056,13.054268261387
371,1436969608786,25.3408034209141
372,1436969609527,14.1693308067201
373,1436969610258,29.4052756781753
374,1436969610971,30.9384065538806
375,1436969611695,9.77947805930844
376,1436969612419,45.4620481811186
377,1436969613142,37.2915805819751
378,1436969613872,24.7497331274724
379,1436969614587,56.1951267440859
380,1436969615293,50.2487173473039
381,1436969616758,19.7365159537029
382,1436969617418,48.9115518105626
383,1436969618152,52.6580765886747
384,1436969618927,51.1332307554528
385,1436969619634,53.1937890514332
386,1436969620310,40.4358952591916
387,1436969621021,43.8311373491342
388,1436969621760,51.5482515990542
389,1436969622437,60.727238956127
390,1436969623029,25.6618302432851
391,1436969623699,49.8579402678574
392,1436969624385,61.550599203404
393,1436969625122,55.8589012339613
394,1436969625896,56.1365535852935
395,1436969626638,53.81273674845
396,1436969627367,46.4038861826054
397,1436969628104,41.5608783908537
398,1436969628843,49.8590217239758
399,1436969629568,35.4276041392317
400,1436969630302,35.0294553646269
401,1436969631036,29.4158896431661
402,1436969631774,62.3144621928925
403,1436969632497,45.0491413787572
404,1436969633180,55.4618654721479
405,1436969633816,38.768013766037
406,1436969634525,54.2726982830036
407,1436969635253,26.0560013256844
408,1436969636020,54.2899629156475
409,1436969636836,30.701241527075
410,1436969637549,53.1375732648678
411,1436969638278,42.7784548355285
412,1436969639090,57.0958695095393
413,1436969639763,42.4958593603923
414,1436969640347,32.4999528345216
415,1436969641060,53.8575196795356
416,1436969641786,36.5389662663397
417,1436969642518,57.2649943451912
418,1436969643225,35.5764999338154
419,1436969643908,59.0104632175567
420,1436969644601,66.8730631582866
421,1436969645336,48.9030931356846
422,1436969646064,46.0239238920132
423,1436969646797,48.1903369535593
424,1436969647499,66.81950112935
425,1436969648199,52.9821732733538
426,1436969648926,53.7281505745597
427,1436969649648,58.5538900541559
428,1436969650373,51.7416463684169
429,1436969651092,52.0215937969976
430,1436969651858,36.1651818759213
431,1436969652589,44.7980004610611
432,1436969653313,28.586605248272
433,1436969654024,27.0175055417352
434,1436969654701,50.3512324980766
435,1436969655421,39.8620102064717
436,1436969656122,47.1084109186857
437,1436969656851,22.2719294091974
438,1436969657543,65.9278322049977
439,1436969658261,58.3348591390536
440,1436969658963,52.9130776996465
441,1436969659674,23.0141418232898
442,1436969660290,17.9070573287305
443,1436969660963,36.0971954460122
444,1436969661679,38.2869557002384
445,1436969662479,21.8395556800899
446,1436969663196,36.4089861640216
447,1436969663885,17.1548270424145
448,1436969664481,19.0261403821917
449,1436969665166,36.6657661357728
450,1436969665882,19.4987560439314
451,1436969666619,19.4241293516602
452,1436969667350,48.6819244625817
453,1436969668074,26.3511019814765
454,1436969668784,12.9745555472564
455,1436969669517,12.8942430308965
456,1436969670213,59.5588645858675
457,1436969670925,61.0199019295684
458,1436969671694,58.1670922567395
459,1436969672417,19.5791530460026
460,1436969673159,21.7949815402477
461,1436969673882,31.4877031294126
462,1436969674591,22.9917338683251
463,1436969675323,24.4772485620399
464,1436969676127,55.2390355961405
465,1436969676864,26.8290135022816
466,1436969677556,29.0955546164887
467,1436969678224,63.5627763912874
468,1436969678952,57.2656659013628
469,1436969679682,49.4167682838462
470,1436969680402,31.630963141572
471,1436969681048,43.3010052274402
472,1436969681757,18.7604310161056
473,1436969682482,22.8071875386717
474,1436969683193,24.1799947004995
475,1436969683917,17.0567201854461
476,1436969684622,36.082063999118
477,1436969685242,39.2004485930035
478,1436969685960,12.4027797709635
479,1436969686779,47.2542027045087
480,1436969687509,50.0548955547978
481,1436969688226,52.0168777330293
482,1436969688957,60.8040872731095
483,1436969689700,51.7798390964654
484,1436969690420,40.2020001639527
485,1436969691164,59.350586649618
486,1436969691898,60.1231974451815
487,1436969692627,49.041189234626
488,1436969693280,45.5460777817629
489,1436969693998,8.99301192667898
490,1436969694686,42.7874194952273
491,1436969695347,37.8275455867459
492,1436969696082,8.69656726893048
493,1436969696796,7.73227196592387
494,1436969697529,9.45669400767344
495,1436969698232,11.5749418885008
496,1436969698951,33.4752926203789
497,1436969699720,8.03701562878991
498,1436969700416,8.9863034855993
499,1436969701134,29.2349749318758
500,1436969701870,63.48190240091
501,1436969702593,60.168090532414
502,1436969703310,17.6112564134776
503,1436969704054,11.2818505245835
504,1436969704754,52.3925080561576
505,1436969705426,57.5383101431203
506,1436969706135,49.7882414706771
507,1436969706940,56.9105929949121
508,1436969707717,63.9162402990504
509,1436969708435,11.9702852726627
510,1436969709178,56.6748836660334
511,1436969709916,51.9136238515381
512,1436969710647,49.0925476618457
513,1436969711383,54.3492544298788
514,1436969712107,39.597605370459
515,1436969712830,61.1130533033718
516,1436969713568,33.8521839697066
517,1436969714294,66.5306281406146
518,1436969714983,19.870226905659
519,1436969715674,29.3669850626858
520,1436969716392,43.9775444977615
521,1436969717126,44.1992649772933
522,1436969717864,47.9440776068702
523,1436969718566,56.9995018103448
524,1436969719175,45.0113670518367
525,1436969719861,17.0593111669687
526,1436969720551,17.8648932957766
527,1436969721188,16.1431320463601
528,1436969721940,54.1291736234677
529,1436969722603,62.6720835219535
530,1436969723321,46.8557766743379
531,1436969724030,63.5851032076761
532,1436969724661,58.8336634320204
533,1436969725256,35.0860116321985
534,1436969725938,56.1362577704761
535,1436969726663,53.9917198499786
536,1436969727382,32.079837960055
537,1436969728128,48.6769623203319
538,1436969728872,31.3710039900188
539,1436969729566,35.683989172307
540,1436969730213,42.9415219336557
541,1436969730914,34.7927345333523
542,1436969731647,49.3154004839671
543,1436969732395,45.8338410835317
544,1436969733125,35.8208541722509
545,1436969733854,62.1059713615549
546,1436969734647,43.9629890799231
547,1436969735368,14.9047533254833
548,1436969736037,66.6398093203756
549,1436969736765,52.7322515952996
550,1436969737486,48.0332896536948
551,1436969738207,19.0749403798766
552,1436969738932,67.9709594885169
553,1436969739658,17.8387195676435
554,1436969740388,46.3057688614081
555,1436969741095,65.313117161946
556,1436969741806,25.2573267278471
557,1436969742532,64.2364471914465
558,1436969743268,54.1365182621298
559,1436969743979,52.1260753663502
560,1436969744697,56.4172719160491
561,1436969745395,40.7333080630606
562,1436969746038,41.7398710320681
563,1436969746729,53.9234678448608
564,1436969747413,48.0580859019361
565,1436969748158,15.7964076198446
566,1436969748874,12.5770915029601
567,1436969749581,15.8346476742019
568,1436969750323,55.6745536650097
569,1436969751068,34.2923497259648
570,1436969751815,44.4205072245974
571,1436969752525,39.6768813086545
572,1436969753224,19.7151475070008
573,1436969753937,40.9375326663498
574,1436969754644,47.8505745822193
575,1436969755331,46.5373423874661
