id,attr_time,attr_db
1,1437232431352,58.699661323696
2,1437232432087,40.9881432263279
3,1437232432826,42.8643491925735
4,1437232433568,43.685025022894
5,1437232434304,39.2052604681947
6,1437232435036,46.4895766686205
7,1437232435728,62.4499188349431
8,1437232436392,64.9402365430044
9,1437232437131,46.6205054820036
10,1437232437881,59.0925047898189
11,1437232438623,47.002584226246
12,1437232439980,50.7041672010332
13,1437232440583,54.543578623074
14,1437232441239,47.4286442033905
15,1437232441921,44.1973018092239
16,1437232442553,44.1026932714757
17,1437232443280,43.6977326602965
18,1437232444024,43.7982351058499
19,1437232444757,46.3897133826443
20,1437232445526,45.5782589545439
21,1437232446262,45.0650883911731
22,1437232447012,44.7566645807027
23,1437232447737,41.4001577133971
24,1437232448443,46.574294299963
25,1437232449133,49.2884309542598
26,1437232449814,43.6557329552932
27,1437232450550,45.7788221571963
28,1437232451378,41.976617581015
29,1437232452096,44.3570918312413
30,1437232452822,47.2148604992488
31,1437232453548,43.7779524675497
32,1437232454271,46.2491210683615
33,1437232455007,65.3099471919385
34,1437232455789,65.8879192684608
35,1437232456517,68.5147880169591
36,1437232457272,62.2897912531137
37,1437232458006,52.6654158978228
38,1437232458718,55.5601965805528
39,1437232459379,65.4408349034496
40,1437232460114,71.1791191659211
41,1437232460898,53.4351818421728
42,1437232461633,57.3669524336354
43,1437232462281,57.5028055396281
44,1437232463021,55.0082307456377
45,1437232463777,65.7838705607389
46,1437232464509,57.214609447344
47,1437232465252,69.9026758354722
48,1437232465996,63.4472486655399
49,1437232466732,67.4069274494044
50,1437232467482,64.1778114867671
51,1437232468213,67.0096998492616
52,1437232468927,65.2285012058562
53,1437232469664,61.8651760627071
54,1437232470337,73.315449215603
55,1437232471064,63.2193974663004
56,1437232471786,67.6329586875907
57,1437232472491,59.3144963078355
58,1437232473165,61.4150410570973
59,1437232473890,59.885580991602
60,1437232474629,56.5341451399937
61,1437232475363,59.8139156294221
62,1437232476095,69.9423400456151
63,1437232476865,64.0489039919547
64,1437232477603,56.7644158003717
65,1437232478337,64.4431120143931
66,1437232479063,59.4200071243325
67,1437232479789,57.4895497803814
68,1437232480436,55.0308320633065
69,1437232481120,73.5971763494246
70,1437232481837,62.1619442524605
71,1437232482644,60.3990013147554
72,1437232483287,58.0865347014955
73,1437232483975,55.2255257806912
74,1437232484694,54.7691547205127
75,1437232485389,75.5795383802505
76,1437232486069,54.5845862433561
77,1437232486800,55.4701539033603
78,1437232487547,55.4830364378146
79,1437232488261,55.6710729799316
80,1437232488986,50.5750264902335
81,1437232489710,56.0353299636122
82,1437232490466,62.7984775305898
83,1437232491162,61.6504528654174
84,1437232491887,62.890391182308
85,1437232492658,61.0794447858844
86,1437232493377,52.6964039470005
87,1437232494100,61.1059545230642
88,1437232494829,58.0706270673543
89,1437232495551,51.4172556824585
90,1437232496290,55.9462771573475
91,1437232497011,68.0124832836912
92,1437232497742,59.4175269520255
93,1437232498476,59.3322986682546
94,1437232499226,57.6977231793251
95,1437232499963,57.3635943796174
96,1437232500695,63.7773680806781
97,1437232501412,51.8122619024046
98,1437232502053,59.0414207020046
99,1437232502739,64.3463067835524
100,1437232503439,56.4476503517073
101,1437232504087,57.015123131134
102,1437232504790,68.8044227029202
103,1437232505513,62.9432627374059
104,1437232506268,60.6374477256691
105,1437232507002,59.7438101082551
106,1437232507738,59.6018963181228
107,1437232508465,64.0081057426952
108,1437232509202,63.1663391478634
109,1437232509927,58.1080582289582
110,1437232510644,68.2355124838096
111,1437232511353,57.7710909819938
112,1437232512043,56.1742395732818
113,1437232512761,61.0427948887918
114,1437232513445,60.4234978460167
115,1437232514120,66.380312905885
116,1437232514840,67.4398024257471
117,1437232515572,58.8606616450461
118,1437232516300,60.2911290665904
119,1437232516981,55.9510185809155
120,1437232517693,59.020810360266
121,1437232518425,58.4252592918292
122,1437232519163,58.6165688808403
123,1437232519899,62.0869643240469
124,1437232520629,57.9197296377869
125,1437232521308,58.3226192150995
126,1437232521989,60.2870055660926
127,1437232522735,59.0166105696717
128,1437232523452,61.2774959617295
129,1437232524184,59.884712425319
130,1437232524917,59.0434005467175
131,1437232525634,60.3207388803658
132,1437232526358,60.5323655860375
133,1437232527089,61.8854417754414
134,1437232527842,61.4903665765671
135,1437232528575,64.5301841922249
136,1437232529314,64.7238906900097
137,1437232530064,72.3335041658606
138,1437232530855,69.7345813873198
139,1437232531592,73.6818589546561
140,1437232532305,74.6190794415883
141,1437232532975,73.9663999842731
142,1437232533713,76.2018302590708
143,1437232534441,75.406306926343
144,1437232535168,75.9042554256059
145,1437232535948,73.2165642215539
146,1437232536663,74.1682752231368
147,1437232537403,74.2971174324567
148,1437232538133,74.0547226380733
149,1437232538862,75.2057882921524
150,1437232539593,74.5972748385213
151,1437232540358,73.3681467743156
152,1437232541091,73.825659548284
153,1437232541790,74.3342109380596
154,1437232542463,72.68062425951
155,1437232543087,71.8346051417187
156,1437232543780,74.0962384215118
157,1437232544476,74.3726339148239
158,1437232545151,74.9916025615791
159,1437232545875,73.8039499624448
160,1437232546611,72.9143896770442
161,1437232547328,67.3864399336068
162,1437232548055,57.9939821613358
163,1437232548780,62.3951608282994
164,1437232549512,58.8027711228324
165,1437232550282,59.6363056548663
166,1437232551048,62.7085310118814
167,1437232551787,61.6346239867996
168,1437232552515,52.2757367950693
169,1437232553209,54.3862971390293
170,1437232553930,55.3967322254244
171,1437232554682,53.5342258065662
172,1437232555464,53.8524877201203
173,1437232556193,56.8584580896205
174,1437232556945,57.5385117238603
175,1437232557678,52.8236359598893
176,1437232558427,57.8573787880703
177,1437232559161,50.7329438072515
178,1437232559907,46.0990070284268
179,1437232560664,46.6671792442881
180,1437232561405,41.9439850554401
181,1437232562157,44.7588620710368
182,1437232562859,41.2091454874578
183,1437232563482,37.4036275483513
184,1437232564163,53.1796882667075
185,1437232564884,44.1717985456165
186,1437232565649,36.2486894751934
187,1437232566365,34.3725937938941
188,1437232567106,50.4671983722576
189,1437232567741,38.019164875622
190,1437232568445,54.5353628512018
191,1437232569195,36.948437293781
192,1437232569932,27.5260212613467
193,1437232570674,46.6888060006373
194,1437232571412,42.2817312432339
195,1437232572131,30.8876936325755
196,1437232574053,43.1422276627635
197,1437232574693,34.0923729871608
198,1437232575431,24.8878374253235
199,1437232576239,36.5290093620145
200,1437232576919,23.2643590413917
201,1437232577549,20.3805447764757
202,1437232578265,38.4422623609746
203,1437232578987,33.3955830456675
204,1437232579731,14.021897034366
205,1437232580458,20.327398881373
206,1437232581273,46.1760526283301
207,1437232582003,17.5099940897076
208,1437232582724,18.1082521393609
209,1437232583450,16.9409370509446
210,1437232584181,20.1069641029399
211,1437232584895,16.0724396261684
212,1437232585647,39.7731761643675
213,1437232586429,32.5989841334423
214,1437232587164,48.0174495684317
215,1437232587878,16.0925327065957
216,1437232588621,16.0440387483765
217,1437232589350,38.8319896035584
218,1437232590077,22.493262966495
219,1437232591903,40.4507969935626
220,1437232592639,37.4516146713735
221,1437232593373,23.6709116545867
222,1437232594094,11.6902540081624
223,1437232594818,13.3184168615651
224,1437232595548,12.3053775384497
225,1437232596206,22.1031291678994
226,1437232596905,11.1670889590128
227,1437232597651,12.4048436203668
228,1437232598362,20.6195314359804
229,1437232599104,46.6332027806354
230,1437232599824,45.1512630660822
231,1437232600571,37.3181903979586
232,1437232601366,41.5651866514437
233,1437232602104,48.6253638930838
234,1437232602845,48.1359114008889
235,1437232603555,47.0545970086637
236,1437232604292,19.0512066750732
237,1437232605039,36.2520073997291
238,1437232605802,27.0623631711382
239,1437232606413,44.5315557672861
240,1437232607102,40.867200033864
241,1437232607833,58.9918310698135
242,1437232608538,40.7801945571038
243,1437232609197,33.7828342317333
244,1437232609935,39.8123459886003
245,1437232610701,35.1392837626206
246,1437232611485,25.5784301199442
247,1437232612226,25.6989704739561
248,1437232612954,28.0015065799291
249,1437232613688,23.864150026578
250,1437232614431,23.9177654267706
251,1437232615162,24.643997679703
252,1437232615916,21.0295433572148
253,1437232616645,25.485287964614
254,1437232617340,28.5129550953094
255,1437232618003,42.4040021603667
256,1437232618748,26.2461385034143
257,1437232619501,44.2630664241825
258,1437232620128,39.3399604770219
259,1437232620840,59.5226790441679
260,1437232621506,41.6291742261781
261,1437232622972,32.5843606059311
262,1437232623613,39.7862709682436
263,1437232624325,30.9428853942629
264,1437232625076,44.4498646197568
265,1437232625802,36.4437157684516
266,1437232626620,38.016108058093
267,1437232627272,39.6733007165134
268,1437232627985,44.7598637993648
269,1437232628755,41.5185173869052
270,1437232629493,47.2214013141385
271,1437232630205,45.8397478696905
272,1437232630956,36.8090708465005
273,1437232631685,68.9395210788738
274,1437232632406,70.3258378827287
275,1437232633143,39.9756255995647
276,1437232633878,33.5805270906496
277,1437232634629,30.9069345937587
278,1437232635376,34.2353983497438
279,1437232636127,32.2642812635793
280,1437232636863,24.6690086479963
281,1437232637608,50.1662802085033
282,1437232638361,66.6974452356556
283,1437232639851,52.534335634105
284,1437232640560,33.0456138063006
285,1437232641294,35.3934987602287
286,1437232642022,34.7994649630792
287,1437232642756,47.6207164388439
288,1437232643448,24.939553620615
289,1437232644118,28.8836804935236
290,1437232644844,24.7848834798306
291,1437232645591,57.0669115606639
292,1437232646319,63.8314768697116
293,1437232647051,18.335518062898
294,1437232647781,14.0149300208744
295,1437232648475,12.7770521583662
296,1437232649137,20.1587935140712
297,1437232649879,34.7968514956207
298,1437232650662,19.6683287859066
299,1437232651367,19.7397242322134
300,1437232652042,40.7830176338852
301,1437232652784,39.9376699385871
302,1437232653513,12.9275136782632
303,1437232654259,45.7561462289827
304,1437232654993,37.8321909546838
305,1437232655748,36.5308727555939
306,1437232656481,63.6409282392027
307,1437232657237,57.8530426493687
308,1437232657971,60.7593708798669
309,1437232658721,15.9990789121122
310,1437232659424,54.5936592770698
311,1437232660111,48.2108602202206
312,1437232660841,14.0087703427939
313,1437232661681,18.4732773466744
314,1437232662391,28.8543680246941
315,1437232663092,26.0758310466235
316,1437232663718,14.1166752063606
317,1437232664453,17.5628148346855
318,1437232665185,20.0086486740301
319,1437232665902,54.4065621822407
320,1437232666654,55.9242275069505
321,1437232667372,57.5793720374958
322,1437232668096,50.3992995903381
323,1437232668852,26.6779374596763
324,1437232669597,21.2302281936972
325,1437232670276,60.394635968045
326,1437232671086,21.1591780902503
327,1437232671813,18.8485680334304
328,1437232672513,20.671762173315
329,1437232673191,23.7839481203303
330,1437232673923,28.7153408384807
331,1437232674666,32.9323566430556
332,1437232675395,22.6469713346131
333,1437232676222,34.2696831583617
334,1437232676947,19.1982632914527
335,1437232677687,18.9713352436061
336,1437232678426,42.4144246014413
337,1437232679166,29.690036985008
338,1437232679900,39.2667834565639
339,1437232680630,29.4999147272025
340,1437232681316,36.4999261219188
341,1437232682036,27.4725787014412
342,1437232682781,18.3788022760903
343,1437232683460,22.0207889817335
344,1437232684038,22.8863313176857
345,1437232684724,25.1872198310926
346,1437232685481,26.1461708149688
347,1437232686258,29.6619770502684
348,1437232686942,32.2819129656134
349,1437232687645,54.954261053615
350,1437232688321,49.7285340960394
351,1437232689053,28.1846402223151
352,1437232689771,37.2751135107225
353,1437232690468,34.0067519868681
354,1437232691132,30.7102410847741
355,1437232691817,41.1467491322906
356,1437232692565,36.6761166908355
357,1437232693272,44.941890760264
358,1437232693941,48.3401929154742
359,1437232694631,48.8752143240526
360,1437232695454,35.5466713620855
361,1437232696184,45.6136065605662
362,1437232696926,36.5858669456387
363,1437232697672,33.7873004905898
364,1437232698403,58.2006334082209
365,1437232699137,56.1513012327461
366,1437232699869,53.6385906728548
367,1437232700601,50.9985887443254
368,1437232701290,39.4503365310663
369,1437232701939,45.9110709817553
370,1437232702665,33.4517717757729
371,1437232703406,33.755193342687
372,1437232704106,35.9107735339088
373,1437232704853,45.4369677123859
374,1437232705507,37.0128806883235
375,1437232706246,35.2894978541111
376,1437232706946,41.5844536774982
377,1437232707680,45.2101857768543
378,1437232708416,36.252058471904
379,1437232709146,39.2739704935756
380,1437232709900,51.7956338906551
381,1437232710621,48.3386736419443
382,1437232711370,36.2326846165718
383,1437232712091,35.2063876019449
384,1437232712832,33.5529792833559
385,1437232713606,42.9446220903625
386,1437232714355,31.9865821438607
387,1437232715077,46.707077459527
388,1437232715817,54.703348478436
389,1437232716547,33.1027906562497
390,1437232717259,33.3924393885233
391,1437232717928,32.6559855086519
392,1437232718637,46.839175692001
393,1437232719375,32.7654481451031
394,1437232720120,41.4024848369048
395,1437232720855,42.1573664252089
396,1437232721602,40.3701684235441
397,1437232722332,32.81376706879
398,1437232723061,47.3166185997035
399,1437232723711,63.0920552051557
400,1437232724363,42.520825516198
401,1437232725103,36.6509081517076
402,1437232725823,65.7941728819914
403,1437232726559,32.1302926535805
404,1437232727243,45.1679575100871
405,1437232727956,42.9222020784631
406,1437232728686,30.4003125339994
407,1437232729431,31.7038065751908
408,1437232730147,30.7589552918247
409,1437232730867,45.7092516733052
410,1437232731598,24.5294231620855
411,1437232732324,58.0846104805183
412,1437232733062,23.8189769895489
413,1437232733721,37.0894914604085
414,1437232734423,38.9181495997668
415,1437232735086,43.0590969533582
416,1437232735889,35.8893745953844
417,1437232736480,16.8026365564352
418,1437232737171,19.0667974777328
419,1437232737900,54.3107331505156
420,1437232738628,51.4251024180555
421,1437232739361,32.4573081235118
422,1437232740107,36.4602979414217
423,1437232740976,29.8048340290004
424,1437232741570,46.4757314998565
425,1437232742257,45.5169516359769
426,1437232742985,37.4603255301655
427,1437232743694,24.0821543789025
428,1437232744329,20.9389530509343
429,1437232745021,20.1840741827405
430,1437232745802,28.4458067883363
431,1437232746604,41.6853987332047
432,1437232747335,38.0481393968322
433,1437232747942,40.0228010892983
434,1437232748642,26.4674291155505
435,1437232749355,38.3922425968296
436,1437232750086,59.4627066961813
437,1437232750822,19.8259201554918
438,1437232751537,58.3299846909597
439,1437232752288,69.4495919806379
440,1437232753009,24.1862192897072
441,1437232753726,18.1075473732736
442,1437232754403,53.4722825346864
443,1437232755123,46.0179488564635
444,1437232755868,44.9745848859855
445,1437232756641,45.6138651544429
446,1437232757366,61.3436001298922
447,1437232758093,48.8271144435805
448,1437232758844,21.6861594627397
449,1437232759506,38.8421170947632
450,1437232760133,33.3395439824316
451,1437232760814,47.023590823715
452,1437232761541,58.2082977508877
453,1437232762282,65.4201738361786
454,1437232763028,27.6893835895566
455,1437232763764,45.3412953868314
456,1437232764501,43.7545988710008
457,1437232765084,44.0585055443943
458,1437232765820,42.2920506484758
459,1437232766568,56.7257573406843
460,1437232767298,44.4289229859453
461,1437232768017,60.6131071849301
462,1437232768742,35.7903073260942
463,1437232769458,41.7537278009301
464,1437232770186,23.7334988432177
465,1437232770902,21.9609209077727
466,1437232771637,30.2756811389171
467,1437232772376,45.3107289368223
468,1437232773110,49.7382244411976
469,1437232773834,58.6958454084645
470,1437232774574,47.8104766225319
471,1437232775266,28.9252346738507
472,1437232776003,25.8466273375444
473,1437232776668,26.3785904093253
474,1437232778113,33.7660662491223
475,1437232778912,44.0409284480536
476,1437232779595,30.1208569193962
477,1437232780310,28.5817970336818
478,1437232781038,32.2819121402256
479,1437232781760,24.0913123629886
480,1437232782506,36.8904439953638
481,1437232783241,22.6528403903211
482,1437232783962,17.2234009376833
483,1437232784602,17.9309584834842
484,1437232785264,17.4792672000643
485,1437232786003,42.9770613321396
486,1437232786734,42.073078438255
487,1437232787472,27.7931653329984
488,1437232788195,26.475716222832
489,1437232788921,35.0904199864109
490,1437232789652,40.6659257494853
491,1437232790376,22.9307242285151
492,1437232791115,34.7184397972999
493,1437232791852,19.7366752267229
494,1437232792582,19.8365743054864
495,1437232793327,42.6757518038517
496,1437232794052,39.828165395681
497,1437232794784,36.2590515908298
498,1437232795439,32.6723491949324
499,1437232796132,25.8673512086066
500,1437232796871,25.0217679978818
501,1437232797657,22.9285193817584
502,1437232798374,16.7410875854988
503,1437232800212,26.1189818955474
504,1437232800986,31.1335916262369
505,1437232801715,45.328800111404
506,1437232802466,46.611862397245
507,1437232803205,39.7696887363104
508,1437232803967,29.0763041366059
509,1437232804670,44.7991100719435
510,1437232805331,37.0070081871628
511,1437232806022,41.3913322944094
512,1437232806730,44.4930536838188
513,1437232807476,42.2770536426751
514,1437232808168,54.3637730830332
515,1437232808791,39.9514987745411
516,1437232809485,46.5249477165375
517,1437232810217,32.2096422758455
518,1437232810962,41.7623674936162
519,1437232811772,37.5073882597112
520,1437232812512,14.6376119763812
521,1437232813238,42.5655657898526
522,1437232813980,68.0673255895857
523,1437232814713,40.3605524788362
524,1437232815421,33.696761076886
525,1437232816143,54.8792797920276
526,1437232816831,39.6905949155567
527,1437232817571,24.3999598037106
528,1437232818290,48.9921412308789
529,1437232819010,42.9594358563156
530,1437232819755,19.6846156222663
531,1437232820507,61.7276604013582
532,1437232821250,55.3990890559103
533,1437232821976,56.5095660594061
534,1437232822697,52.8913910417575
535,1437232823422,41.1304292927991
536,1437232824140,46.1195330481627
537,1437232824841,55.0898591237813
538,1437232825543,37.8656980811854
539,1437232826260,44.8875772956946
540,1437232826956,32.5154092430097
541,1437232827702,41.4628359254785
542,1437232828431,44.1364210678488
543,1437232829138,30.1002491415202
544,1437232829853,30.8427800111675
545,1437232830562,14.1981313536013
546,1437232831307,62.4916946210054
547,1437232832031,60.7488827490747
548,1437232832755,61.3600695475825
549,1437232833478,63.4785401217379
550,1437232834207,41.1381411124629
551,1437232834951,24.5319693756781
552,1437232835677,62.5929138703935
553,1437232836401,51.9261960195697
554,1437232837108,30.9724193708837
555,1437232837798,30.4245500177125
556,1437232839133,60.4588289116432
557,1437232839853,43.7218866939028
558,1437232840613,45.8808548843165
559,1437232841348,26.8604833815342
560,1437232842071,30.1956828110273
561,1437232842817,35.3818089161636
562,1437232843556,33.0226913863846
563,1437232844308,44.1715846984777
564,1437232845026,35.579140553066
565,1437232845626,31.0033092398093
566,1437232846361,27.2584361578952
567,1437232847082,57.3238751618858
568,1437232847780,40.3732312235049
569,1437232848456,30.5649960872408
570,1437232849182,19.7805931787237
571,1437232849907,24.4648123147198
572,1437232850660,28.5777706138174
573,1437232851276,58.3470198083643
574,1437232851944,56.8297572501888
575,1437232852682,69.8990602574713
