id,attr_time,attr_db
1,1437232431446,40.1008746867089
2,1437232432132,48.2731198839558
3,1437232432801,38.2154116573569
4,1437232433558,42.4333136388316
5,1437232434314,42.3762802709616
6,1437232435034,60.6971439530229
7,1437232435717,43.3848342264392
8,1437232436404,38.6221007060034
9,1437232437112,41.7734700045475
10,1437232437767,45.8207071478091
11,1437232438482,61.8434667893115
12,1437232439264,53.1761991472071
13,1437232440009,55.1527473007703
14,1437232440791,50.3555346437026
15,1437232441529,44.4882273044462
16,1437232442259,41.1982778448681
17,1437232442977,48.481370041171
18,1437232443718,47.5099269827734
19,1437232444449,42.6408229835852
20,1437232445194,47.2713319029444
21,1437232445913,40.9741753826093
22,1437232446651,45.6639382324741
23,1437232447286,41.933097038919
24,1437232447976,44.2162115334855
25,1437232448713,42.6809219396555
26,1437232449455,43.610466480125
27,1437232450217,48.394881578083
28,1437232450958,41.836115677756
29,1437232451696,51.0457773155264
30,1437232452496,44.0236597923035
31,1437232453257,42.5694038965203
32,1437232453977,44.522040416707
33,1437232454718,46.3067382707919
34,1437232455453,44.0592478559548
35,1437232456185,44.8222189149627
36,1437232456935,47.2884285911905
37,1437232457636,46.8884321011873
38,1437232458332,58.1662058603912
39,1437232459085,50.819401337697
40,1437232459814,57.2135070680178
41,1437232460556,58.7860672915737
42,1437232461296,54.3399681598721
43,1437232462027,60.1308861917146
44,1437232462725,54.317083599276
45,1437232463389,50.9971136816989
46,1437232464070,60.3234033666362
47,1437232464794,53.2388981043759
48,1437232465521,53.6155894196776
49,1437232466263,60.9317142828367
50,1437232467317,60.8825760235567
51,1437232467907,59.9622016480573
52,1437232468559,60.7054847846295
53,1437232469245,58.4402877670247
54,1437232469985,65.1623163992746
55,1437232470718,57.3092188542438
56,1437232471455,65.039024550697
57,1437232472196,70.8079856215108
58,1437232472942,70.1744743619552
59,1437232473653,56.1055067499748
60,1437232474320,58.6258247069103
61,1437232475053,66.9489585557663
62,1437232475777,62.7211182956708
63,1437232476499,58.5083932693249
64,1437232477214,54.4988555726156
65,1437232477879,57.4191642882
66,1437232478616,64.2721384584863
67,1437232479397,65.0933711948108
68,1437232480113,53.8385075708737
69,1437232480846,56.9576979571189
70,1437232481578,65.5995017531139
71,1437232482311,63.4534271463876
72,1437232483047,67.0385912467688
73,1437232483771,60.8107531835107
74,1437232484493,61.5763759131401
75,1437232485224,60.2672978238738
76,1437232485875,59.3154338556289
77,1437232486579,54.4011396032386
78,1437232487251,57.2618710640191
79,1437232487932,54.3944351619311
80,1437232488738,53.9589556941021
81,1437232489504,54.4534073680543
82,1437232490196,51.108946960749
83,1437232490959,58.0562763572772
84,1437232491684,52.0214368798751
85,1437232492418,54.1032255130423
86,1437232493149,61.4948320597924
87,1437232493897,61.8099890345121
88,1437232494627,62.901448294461
89,1437232495351,58.2462049579993
90,1437232496017,55.4066254106111
91,1437232496757,49.0947094471973
92,1437232497489,57.0064218137373
93,1437232498272,53.2310960610054
94,1437232498991,56.8476887549932
95,1437232499653,56.1880807573583
96,1437232500502,57.5662804546238
97,1437232501236,58.7002579014887
98,1437232501969,53.7975585805665
99,1437232502697,53.3162085762842
100,1437232503364,64.9885161860959
101,1437232504075,56.950585375067
102,1437232504799,58.255866418777
103,1437232505510,63.623806045146
104,1437232506179,54.4052671574195
105,1437232506833,52.7097098326213
106,1437232507555,64.7522802070921
107,1437232508168,63.514005800002
108,1437232508894,63.1199286458435
109,1437232509652,59.7534102296899
110,1437232510439,59.2106745033387
111,1437232511136,62.5645662376726
112,1437232511809,61.3549501499728
113,1437232512558,63.9352053297111
114,1437232513306,57.7406143235304
115,1437232514045,55.4673800172167
116,1437232514779,56.6524255412273
117,1437232515512,59.313792314713
118,1437232516228,59.4836611534729
119,1437232516910,66.0036874522764
120,1437232517581,59.6702986002969
121,1437232518350,53.8180803806295
122,1437232518984,57.3383202397939
123,1437232519662,56.0955763560053
124,1437232520434,58.4991874605904
125,1437232521093,57.1471946239231
126,1437232521832,56.096229371777
127,1437232522542,60.034393311489
128,1437232523268,51.9390784669605
129,1437232524025,58.7511962813175
130,1437232524768,58.7783507342537
131,1437232525491,59.8785213516209
132,1437232526224,60.1608522908251
133,1437232526905,60.4359393923939
134,1437232527556,60.4869900975867
135,1437232528307,59.3666974314122
136,1437232529035,57.9015204878009
137,1437232529830,61.0155133937453
138,1437232530565,60.7009729977464
139,1437232531301,63.68889584835
140,1437232531978,65.2720430845067
141,1437232532704,69.8323665742304
142,1437232533440,68.9094873285634
143,1437232534193,72.0616199110721
144,1437232534920,74.8924151498022
145,1437232535669,75.8885533123354
146,1437232536404,74.2637074121162
147,1437232537118,76.9110366954001
148,1437232537873,75.8330445372257
149,1437232538631,70.2064307294402
150,1437232539355,73.8652591956753
151,1437232540012,73.8960933975726
152,1437232540728,72.0129245452573
153,1437232541457,74.2176095167974
154,1437232542190,71.5754090751456
155,1437232542916,72.135027584329
156,1437232543646,73.1944005607612
157,1437232544379,73.3460989477492
158,1437232545112,72.1899878481381
159,1437232545868,72.0572838188171
160,1437232546591,74.6387476845596
161,1437232547322,75.4277214255581
162,1437232548012,73.2053599951996
163,1437232548681,72.0865386719073
164,1437232549464,71.8540074664781
165,1437232550205,66.2497064441174
166,1437232550927,60.9274485470393
167,1437232551650,64.1445656836016
168,1437232552403,65.8746250502651
169,1437232553073,61.6931178467063
170,1437232553805,65.41225834588
171,1437232554546,61.9553660649372
172,1437232555282,56.5973664829997
173,1437232556019,58.9105578548912
174,1437232556759,58.2174806046056
175,1437232557491,56.2237773769464
176,1437232558191,57.4106343644066
177,1437232558860,64.6193342592778
178,1437232559542,55.7133788971504
179,1437232560223,54.9665933041106
180,1437232560961,58.4511087934061
181,1437232561746,59.7523016839396
182,1437232562533,47.5411509494245
183,1437232563132,47.5427997226572
184,1437232563834,54.3077365271798
185,1437232564568,47.2862332362709
186,1437232565306,45.3592653717093
187,1437232566045,54.4053918731228
188,1437232566777,42.0796857808773
189,1437232567492,41.5439619979853
190,1437232568181,39.1024688163087
191,1437232568832,38.7125336716881
192,1437232569546,37.6391054135698
193,1437232570283,39.5749641335043
194,1437232570996,55.1133852758817
195,1437232571735,45.8696640267526
196,1437232572474,32.321803027062
197,1437232573163,49.2329118892098
198,1437232573902,29.4383694201004
199,1437232574629,27.0925507587721
200,1437232575362,24.1233123030989
201,1437232576102,31.576021547911
202,1437232576842,48.5278635455645
203,1437232577577,27.7419153674849
204,1437232578332,29.4397010285205
205,1437232579044,36.5831014977099
206,1437232579628,24.1921276828894
207,1437232580363,22.6123091402103
208,1437232581052,30.8314279615718
209,1437232581775,24.2942496203578
210,1437232582507,19.8024765127297
211,1437232583986,53.4520005935797
212,1437232584656,19.8549606909645
213,1437232585375,19.5156720558543
214,1437232586114,18.5579978700164
215,1437232586854,16.7781211013171
216,1437232587587,22.9584212810388
217,1437232588350,40.2543838575331
218,1437232589101,35.7568020763225
219,1437232589809,57.9818445440954
220,1437232590461,40.3555853386597
221,1437232591159,30.1307063279004
222,1437232591900,44.2294223553098
223,1437232592619,39.3926442918455
224,1437232593372,35.5060188000454
225,1437232594104,12.2324904376547
226,1437232594854,16.8544889777839
227,1437232595584,20.8018578879414
228,1437232596310,23.9614886928715
229,1437232597042,18.374692788805
230,1437232597756,14.2910257919127
231,1437232599303,23.1358231911372
232,1437232600016,20.4701927196645
233,1437232600678,15.4390836199862
234,1437232601458,50.9264464551539
235,1437232602187,58.9888168613861
236,1437232602924,42.4566413713872
237,1437232603613,39.9465892919747
238,1437232604272,43.2120317174026
239,1437232604999,27.2393777633383
240,1437232605728,37.5378519941462
241,1437232606465,42.4222253510678
242,1437232607198,21.1514747958131
243,1437232607952,25.1447740141885
244,1437232608717,32.0592742620332
245,1437232609503,51.1341441138102
246,1437232610239,42.7071661285711
247,1437232610959,37.5500862201117
248,1437232611619,23.6524718151327
249,1437232612388,34.4845276599071
250,1437232613113,49.1980260327397
251,1437232613843,26.9037342441993
252,1437232614564,27.5898232780272
253,1437232615330,29.9783256076698
254,1437232616056,25.4735872450559
255,1437232616780,26.9486028363406
256,1437232617508,25.7407259304927
257,1437232618218,21.8473973348115
258,1437232618971,50.9727379545459
259,1437232619669,56.3900802766763
260,1437232621510,34.1510432966345
261,1437232622237,40.1391265430998
262,1437232623023,46.5194199793318
263,1437232623797,38.5345750249724
264,1437232624537,36.9344288928019
265,1437232625273,54.2781466168038
266,1437232626003,35.9166504954869
267,1437232626737,39.8929716032293
268,1437232627497,39.3945638969521
269,1437232628241,35.400063596039
270,1437232628981,37.9153299126662
271,1437232629700,42.0394959752231
272,1437232630445,49.1405827224083
273,1437232631165,43.8759638421503
274,1437232631902,44.3775674724046
275,1437232632563,54.1413836205284
276,1437232633286,38.0899899622201
277,1437232635110,60.851784469448
278,1437232635723,42.1748767893051
279,1437232636466,36.3570202062128
280,1437232637206,31.9120579566292
281,1437232637937,32.5840385732719
282,1437232638657,30.5751467243045
283,1437232639380,27.1427530754947
284,1437232639964,25.0706541530949
285,1437232640659,27.2360097728706
286,1437232641285,53.7482508334895
287,1437232641934,49.4667557631468
288,1437232642575,33.7294340626353
289,1437232643259,30.265413754709
290,1437232643993,45.2527075781665
291,1437232644736,45.7141985621564
292,1437232645463,58.1531747676845
293,1437232646134,39.813704272612
294,1437232646865,40.1741930753138
295,1437232647613,35.4565998354218
296,1437232648395,41.217748935635
297,1437232649203,47.9660684360255
298,1437232649943,29.6139242587391
299,1437232650665,35.713590909951
300,1437232651397,18.3691458665632
301,1437232652135,25.5965145370882
302,1437232652837,19.6583722765819
303,1437232653591,20.2909767868094
304,1437232654318,24.3694239700854
305,1437232655075,31.6722877941971
306,1437232655813,35.0448027697605
307,1437232656533,28.6237087568468
308,1437232657260,33.4900939550983
309,1437232658004,43.750458889708
310,1437232658706,50.048833062905
311,1437232659381,45.7202032950207
312,1437232660120,43.9523762289787
313,1437232660797,48.4320220463208
314,1437232661521,13.0422514644673
315,1437232662254,40.0490230424185
316,1437232662969,32.5836898122918
317,1437232663686,18.9330197207526
318,1437232664325,28.5469761254559
319,1437232665036,39.2420762203435
320,1437232665765,31.870611339692
321,1437232666508,33.7640826685917
322,1437232667249,32.7293714626377
323,1437232668001,28.2974701314401
324,1437232668715,41.1193944010422
325,1437232669481,35.1010099867892
326,1437232670216,41.4357843168475
327,1437232670969,37.1567022802023
328,1437232671702,34.8135727187102
329,1437232672414,26.9529053079584
330,1437232673155,36.4559561449561
331,1437232673835,26.0316331503733
332,1437232674492,18.0209560313118
333,1437232675235,28.1232369792792
334,1437232675962,33.044527554855
335,1437232676716,42.533580004618
336,1437232677480,33.9230727805027
337,1437232678204,37.992315551818
338,1437232678816,37.5088002807448
339,1437232679543,21.3178297485191
340,1437232680277,27.549152361245
341,1437232681007,62.8748785530752
342,1437232681734,19.5008295531298
343,1437232682461,36.8899188701224
344,1437232683220,61.5422445057056
345,1437232683939,33.4336675687957
346,1437232684672,25.2653900235635
347,1437232685330,21.832067008281
348,1437232686066,41.9356837240026
349,1437232686788,32.624586607326
350,1437232687508,32.4649529324017
351,1437232688273,25.5261252671979
352,1437232689030,31.2575304464294
353,1437232689700,27.4594308821912
354,1437232690436,41.0819063476214
355,1437232691168,44.8951592076075
356,1437232691908,48.3637005071553
357,1437232692654,35.5559021117227
358,1437232693406,30.6842271450192
359,1437232694137,27.7221805490676
360,1437232694833,60.6147145496762
361,1437232695463,39.3426849034572
362,1437232696146,52.8932009799903
363,1437232696888,66.7503768951385
364,1437232697613,49.4020222749023
365,1437232698401,61.239906547479
366,1437232699138,49.4480551555338
367,1437232699837,57.8678383036768
368,1437232700432,34.751858211158
369,1437232701085,44.5251068158284
370,1437232701800,39.7153618947955
371,1437232702541,52.0598498921921
372,1437232703297,45.6911835893037
373,1437232704013,58.4124502960974
374,1437232704757,41.1788762379073
375,1437232705481,32.8902740690465
376,1437232706188,35.3761167506975
377,1437232706939,49.5503607985107
378,1437232707707,46.9528816818779
379,1437232708514,39.9232551402037
380,1437232709328,31.9763570323711
381,1437232709971,39.627430503484
382,1437232710660,39.2361842853069
383,1437232711425,37.1802535679816
384,1437232712099,41.8171802292318
385,1437232712826,60.4039979751496
386,1437232713566,50.2545575916795
387,1437232714315,34.8175089340282
388,1437232715061,37.9164395753045
389,1437232715781,35.5124047861292
390,1437232716492,36.3848298929254
391,1437232717139,33.4477977670406
392,1437232717893,61.2016763937812
393,1437232718622,51.3796516158071
394,1437232719384,35.4831038633866
395,1437232720150,31.2233740466228
396,1437232720862,35.1284987080818
397,1437232721610,59.8155031079213
398,1437232722337,41.0136949460079
399,1437232723077,64.0015623286333
400,1437232723864,45.8290057809357
401,1437232724600,35.2777608573344
402,1437232725338,38.9168546885139
403,1437232726075,51.4579639076759
404,1437232726735,45.8373572841558
405,1437232727353,59.0184205425047
406,1437232728055,48.035606796156
407,1437232728790,41.3132328466113
408,1437232729548,44.2596575151269
409,1437232730344,42.6934580579433
410,1437232731075,47.7877874180192
411,1437232731796,37.1465938237653
412,1437232732528,41.3498574201234
413,1437232733253,55.9602565675215
414,1437232733988,32.7342178492195
415,1437232734724,51.4987631325167
416,1437232735447,47.1130072935367
417,1437232736184,55.8763707278677
418,1437232736923,36.8470383954386
419,1437232737651,37.6533724748421
420,1437232738324,54.9231212547473
421,1437232739039,24.2495703297771
422,1437232739770,36.6493591421772
423,1437232740443,50.6207610416249
424,1437232741028,47.2125098152576
425,1437232741724,56.0500139697785
426,1437232742463,36.7308429182264
427,1437232743194,20.9979739115861
428,1437232743989,42.0252826867106
429,1437232744738,56.8693767284927
430,1437232745476,25.8700395950151
431,1437232746222,33.2374021235427
432,1437232746948,23.4354694276912
433,1437232747673,21.9476169617611
434,1437232748288,24.0667455412351
435,1437232748988,19.2802237394994
436,1437232749778,36.9049801787017
437,1437232750495,22.3763070086212
438,1437232751188,33.5876529433463
439,1437232751870,39.9113880523748
440,1437232752618,45.1170819616385
441,1437232753308,42.2089626786051
442,1437232754048,42.0676804285983
443,1437232754788,65.8897226299282
444,1437232755526,22.1752062841628
445,1437232756271,19.0529770695726
446,1437232757005,54.8198615582979
447,1437232757745,42.3942012294729
448,1437232758458,29.3486000887314
449,1437232759098,42.3114269736989
450,1437232759805,52.7342621110485
451,1437232760532,30.1835619895678
452,1437232761302,48.9749484709695
453,1437232762024,47.3350540117475
454,1437232762673,17.4958226480268
455,1437232763378,17.0264915197844
456,1437232764107,19.5011289136738
457,1437232764838,18.2241915464222
458,1437232765553,17.6780771252076
459,1437232766296,33.9791320343309
460,1437232767035,31.4194794817981
461,1437232768136,24.4510676587874
462,1437232768843,13.2670903989007
463,1437232769641,36.9510361470226
464,1437232770310,41.2669190856682
465,1437232771022,38.4512965878443
466,1437232771751,41.3894957508324
467,1437232772480,31.2073264755481
468,1437232773177,34.9774674591334
469,1437232773836,24.6680400882842
470,1437232774610,24.6700167073212
471,1437232775381,32.8918214100179
472,1437232776127,28.877774836182
473,1437232776863,43.9792769268652
474,1437232777583,34.0688653825846
475,1437232778328,26.3241097749699
476,1437232779051,22.298013553169
477,1437232779791,40.0497325118639
478,1437232780456,29.9318231880624
479,1437232781183,51.633714762892
480,1437232781934,39.9203908920178
481,1437232782657,36.0635472165785
482,1437232783443,35.7830373140148
483,1437232784153,27.3190362911788
484,1437232784878,38.405309185546
485,1437232785608,39.7815414001909
486,1437232786354,21.0916930537065
487,1437232787016,19.7127238468911
488,1437232788355,18.4422711750715
489,1437232789066,54.4525051663654
490,1437232789851,31.8285137382294
491,1437232790569,19.8738930495573
492,1437232791355,43.4767076988809
493,1437232792083,34.5280545406347
494,1437232792735,32.113265316502
495,1437232793489,37.1037395314216
496,1437232794230,19.9622123718322
497,1437232794968,19.2069349651042
498,1437232795708,37.5712721281011
499,1437232796465,29.6782651960715
500,1437232797048,38.6107725517092
501,1437232797746,37.4682309116394
502,1437232798485,29.1456401413122
503,1437232799200,22.1751274100838
504,1437232799919,39.3629970347026
505,1437232800655,19.2463491660903
506,1437232801377,13.1129356745625
507,1437232801993,22.3938230269475
508,1437232802631,20.4297658500207
509,1437232803380,26.8975718775501
510,1437232804095,40.3380993375704
511,1437232804878,35.6028591247927
512,1437232805602,38.3892722387827
513,1437232807608,54.1760321594465
514,1437232808340,31.6011933264256
515,1437232809038,50.6514152905228
516,1437232809716,42.3843265182732
517,1437232810452,59.6767758544404
518,1437232811185,54.0160625029331
519,1437232811882,54.0429967174411
520,1437232812518,26.7586952598969
521,1437232813215,41.6986672715319
522,1437232813924,52.257547886681
523,1437232814605,21.4184828170591
524,1437232815264,13.5760013511124
525,1437232816007,55.7943914300434
526,1437232816733,59.6513603112602
527,1437232817478,35.3220238649173
528,1437232818235,23.3416587358705
529,1437232818996,34.7000940883053
530,1437232819731,45.9605502864267
531,1437232820477,51.7973339703398
532,1437232821194,52.8374922512864
533,1437232821947,25.468284167623
534,1437232822635,17.5379310162812
535,1437232823338,41.9658254402676
536,1437232824062,20.2107629315278
537,1437232824807,50.0412233994676
538,1437232825521,42.505985302137
539,1437232826253,52.1264357341884
540,1437232826969,51.3527420810894
541,1437232827718,53.6179218938214
542,1437232828475,23.6195780795587
543,1437232829207,41.2070364099409
544,1437232829956,25.5658589779682
545,1437232830720,20.3357541013786
546,1437232831456,21.1287679707209
547,1437232832169,23.645189040524
548,1437232832888,22.6691978750941
549,1437232833548,18.3137896373539
550,1437232834285,39.4057185843562
551,1437232835007,29.1264477183902
552,1437232835772,22.6314401435777
553,1437232837992,42.2254571277385
554,1437232838726,25.8832893372301
555,1437232839460,49.8372331116359
556,1437232840192,32.4604577232455
557,1437232840924,56.6039835307673
558,1437232841664,50.6297164483356
559,1437232842356,45.8968429752941
560,1437232842959,31.6844220318647
561,1437232843611,23.8464977772625
562,1437232844318,41.4656050153747
563,1437232845024,24.9701688421309
564,1437232845766,31.7537329956279
565,1437232846519,33.4022990279823
566,1437232847264,48.6287677476819
567,1437232848031,35.166425400533
568,1437232848734,29.6983906507358
569,1437232849464,43.4064989939522
570,1437232850192,24.6352309417226
571,1437232850940,23.7703451617394
572,1437232851682,32.9229453486386
573,1437232852492,38.3739529161574
574,1437232853214,17.3561231425631
575,1437232853874,47.7488751409686
