id,attr_time,attr_db
1,1437232431380,51.1713660732156
2,1437232431857,58.1928954634728
3,1437232432339,42.3048446622219
4,1437232432801,40.484647862789
5,1437232433281,46.1391924287592
6,1437232433754,40.608725063817
7,1437232434227,42.721943808304
8,1437232434604,42.0473536230031
9,1437232435027,39.9756480399114
10,1437232435493,39.2057232961465
11,1437232435977,44.0746729888658
12,1437232436503,52.6758826269916
13,1437232436996,58.3132156675884
14,1437232437482,49.5648211893108
15,1437232437997,45.6966024002508
16,1437232438483,48.8770511333976
17,1437232438979,48.7377618980983
18,1437232439419,44.3961099856936
19,1437232439862,42.5510125389759
20,1437232440310,39.2492512341554
21,1437232440758,42.0654120568513
22,1437232441289,57.1474049752272
23,1437232441771,53.1916385918702
24,1437232442283,40.4272284021183
25,1437232442790,44.896395315103
26,1437232443285,43.5279511977592
27,1437232443732,45.9334784194027
28,1437232444188,45.3124182926996
29,1437232444644,45.3426744133255
30,1437232445094,42.8789117593376
31,1437232445525,42.973041841716
32,1437232446103,39.3526874661087
33,1437232446582,45.079996172969
34,1437232447073,44.0251528585996
35,1437232447545,42.4616308276011
36,1437232448028,44.2103031230834
37,1437232448506,40.4266156067723
38,1437232448829,41.7213091310897
39,1437232449166,45.6421321751658
40,1437232449559,54.0481150091951
41,1437232450015,46.4959670329888
42,1437232450505,44.0210206634151
43,1437232451052,44.3065163134878
44,1437232451558,42.9492938158369
45,1437232452048,41.543359220311
46,1437232452542,41.2837244687029
47,1437232453045,43.9118161287427
48,1437232453534,42.1568407923329
49,1437232453968,45.5971743329613
50,1437232455225,50.3154719735113
51,1437232455570,46.4974175252854
52,1437232456036,64.3908252211249
53,1437232456606,61.3105887889033
54,1437232457076,56.3838032338058
55,1437232457554,55.0497857083872
56,1437232458035,59.0114325615076
57,1437232458552,59.5522444665362
58,1437232459028,50.0018833051505
59,1437232459530,54.4891356948094
60,1437232460005,56.4876317902696
61,1437232460521,56.1894513704744
62,1437232460998,58.0508597734727
63,1437232461554,51.0784197294992
64,1437232462023,60.9165651608518
65,1437232462423,52.1300761140729
66,1437232462870,54.2726660920567
67,1437232463319,55.2958276980469
68,1437232463805,54.494874188803
69,1437232464294,64.4834171863918
70,1437232464794,60.9204287141694
71,1437232465296,59.2575709390952
72,1437232465775,59.9864712174216
73,1437232466188,56.7397238952345
74,1437232466596,56.2615764808877
75,1437232467042,61.87559177843
76,1437232467542,63.0246006914668
77,1437232468049,64.8222203653138
78,1437232468509,57.7473868516956
79,1437232468909,64.3046642534027
80,1437232469336,66.5058831445681
81,1437232469787,60.5792311773446
82,1437232471565,61.8919792352691
83,1437232471995,61.808099078921
84,1437232472450,57.9629249652829
85,1437232472938,54.1884405599937
86,1437232473418,61.3927819267518
87,1437232473912,59.2400195906712
88,1437232474399,56.5460701600027
89,1437232474865,58.2256365565793
90,1437232475344,49.5416507081779
91,1437232475833,56.0425593447521
92,1437232476338,54.5043868467091
93,1437232476811,66.9394039721516
94,1437232477198,69.4636792087337
95,1437232477631,58.9051472550837
96,1437232478113,50.6842530483443
97,1437232478593,52.5316250174762
98,1437232479079,53.4352082949722
99,1437232479567,67.2521167007146
100,1437232480037,61.3365762209456
101,1437232480517,59.0809741459556
102,1437232481003,55.1223274040356
103,1437232481463,64.8132615169526
104,1437232481898,62.305534706804
105,1437232482341,62.7882543716029
106,1437232482824,60.0813298834991
107,1437232483303,59.8500733394388
108,1437232483788,61.8958808497504
109,1437232484282,54.0399072867869
110,1437232484767,51.0106154008276
111,1437232485252,55.6384292125763
112,1437232485743,59.2486719931169
113,1437232486224,66.4323184253466
114,1437232486780,52.0410772690758
115,1437232487271,51.6058315626941
116,1437232487748,49.4945363594388
117,1437232488132,55.4354650334999
118,1437232488560,49.1258002390463
119,1437232489009,54.7525851059642
120,1437232489473,51.5790651385571
121,1437232489964,55.1356935097509
122,1437232490455,53.5497240856452
123,1437232490940,57.2006226159651
124,1437232491364,60.2911209988404
125,1437232492588,59.705768524235
126,1437232493008,59.4425144771407
127,1437232493447,58.8936796973792
128,1437232493965,57.5236537790827
129,1437232494447,52.6600689433409
130,1437232494925,59.0434929037885
131,1437232495442,50.0328647722311
132,1437232495965,56.1448378332733
133,1437232496444,55.8813300388332
134,1437232496912,51.6884213543233
135,1437232497402,56.9948058600928
136,1437232497904,61.8424198853079
137,1437232498406,51.9001205010383
138,1437232498826,61.9193212812906
139,1437232499268,58.1038594429926
140,1437232499750,56.6978675653342
141,1437232500241,56.4352084359012
142,1437232500714,60.3443926492168
143,1437232501222,57.9803334135824
144,1437232501735,59.7827599523981
145,1437232502231,50.865916874896
146,1437232502683,61.7852919134104
147,1437232503144,54.6031419287472
148,1437232503623,59.5412375705578
149,1437232504106,53.8738564519148
150,1437232505632,62.871402844121
151,1437232506038,66.1811220448668
152,1437232506530,61.8085307816612
153,1437232507010,58.0808453068279
154,1437232507498,54.9266367751192
155,1437232507989,53.7060578144254
156,1437232508487,57.3384450531238
157,1437232509002,59.7990134737693
158,1437232509396,62.9247624899433
159,1437232509740,58.5717092229712
160,1437232510179,60.8327489346719
161,1437232510655,60.4587531161298
162,1437232511159,57.1062747020508
163,1437232511628,58.7682492102571
164,1437232512120,56.5610796447395
165,1437232512611,53.9747996263188
166,1437232513111,54.709579467851
167,1437232513562,58.4674330765534
168,1437232514031,54.5601426280257
169,1437232514521,57.3587158921971
170,1437232514995,65.7518500118736
171,1437232515560,57.4794219115158
172,1437232516059,59.7871436706813
173,1437232516560,55.8172767591592
174,1437232517040,56.9154828848729
175,1437232517547,56.7774037145013
176,1437232518046,58.3355466708323
177,1437232518539,58.6084675904605
178,1437232518999,58.4102942117678
179,1437232519381,52.596560107099
180,1437232519764,54.9134538122282
181,1437232520159,57.3777386045962
182,1437232520691,58.8070982053436
183,1437232521184,52.2125682676197
184,1437232521680,56.0401457545097
185,1437232522207,57.5480897815777
186,1437232522702,57.9880837583274
187,1437232523195,58.8500054367675
188,1437232523671,61.5797138773604
189,1437232524162,58.1739392534188
190,1437232524631,59.2426346419728
191,1437232525084,59.6577130455295
192,1437232525646,60.968361908501
193,1437232526162,57.6706114282854
194,1437232526655,55.324852931611
195,1437232527156,57.5890682108493
196,1437232527655,59.3230518562587
197,1437232528145,62.9477418974919
198,1437232528638,60.93209274625
199,1437232529120,60.2779289314933
200,1437232529566,63.0697787682933
201,1437232529948,63.6194193995082
202,1437232530365,65.1923601417104
203,1437232530829,69.5770973202564
204,1437232531309,67.2917587096401
205,1437232531798,69.900921223273
206,1437232532328,70.9247564707399
207,1437232532808,73.3696895094923
208,1437232533312,75.1342604142922
209,1437232533794,75.7880158550376
210,1437232534254,76.8444189866342
211,1437232534670,75.3161427040785
212,1437232535150,74.9261557973355
213,1437232535710,77.0550627309502
214,1437232536204,74.3067493847902
215,1437232536702,72.3806558300926
216,1437232537201,74.7899275378841
217,1437232537701,75.7605528743859
218,1437232538180,74.3986196979112
219,1437232538665,73.6346173881008
220,1437232539114,75.3870353033754
221,1437232539515,73.1188896019885
222,1437232539934,73.4979746088338
223,1437232540388,73.7376258387114
224,1437232540887,72.7909252024343
225,1437232541381,74.7011860999189
226,1437232541864,74.0383453045436
227,1437232542339,73.0395421199286
228,1437232542817,75.2714549404525
229,1437232543280,74.1405157454558
230,1437232543731,73.3285266502579
231,1437232544193,71.9169745751193
232,1437232544664,74.4901284068806
233,1437232545141,73.1401649303159
234,1437232545685,76.8682185488144
235,1437232546203,74.6297356979328
236,1437232546714,72.9341130968273
237,1437232547220,74.0229588065543
238,1437232547672,71.5692498206489
239,1437232548046,68.3952805017183
240,1437232548459,61.4542896945791
241,1437232548924,57.5113707622309
242,1437232549395,62.4153427434992
243,1437232549880,62.75157734684
244,1437232550308,57.2580034244103
245,1437232550774,56.3377400142101
246,1437232551297,57.9856757969112
247,1437232551778,58.4156562186896
248,1437232552283,58.0112986176742
249,1437232552779,56.7118217365853
250,1437232553273,53.9724501203293
251,1437232553717,58.304534677211
252,1437232554207,58.026143131516
253,1437232554672,52.6261112810397
254,1437232555152,50.6149245633414
255,1437232555641,48.1964974230817
256,1437232556183,50.5701054511721
257,1437232556680,56.498572650802
258,1437232557161,60.2981501966072
259,1437232557640,50.6390268990091
260,1437232558125,52.3200020179719
261,1437232558621,52.4657715090399
262,1437232559118,52.8035866058987
263,1437232559602,56.5857316804417
264,1437232560080,48.1277665913966
265,1437232560579,42.1191937669391
266,1437232561034,42.0904469073719
267,1437232561551,42.1512953038286
268,1437232561925,41.4393105925503
269,1437232562264,39.9290562386129
270,1437232562708,37.6502713699861
271,1437232563230,41.3798550918945
272,1437232563720,38.7356404919124
273,1437232564212,54.4002125758855
274,1437232564651,37.7874521750691
275,1437232565167,36.8827145228323
276,1437232565585,33.9736504046028
277,1437232565954,30.5648399618537
278,1437232566399,32.0284796141171
279,1437232566867,33.6057638457317
280,1437232567353,30.2816248515273
281,1437232567842,36.1511414963207
282,1437232568331,38.8215012621962
283,1437232568828,46.4369296727848
284,1437232569330,52.8890373313237
285,1437232569828,45.359421667186
286,1437232570225,37.1171974739135
287,1437232570697,29.2488763009225
288,1437232571190,41.897578042872
289,1437232571578,36.7551504988537
290,1437232571974,20.1887320401091
291,1437232572480,38.7460427723404
292,1437232572977,24.2593822423445
293,1437232573475,18.7922794280767
294,1437232573961,21.1542110758781
295,1437232574468,20.609046611017
296,1437232574948,43.4875436817086
297,1437232575445,33.8017950055999
298,1437232575968,24.2686451862097
299,1437232576489,19.4038720515095
300,1437232576966,25.8817656046498
301,1437232577455,19.761893567292
302,1437232577933,17.9183890686843
303,1437232578413,17.8559545228034
304,1437232578845,20.0211092898037
305,1437232579301,41.6487225878434
306,1437232579771,34.4453168410005
307,1437232580253,13.0747696671728
308,1437232580707,29.229254012319
309,1437232581173,18.9681961223393
310,1437232581648,34.9999882302392
311,1437232582128,42.4583721444658
312,1437232582565,20.71127033304
313,1437232582946,8.74907726364713
314,1437232583373,11.3748451006986
315,1437232583835,26.2454591354006
316,1437232584315,14.3548674334653
317,1437232584816,12.2947729147752
318,1437232585289,11.1227264067938
319,1437232585770,11.6893925216754
320,1437232586340,33.9915881710144
321,1437232586811,25.3782594124686
322,1437232587270,26.8985655235693
323,1437232587702,45.4878543130113
324,1437232588172,38.8629468585035
325,1437232588650,31.2405244303522
326,1437232589130,13.8591472239242
327,1437232589601,43.3119451326592
328,1437232590046,32.2433126870774
329,1437232590486,39.5687511963473
330,1437232591023,21.7923854893485
331,1437232591490,37.8168062300428
332,1437232591969,11.1605136073908
333,1437232592456,10.5378195265018
334,1437232592897,13.5204925303258
335,1437232593370,14.924097059826
336,1437232593856,18.2100973471466
337,1437232594372,17.3909912638579
338,1437232594849,10.6931956430486
339,1437232595349,10.9834128162077
340,1437232595838,9.42721704322241
341,1437232596367,10.0234467040584
342,1437232596798,28.2769948047503
343,1437232597216,10.1294437059351
344,1437232597642,9.59879855683058
345,1437232598115,12.5939746412329
346,1437232598552,10.854967172891
347,1437232599007,12.1315672125683
348,1437232599489,42.9905785401184
349,1437232599961,47.6246543750702
350,1437232600459,38.9424433456788
351,1437232600939,47.3437822093575
352,1437232601483,44.3190706740322
353,1437232601963,41.3013991781394
354,1437232602432,42.0451788240471
355,1437232602920,43.7428209568317
356,1437232603390,39.8455820104369
357,1437232603850,38.0331344166647
358,1437232604224,17.231321653135
359,1437232604641,45.7449555585466
360,1437232605120,9.5401749443656
361,1437232605601,16.3598603558038
362,1437232606163,12.0588359267671
363,1437232606641,44.259921819438
364,1437232607105,20.1704874806634
365,1437232607591,45.2488504980624
366,1437232608085,30.5670633161377
367,1437232608552,43.4035383372491
368,1437232609040,32.7608826818775
369,1437232609521,24.9141936223265
370,1437232610021,22.7290041366142
371,1437232610437,25.2630871391355
372,1437232610883,43.576668576168
373,1437232611381,29.4628913903222
374,1437232611867,13.2936704032073
375,1437232612379,18.7303500713383
376,1437232612811,26.85694141625
377,1437232613268,16.2224130696694
378,1437232613706,15.8844595405937
379,1437232614174,16.3758914685727
380,1437232614605,14.722305710431
381,1437232615031,15.7115454399574
382,1437232615526,14.7971491335494
383,1437232616021,18.2017158207934
384,1437232616532,16.7592399075233
385,1437232617003,43.6707402336125
386,1437232617448,19.9538172164455
387,1437232617869,51.7444129987579
388,1437232618315,25.4644566339424
389,1437232618805,42.5558072520119
390,1437232619296,31.3681857437091
391,1437232619780,30.9790834537106
392,1437232620265,43.9903474443211
393,1437232620753,43.7954291460904
394,1437232621319,54.5362277732646
395,1437232621809,50.1435028799389
396,1437232622311,32.269660320422
397,1437232622796,50.1241094333336
398,1437232623264,36.0288377030159
399,1437232623759,34.2449928440155
400,1437232624246,40.684105827829
401,1437232624726,36.2983155225121
402,1437232625125,30.3053745063345
403,1437232625584,45.3122160534878
404,1437232626080,31.2910966671596
405,1437232626566,34.369363962832
406,1437232627040,36.1477564958532
407,1437232627512,41.1574898186874
408,1437232627983,41.0082619745915
409,1437232628463,38.8619152285413
410,1437232628964,43.1254108590924
411,1437232629450,39.7179994315985
412,1437232629938,43.8090325851199
413,1437232630418,59.3808834899465
414,1437232630797,43.0220105289328
415,1437232631155,42.6188101939302
416,1437232631618,37.9104846033497
417,1437232632103,57.1513945861126
418,1437232632590,47.3463383681495
419,1437232633074,49.1736257161879
420,1437232633562,55.0791885708203
421,1437232634055,40.0735252458576
422,1437232634529,32.1681159776191
423,1437232635024,25.3227893495279
424,1437232635468,28.5823812646525
425,1437232635858,30.3539252056124
426,1437232636306,32.2019401902547
427,1437232636781,27.745911098479
428,1437232637277,28.264870025347
429,1437232637771,21.8597408111948
430,1437232638276,47.8611349034935
431,1437232638762,48.9821630808018
432,1437232639277,56.509466346804
433,1437232639771,50.6390220534049
434,1437232640254,57.6205822404854
435,1437232640722,54.2935380017116
436,1437232641173,55.9022809081658
437,1437232641681,16.2352126471958
438,1437232642134,25.3445331058004
439,1437232642602,29.6005406227962
440,1437232643077,37.1087837028307
441,1437232643585,46.2761740793767
442,1437232644067,41.8246029762029
443,1437232644562,34.885128905522
444,1437232645036,29.7226588099133
445,1437232645477,35.278644833489
446,1437232645856,19.67560965222
447,1437232646275,51.7127793724283
448,1437232646771,42.9603830352865
449,1437232647263,51.2974494948373
450,1437232647749,13.5349043387343
451,1437232648259,20.3740520507574
452,1437232648743,11.6191980812945
453,1437232649260,11.2591172499537
454,1437232649750,10.6292881932589
455,1437232650222,11.6022307430644
456,1437232650635,30.5223737205399
457,1437232651101,15.5657623090299
458,1437232651579,44.4075931506915
459,1437232652054,38.4731277923645
460,1437232652543,28.0866874036312
461,1437232653013,44.7846983511694
462,1437232653450,29.3259196145803
463,1437232653924,16.0757484128648
464,1437232654409,12.5862486289775
465,1437232654917,10.1063457253974
466,1437232655409,8.43753737188359
467,1437232655907,35.7641559064848
468,1437232656428,15.0950296998293
469,1437232656868,45.4023174700302
470,1437232657301,48.956431638286
471,1437232657784,25.5328139937459
472,1437232658227,36.3306225994407
473,1437232659609,14.6065612098702
474,1437232660044,45.9061531906117
475,1437232660524,44.9172001733673
476,1437232661034,15.8491810264614
477,1437232661512,19.9174972685071
478,1437232661994,6.73830824204188
479,1437232662462,11.0563183844196
480,1437232662963,11.997023722197
481,1437232663439,14.4623538262207
482,1437232663918,23.5159018559005
483,1437232664405,13.0464784436395
484,1437232664888,12.5482917707587
485,1437232665355,11.7810464190254
486,1437232665837,13.8705885892555
487,1437232666331,48.1088511427847
488,1437232666852,48.2854874505701
489,1437232667342,29.8590079361491
490,1437232667834,34.4929054665383
491,1437232668320,39.7390888694448
492,1437232668800,47.0504356707952
493,1437232669284,35.3226545390186
494,1437232669775,14.9270937442228
495,1437232670272,28.7447910252148
496,1437232670731,15.0391712945828
497,1437232671215,15.5757893637834
498,1437232671622,17.8037461162406
499,1437232672034,13.6607103700151
500,1437232672477,11.0081731860058
501,1437232672970,13.9011008094178
502,1437232673454,17.7336450011269
503,1437232673926,16.1798846978234
504,1437232674400,22.1122296696111
505,1437232674863,29.0128476981919
506,1437232675348,34.0020465075826
507,1437232675895,14.8077055752299
508,1437232676340,18.2017320938485
509,1437232676778,12.8616326328112
510,1437232677248,39.4204167054314
511,1437232677733,13.0824946083777
512,1437232678214,12.7160308323567
513,1437232679683,28.6885482323383
514,1437232680088,18.8400262641461
515,1437232680574,35.2175234082404
516,1437232681142,17.1827666867187
517,1437232681627,17.0585257903179
518,1437232682132,36.2979522716555
519,1437232682557,13.5216057077992
520,1437232682953,20.5380584062614
521,1437232683357,18.1482486320052
522,1437232683814,14.2229475796755
523,1437232684303,26.8859622468854
524,1437232684795,29.0845345404135
525,1437232685284,18.279733664451
526,1437232685781,16.341008254026
527,1437232686238,17.9444756270373
528,1437232686658,18.6753717887942
529,1437232687093,35.0061905182247
530,1437232687574,33.4921120971514
531,1437232688047,17.5911229591541
532,1437232688521,41.2478659200756
533,1437232689003,21.8106575463721
534,1437232689483,37.2335068331572
535,1437232689970,40.1799551283084
536,1437232690483,30.9907766427533
537,1437232690942,34.2082886759047
538,1437232691282,27.6308980360508
539,1437232691732,26.4807679627573
540,1437232692223,24.3486612663369
541,1437232692701,28.6717958286638
542,1437232693179,46.8569669912609
543,1437232693618,43.5314528778722
544,1437232693999,43.900453322022
545,1437232694434,51.7529544884906
546,1437232694931,50.6764241918873
547,1437232695394,53.0150388562744
548,1437232695881,33.9180426330598
549,1437232696380,45.1820840128334
550,1437232696848,52.9772290549075
551,1437232697338,50.0585554125237
552,1437232697816,41.8887208581137
553,1437232698324,35.2204705453976
554,1437232698772,29.3006358215278
555,1437232699251,42.0671657031435
556,1437232699731,43.5583476651877
557,1437232700212,52.2177557592528
558,1437232700705,42.3836255653055
559,1437232701282,47.0245530948464
560,1437232701773,30.084982501684
561,1437232702263,46.0547388461585
562,1437232702731,43.5403736628873
563,1437232703237,42.5883409401112
564,1437232703697,29.908912450742
565,1437232704073,30.297255891986
566,1437232704478,31.7704860880963
567,1437232704957,35.49584355844
568,1437232705460,34.5087943664608
569,1437232705952,34.7782593449659
570,1437232706425,32.2471298932499
571,1437232706917,44.6118814912278
572,1437232707357,34.3691949168918
573,1437232707754,36.0219925814729
574,1437232708926,44.9968438955373
575,1437232709336,32.6264847852618
