id,attr_time,attr_db
1,1437232431056,64.6402218720493
2,1437232431792,43.9673632816083
3,1437232432564,45.0192607103678
4,1437232433282,46.819698289666
5,1437232434022,43.2431395782487
6,1437232434830,45.924764588523
7,1437232435622,53.9538540409254
8,1437232436342,66.3300805468279
9,1437232437064,50.0295545954158
10,1437232437802,61.8796823266937
11,1437232438525,48.2846664144028
12,1437232439299,43.4908855764615
13,1437232440015,45.049440093239
14,1437232440635,51.8846596585823
15,1437232441317,51.4825241718217
16,1437232442032,48.210586812124
17,1437232442749,47.6398035022596
18,1437232443483,44.3958922584869
19,1437232444215,44.1066765210568
20,1437232445010,45.8069598606458
21,1437232445757,47.2343703472984
22,1437232446506,49.3238588862258
23,1437232447238,44.1298358853038
24,1437232447970,44.9560349667498
25,1437232448718,61.4601182227884
26,1437232449493,43.3586843447237
27,1437232450222,45.325819025345
28,1437232450982,45.2423005664861
29,1437232451714,44.8601891045101
30,1437232452453,48.2541389551288
31,1437232453204,63.5978325483094
32,1437232453940,45.0759676518658
33,1437232454675,51.6386555890134
34,1437232455397,58.7490447861111
35,1437232456135,59.8457978470449
36,1437232456777,53.5947004539663
37,1437232457387,62.7301779161359
38,1437232458135,54.192429210708
39,1437232458844,56.8828010294402
40,1437232459600,61.5836047184021
41,1437232460273,58.5508969442827
42,1437232460872,56.8521175554314
43,1437232461579,58.4901535027262
44,1437232462313,60.3995324079264
45,1437232463024,52.4567890602904
46,1437232463746,59.6218228592739
47,1437232464509,58.8558114259439
48,1437232465234,62.8455207865864
49,1437232465971,60.6499759110562
50,1437232466694,63.906194812055
51,1437232467413,66.2045275386848
52,1437232468173,66.8900808329328
53,1437232469293,64.4236536296496
54,1437232469921,57.4902795276556
55,1437232470593,70.5900201237273
56,1437232471318,66.0293284665794
57,1437232472015,58.3907472331303
58,1437232472692,58.7297128466943
59,1437232473412,62.5632188170286
60,1437232474090,56.777195153101
61,1437232474800,61.6781241772829
62,1437232475487,56.8070247289286
63,1437232476224,62.4522761111318
64,1437232476920,57.3917335257448
65,1437232477600,56.2178452431348
66,1437232478335,69.9819022147273
67,1437232479068,59.4757156554669
68,1437232479789,60.8524532869874
69,1437232480511,62.4593827065226
70,1437232481140,63.7159612203334
71,1437232481832,60.7134621592081
72,1437232482522,64.8456400711979
73,1437232483236,59.2538562767046
74,1437232484005,57.1743079297549
75,1437232484756,55.5255356404812
76,1437232485518,62.6446806714892
77,1437232486251,55.6682611900874
78,1437232486974,50.251087025486
79,1437232487704,53.2306161312893
80,1437232488457,58.1931339898929
81,1437232489156,48.9674472791014
82,1437232489814,66.2346545424035
83,1437232490542,63.2958891446466
84,1437232491270,63.335625866927
85,1437232491989,65.798230664068
86,1437232492715,62.9036102691973
87,1437232493459,56.0037418338696
88,1437232494187,61.5998910300603
89,1437232494878,55.1661158160102
90,1437232495477,54.3235211958931
91,1437232496173,57.1487183487978
92,1437232496909,64.0845984596064
93,1437232497648,61.3881960757001
94,1437232498369,58.4941021453194
95,1437232499100,62.1520586484085
96,1437232499832,61.7459572619395
97,1437232500574,65.3843259572773
98,1437232501250,57.3742872626605
99,1437232501952,61.5029649082215
100,1437232502682,66.9209393968113
101,1437232503405,57.9710606674787
102,1437232504154,63.726253494288
103,1437232504893,66.7135285539007
104,1437232505611,65.9241394548712
105,1437232506293,60.1430842660925
106,1437232507023,61.5260027743311
107,1437232507711,64.7562452840882
108,1437232509653,64.1676259438814
109,1437232510467,63.0174830913313
110,1437232511203,60.9130127964551
111,1437232511928,59.8935981108302
112,1437232512695,61.3065970509668
113,1437232513442,60.9421013947384
114,1437232514167,68.5376347912018
115,1437232514919,67.8812175077734
116,1437232515687,57.7747472592633
117,1437232516405,58.1872101354529
118,1437232517094,58.2877747705178
119,1437232517768,65.1089796141777
120,1437232518535,56.8750567774565
121,1437232519244,60.3954368350957
122,1437232519932,57.7682962997702
123,1437232520563,58.1658255482036
124,1437232521232,60.7413494287062
125,1437232521942,62.1851828432456
126,1437232522671,60.7988307667142
127,1437232523404,61.5684643118431
128,1437232524090,60.8851613865204
129,1437232525664,57.8501214595797
130,1437232526392,61.5324250286397
131,1437232527116,65.1632398184725
132,1437232527851,64.6658733683768
133,1437232528599,68.9880648157291
134,1437232529322,68.5581749239182
135,1437232530033,73.5632394149068
136,1437232530760,72.9218528500737
137,1437232531540,73.3694614965898
138,1437232532270,75.5095380805553
139,1437232532993,75.05497176799
140,1437232533745,74.5991481038354
141,1437232534482,76.0081273776942
142,1437232535280,75.2797800800016
143,1437232536007,72.1707121870959
144,1437232536733,72.726291870219
145,1437232537442,73.1161817648083
146,1437232538179,73.8446687631436
147,1437232538929,74.9954130141898
148,1437232539696,74.4295364715395
149,1437232540298,73.3892389997946
150,1437232540949,72.387186619738
151,1437232541639,73.8695391152529
152,1437232542356,72.563443217157
153,1437232543111,73.0152645666266
154,1437232543849,75.757980676435
155,1437232544549,75.8808081697121
156,1437232545176,74.5191209481569
157,1437232546926,69.4441720138621
158,1437232547606,60.5531707322291
159,1437232548332,64.1525668285166
160,1437232549063,61.4188101365288
161,1437232549750,57.2748682219825
162,1437232550411,61.9515947769003
163,1437232551093,63.5074394746046
164,1437232551805,51.542982051232
165,1437232552591,50.6189253679685
166,1437232553316,66.6869388355232
167,1437232554039,50.1038555846284
168,1437232554742,54.7459708870204
169,1437232555493,48.6560378429271
170,1437232556214,60.0905094808275
171,1437232556894,54.9287324367356
172,1437232557616,52.2378275796205
173,1437232558331,54.8711150424751
174,1437232560122,43.8319195500894
175,1437232560742,47.8555978108289
176,1437232561409,41.066614751656
177,1437232562068,42.2110051501408
178,1437232562776,41.3036229090654
179,1437232563479,40.950799239633
180,1437232564267,42.2614290122981
181,1437232564998,37.6487624615507
182,1437232565750,43.2827228016695
183,1437232566485,30.3345092579601
184,1437232567201,59.2197065002158
185,1437232567920,55.1704865365819
186,1437232568646,42.0879955527451
187,1437232569383,43.3453753525388
188,1437232570127,35.0364558427174
189,1437232570866,30.5450050985956
190,1437232571552,46.4414871174898
191,1437232572251,40.7764752575813
192,1437232572972,34.7341737396335
193,1437232573686,29.7266515163783
194,1437232574412,31.7047326362319
195,1437232575138,27.3425973227224
196,1437232575898,22.271879976163
197,1437232576676,20.6273606060681
198,1437232577410,22.1457906495084
199,1437232578134,37.2993397740645
200,1437232578888,43.1102394716928
201,1437232579628,14.6830226966939
202,1437232580312,18.9350539454718
203,1437232580978,51.8599100386177
204,1437232581743,29.3805827793248
205,1437232582478,14.0854388730012
206,1437232583192,14.9074201465978
207,1437232583935,16.2486577517684
208,1437232584690,17.1006585052714
209,1437232585427,36.8266138206495
210,1437232586156,31.7796128908555
211,1437232586907,34.7471137984333
212,1437232587662,52.0036431100603
213,1437232588302,18.3795350349581
214,1437232588996,50.2812174744835
215,1437232589718,44.1539663756259
216,1437232590469,35.4946749500341
217,1437232591210,12.8434234438692
218,1437232591925,29.3712755439245
219,1437232592683,25.199316671517
220,1437232593420,26.8263512084559
221,1437232594127,13.2803337590007
222,1437232594891,14.8030517983987
223,1437232595603,14.1031208280359
224,1437232596322,16.2716131317068
225,1437232597053,15.6249543687714
226,1437232597764,11.5121035128918
227,1437232598469,57.4087922313549
228,1437232599149,46.3019005898334
229,1437232599956,40.312586488254
230,1437232600682,50.9163135125248
231,1437232601453,46.9347369599511
232,1437232602092,37.9552015363349
233,1437232602834,46.6735896515088
234,1437232603586,47.7930057357718
235,1437232604312,16.0777527386051
236,1437232605086,25.6451612278881
237,1437232605873,34.837722402706
238,1437232606619,53.3602509863861
239,1437232607354,34.0353782965732
240,1437232608071,40.8502954761348
241,1437232608820,19.4904535512479
242,1437232609517,62.1128098214572
243,1437232610230,43.1113525947087
244,1437232610971,21.80645982797
245,1437232611660,20.1279620443487
246,1437232612341,22.7171467380256
247,1437232613087,21.0084371503441
248,1437232613814,21.1762057418282
249,1437232614597,18.1849797786779
250,1437232615319,20.2383218317877
251,1437232616064,50.2891589826062
252,1437232616786,48.0361779516721
253,1437232617542,28.4704161821808
254,1437232618275,40.935340602295
255,1437232618998,29.6296411561962
256,1437232619721,56.3097607867665
257,1437232620458,57.5783419987361
258,1437232621179,61.8407543799937
259,1437232621906,55.6411052202468
260,1437232622547,46.3132908982659
261,1437232623201,34.1687762918805
262,1437232623909,40.6400525877292
263,1437232624695,45.638999175299
264,1437232625423,34.7940263802383
265,1437232626187,37.6736936664346
266,1437232626926,43.5063294743502
267,1437232627693,48.0138588042422
268,1437232628357,45.2446489653541
269,1437232629082,46.9146933216078
270,1437232629807,52.8745671629507
271,1437232630540,45.69014520248
272,1437232631270,65.4620678566449
273,1437232632005,39.2410909164405
274,1437232632743,58.124588150598
275,1437232633469,37.6085014035111
276,1437232634115,33.8026460946974
277,1437232634807,34.4763440538103
278,1437232635539,35.6729836960927
279,1437232636286,33.9426384163455
280,1437232637025,34.619905602878
281,1437232637753,40.6407224204769
282,1437232638517,65.0701952232907
283,1437232639223,48.2025692148573
284,1437232639948,47.823558303865
285,1437232640683,31.0605804545094
286,1437232641419,61.5484758762641
287,1437232642109,58.1081009852117
288,1437232642780,37.8854594349689
289,1437232643492,30.9698572728606
290,1437232644226,33.261082260433
291,1437232644962,48.4093500044833
292,1437232645688,48.2367106289237
293,1437232646434,52.8017665426868
294,1437232647144,33.0673047641207
295,1437232647878,19.7571202621569
296,1437232648630,19.8937324803165
297,1437232649360,19.350572754455
298,1437232650092,19.3078683717929
299,1437232650763,43.113863330277
300,1437232651404,23.6972910069389
301,1437232652127,35.5697827863779
302,1437232652875,44.4941712888454
303,1437232653623,14.7396256889376
304,1437232654386,50.5230261521923
305,1437232655149,45.9350020624285
306,1437232655906,53.8222847129085
307,1437232656692,55.1388435211199
308,1437232657364,45.9005964239989
309,1437232658106,45.4553705598812
310,1437232658824,39.2142289115643
311,1437232659551,46.4355869352389
312,1437232660281,28.7349321581917
313,1437232661018,13.8656548169863
314,1437232661713,16.0372268336261
315,1437232662474,33.3450065845749
316,1437232663179,25.6861450199761
317,1437232663917,16.6780970259497
318,1437232664653,17.4066033093772
319,1437232665451,50.9998485371426
320,1437232666196,36.9021420436992
321,1437232666943,33.9067141135152
322,1437232667698,44.5623104472557
323,1437232668375,36.8599394052838
324,1437232669023,24.7489376799112
325,1437232669732,21.3305754256484
326,1437232670567,19.131001251264
327,1437232671289,17.1327237826337
328,1437232672026,18.2204998328073
329,1437232672737,24.4208969698096
330,1437232673470,22.4943605320562
331,1437232674205,24.7656515724604
332,1437232674937,17.5006143257447
333,1437232675737,22.1920594401022
334,1437232676483,38.8333860613137
335,1437232677205,16.8067585728813
336,1437232677948,58.574555498357
337,1437232678675,41.5409521513617
338,1437232679406,43.3913117312608
339,1437232680132,49.5574707799255
340,1437232680850,17.5407740407462
341,1437232681623,37.4443709303766
342,1437232682328,38.6156300047975
343,1437232682944,23.2293243493038
344,1437232683646,32.2272958095388
345,1437232684402,21.1428904032856
346,1437232685172,20.7914887181041
347,1437232685933,27.3427505986163
348,1437232686739,33.9276148065377
349,1437232687429,42.0282246116434
350,1437232688144,25.1032566593655
351,1437232688884,52.7436577516152
352,1437232689649,39.7784604238253
353,1437232690389,46.3290617972006
354,1437232691173,26.3654762553886
355,1437232691909,28.6931749236951
356,1437232692666,42.0474339567178
357,1437232693345,51.3496292256217
358,1437232694099,60.792167968288
359,1437232694826,49.782739492949
360,1437232695552,60.3900230628548
361,1437232696302,59.9595377809931
362,1437232697022,59.9117278859309
363,1437232697672,35.4349955236089
364,1437232698384,45.0350063515214
365,1437232699109,53.6346886182257
366,1437232699846,43.0619105313677
367,1437232700575,34.8486172333641
368,1437232701316,53.861804315245
369,1437232702040,43.7061441361626
370,1437232702781,31.0503861663791
371,1437232703453,34.6938872355342
372,1437232704180,59.3478162802122
373,1437232704906,46.2288619471275
374,1437232705633,40.6640428186516
375,1437232706381,44.7212213165312
376,1437232707115,59.5534216672541
377,1437232707835,40.6168023604249
378,1437232708520,46.7032660051471
379,1437232709257,40.2206848204041
380,1437232709990,60.0053915682557
381,1437232710726,43.3220536977546
382,1437232711506,37.287731266818
383,1437232712172,37.1167286947076
384,1437232713643,46.3953480645187
385,1437232714386,31.5837383325038
386,1437232715111,61.396086263818
387,1437232715832,43.8213354447778
388,1437232716654,32.3312530593807
389,1437232717257,30.7125655571186
390,1437232717898,29.3925690377802
391,1437232718571,52.0800653933947
392,1437232719250,37.9875880518917
393,1437232719985,53.7424735008449
394,1437232720723,65.1499101509764
395,1437232721537,36.3888808541449
396,1437232722238,31.695536112644
397,1437232722889,45.9541269260466
398,1437232723556,47.5993907274496
399,1437232724306,35.4920939462531
400,1437232725042,32.0132783465075
401,1437232725772,58.6419125229412
402,1437232726520,46.5790757571704
403,1437232727244,58.2453726647759
404,1437232727981,37.3140041930223
405,1437232728708,31.7821147914986
406,1437232729390,36.4421348916788
407,1437232730052,36.9634772335099
408,1437232730769,49.5589522537056
409,1437232731567,27.0674433268393
410,1437232732231,65.1562292888862
411,1437232733747,45.4283594177623
412,1437232734492,26.7653142800999
413,1437232735227,35.7934771933995
414,1437232735963,56.2808177365929
415,1437232736686,25.3014839396477
416,1437232737396,31.4204386191296
417,1437232738074,54.0135884428146
418,1437232738797,50.0621735704221
419,1437232739484,49.26419380998
420,1437232740156,22.8437848517747
421,1437232740915,23.4622451607999
422,1437232741687,54.1140938809237
423,1437232742429,46.3116349957636
424,1437232743201,33.8998663826494
425,1437232743804,21.9414514889987
426,1437232744472,37.8729761464075
427,1437232745202,32.0738977640452
428,1437232745939,22.4858585438854
429,1437232746678,47.0115865289699
430,1437232747419,36.369009996173
431,1437232748163,44.1595316792836
432,1437232748896,24.2605905355154
433,1437232749626,22.5310596608727
434,1437232750343,38.8954592925736
435,1437232751075,37.5721790733677
436,1437232751825,65.3504125957425
437,1437232752573,58.5911480603294
438,1437232753424,24.0307442605073
439,1437232754057,54.338095619952
440,1437232754729,57.8947228989234
441,1437232755360,57.9832803685737
442,1437232756039,19.1678205409115
443,1437232756846,64.8224986286343
444,1437232757562,17.7389014488713
445,1437232758195,54.0024243970091
446,1437232758844,35.8792698726856
447,1437232759527,25.6697943833393
448,1437232760255,23.7574417761615
449,1437232760931,16.7789518830065
450,1437232761622,16.81488855909
451,1437232763029,18.6854161360289
452,1437232763701,44.4199299724391
453,1437232764457,33.8412442700747
454,1437232765182,33.3027070347047
455,1437232765923,17.3603966878363
456,1437232766662,35.2756474260314
457,1437232767474,45.7799786884568
458,1437232768152,40.7113009665574
459,1437232768899,43.7769498866895
460,1437232770214,31.0297128222147
461,1437232770814,26.1042073377848
462,1437232771434,30.5564251869027
463,1437232772114,32.7871264518239
464,1437232772864,53.5706449592071
465,1437232773622,33.1668968459713
466,1437232774339,45.0745044511234
467,1437232775066,39.8147264123654
468,1437232775806,34.7299017027536
469,1437232776576,36.7681783827356
470,1437232777340,32.8948544247243
471,1437232778092,34.8518005992057
472,1437232778783,35.4134965215494
473,1437232780232,29.6443002772843
474,1437232780900,56.2332794627353
475,1437232781669,33.4458115766469
476,1437232782492,41.0893190547032
477,1437232783198,28.1783349836997
478,1437232783802,21.0302864991721
479,1437232784450,21.0876561394781
480,1437232785141,22.5985692663805
481,1437232785887,50.2311506348986
482,1437232786636,53.7464011440535
483,1437232787371,40.4871415249534
484,1437232788094,36.0033663188108
485,1437232788803,41.6522510682875
486,1437232789479,22.726016396112
487,1437232790192,33.5922330019039
488,1437232790923,35.7313768900912
489,1437232791639,20.718282191292
490,1437232792379,21.6860686854807
491,1437232793107,45.9886267596024
492,1437232793822,41.027247592517
493,1437232794514,40.3072806740866
494,1437232795178,50.7031583537994
495,1437232795905,20.3113932406417
496,1437232796669,53.9690894930625
497,1437232797414,40.7813735853475
498,1437232798142,17.3127653767464
499,1437232798884,17.1276810656311
500,1437232799639,27.9643038303686
501,1437232800353,22.6797864681165
502,1437232801095,35.8862511173729
503,1437232801824,16.7967215840663
504,1437232802610,23.715795417129
505,1437232803336,42.8354783108415
506,1437232804036,57.8121718883882
507,1437232804631,45.9493802693944
508,1437232805318,31.0167564506826
509,1437232805927,56.8329922904134
510,1437232806610,54.0287268463823
511,1437232807360,55.405528060856
512,1437232808091,49.4292332348084
513,1437232808805,41.9731050322372
514,1437232809574,44.2583966604596
515,1437232810165,32.6714258973676
516,1437232810855,36.1899653333952
517,1437232811596,41.0244078562998
518,1437232812333,41.0101164978016
519,1437232813077,31.5566449905449
520,1437232813845,57.5231296632415
521,1437232814580,45.5626271943322
522,1437232815314,24.961472003068
523,1437232816044,49.8870725980776
524,1437232816697,45.284433317783
525,1437232817394,51.5921747071325
526,1437232818126,52.4406182408675
527,1437232818871,46.1728968753366
528,1437232819668,16.9701216731459
529,1437232820409,47.4975269949656
530,1437232821151,47.5987265716793
531,1437232821964,52.5450783899763
532,1437232822685,50.4976532827675
533,1437232823399,50.9016385246083
534,1437232824048,23.1869764060705
535,1437232824743,41.1586378274419
536,1437232825474,32.2260128069224
537,1437232826223,58.1977232392917
538,1437232827020,42.0945087300728
539,1437232827733,38.0202511448163
540,1437232828477,57.2090076571716
541,1437232829194,13.2480207769054
542,1437232829928,37.7864832084859
543,1437232830680,15.451095680284
544,1437232831405,53.1556091249281
545,1437232832229,38.1324464862717
546,1437232832873,35.9142883137204
547,1437232833590,30.5788033556267
548,1437232834312,39.4318358251006
549,1437232835026,21.303225878528
550,1437232835754,43.5932421290678
551,1437232836502,46.8634307384151
552,1437232837218,33.62841860585
553,1437232837917,44.9905960089112
554,1437232838567,44.2785866119933
555,1437232839295,44.4847855010531
556,1437232840015,17.4517446958546
557,1437232840716,41.4971118743304
558,1437232841444,42.1808224986224
559,1437232842169,33.4973310593065
560,1437232842887,32.644897739935
561,1437232843666,47.9714784878298
562,1437232844431,46.0668828303747
563,1437232845048,19.9966136658947
564,1437232845735,17.4474495424117
565,1437232846516,39.1315910526248
566,1437232847244,34.0131392962503
567,1437232848000,31.5700213274199
568,1437232848689,31.6125413616181
569,1437232849330,37.6847367694036
570,1437232850041,25.5868600467624
571,1437232850786,16.2194437486586
572,1437232851519,44.5957187460918
573,1437232852255,30.1871761029187
574,1437232852998,48.2224528744123
575,1437232853744,44.4737895069008
