id,attr_time,attr_db
1,1437146240416,49.2159940158571
2,1437146240842,43.6351101453313
3,1437146241185,49.1615252861056
4,1437146241615,59.0504295408331
5,1437146242101,55.2175015552735
6,1437146242589,48.5768497490333
7,1437146243085,54.5304581019921
8,1437146243567,44.9408988549219
9,1437146244067,46.6837602009775
10,1437146244557,43.5692661785561
11,1437146246189,43.7734735089622
12,1437146246556,40.6186614733981
13,1437146247006,41.0861150976258
14,1437146247505,45.8183869451212
15,1437146247973,46.9995432261619
16,1437146248472,41.2733962259592
17,1437146248954,42.3370708509342
18,1437146249464,71.4099124845788
19,1437146249991,71.7140478608305
20,1437146250465,67.497629399618
21,1437146250942,53.5985139094529
22,1437146251355,49.2557579558001
23,1437146251751,66.5026281479102
24,1437146253130,66.6536201145456
25,1437146253580,46.4181597540208
26,1437146254071,54.1972635520867
27,1437146254516,44.8155884541842
28,1437146255019,54.3373195026771
29,1437146255523,51.3856607883031
30,1437146256012,51.2532540344795
31,1437146256486,44.0410457187499
32,1437146256936,45.4601162212309
33,1437146258048,50.8819336876374
34,1437146258489,43.0521240477035
35,1437146258965,43.5890942419301
36,1437146259472,43.3163914222608
37,1437146259963,44.5756638530454
38,1437146260466,56.9781987777692
39,1437146260936,44.7544071404529
40,1437146261305,44.6405403335157
41,1437146261737,51.165759768456
42,1437146262172,52.606937858964
43,1437146262624,47.9034175592124
44,1437146263102,47.4891179342487
45,1437146263595,50.9801069718884
46,1437146264092,44.0934864026948
47,1437146264537,43.2367088799643
48,1437146265055,44.3018605471403
49,1437146265532,52.5303750122025
50,1437146266067,51.1161534433494
51,1437146266560,48.5569272989069
52,1437146267044,44.6436602722286
53,1437146267497,48.0299965124555
54,1437146267995,44.7448475718581
55,1437146268491,46.5087423377725
56,1437146268971,47.4373175236385
57,1437146269453,53.9831525062731
58,1437146269952,45.6749115077175
59,1437146270442,42.4244376325959
60,1437146270813,40.4200982151393
61,1437146271172,41.5897769960367
62,1437146271601,45.9118817599657
63,1437146272073,45.6849875978848
64,1437146272558,44.4017423690254
65,1437146273039,46.6282760036341
66,1437146273539,43.6935874891809
67,1437146274057,41.8777472761378
68,1437146274507,44.6159211942561
69,1437146275062,59.9421959411748
70,1437146275551,51.7308476059611
71,1437146276045,42.8885945109339
72,1437146276521,44.2595721616236
73,1437146277042,47.7065589778574
74,1437146277498,44.4343792846626
75,1437146277870,59.8368780706374
76,1437146278288,57.6936489495314
77,1437146278745,44.4537992138091
78,1437146279251,42.6431003878211
79,1437146279724,43.1520154122073
80,1437146280221,44.5868202287999
81,1437146280703,46.5961214174235
82,1437146281211,53.5123785998318
83,1437146281680,47.9450031876652
84,1437146282038,48.6352467724957
85,1437146282454,53.3365153696524
86,1437146282943,58.2523142693722
87,1437146283432,43.1161516877059
88,1437146283854,50.8344701335885
89,1437146284349,47.8775170367606
90,1437146284874,48.9380087229186
91,1437146285277,50.7696708098031
92,1437146285680,43.8531051992091
93,1437146286136,64.5155867634946
94,1437146286616,49.311348456482
95,1437146287093,43.4668308279108
96,1437146287571,42.8634453246566
97,1437146288064,46.7664554029304
98,1437146288541,44.9261472498396
99,1437146289026,43.1524637756011
100,1437146289531,53.384287625193
101,1437146290019,44.9453659973292
102,1437146290512,51.2982622410819
103,1437146290985,44.9476471773241
104,1437146291469,46.1518414633419
105,1437146291938,44.9102720005631
106,1437146292324,43.295179957182
107,1437146292749,45.8680037368993
108,1437146293227,45.0265392879977
109,1437146293715,46.6866943773472
110,1437146294193,51.3239997499275
111,1437146294684,44.3814492497963
112,1437146295123,44.3110790740348
113,1437146295539,43.9766835281817
114,1437146296044,58.137143689351
115,1437146296539,45.8024891013618
116,1437146297055,45.4208642807936
117,1437146297572,48.6379359893774
118,1437146297925,47.4679665739117
119,1437146298336,55.1608830555268
120,1437146298765,56.154046271335
121,1437146299211,43.3769937911568
122,1437146299711,43.9980564367717
123,1437146300212,43.5645148620863
124,1437146300702,45.828410334715
125,1437146301183,44.8396262386907
126,1437146301657,47.1716351754858
127,1437146302123,44.2690738876428
128,1437146302461,44.9666259912418
129,1437146302891,51.9055659878908
130,1437146303354,43.7231538557401
131,1437146303848,44.5187361200002
132,1437146304331,43.3679583530304
133,1437146304795,43.5583106055431
134,1437146305267,44.4303218798877
135,1437146305667,47.0389495994863
136,1437146306138,45.6755293934782
137,1437146306630,46.1975935799387
138,1437146307179,45.3995456257687
139,1437146307661,44.0028321551646
140,1437146308134,43.6442496970487
141,1437146308633,44.3256662550185
142,1437146309142,43.8517348721422
143,1437146309631,44.7005483648838
144,1437146310154,44.6485801485178
145,1437146310614,43.7555119671642
146,1437146311083,45.0964724267472
147,1437146311561,44.3838985495838
148,1437146312052,42.8695644984682
149,1437146312446,41.9841726074849
150,1437146312877,44.7311027337628
151,1437146313342,45.1314160594924
152,1437146313836,44.280648130138
153,1437146314354,43.9314079808223
154,1437146314867,42.8469084762145
155,1437146315337,44.0516118419055
156,1437146315757,43.1102340097933
157,1437146316238,43.6875421901514
158,1437146316683,43.4181479378662
159,1437146317178,43.8813939055087
160,1437146317711,43.4755925046132
161,1437146318163,62.0306332039165
162,1437146318661,45.498732894269
163,1437146319143,43.5709064250453
164,1437146319653,44.5375907470652
165,1437146320143,51.5847439859581
166,1437146320679,56.3577378544109
167,1437146321154,44.2828093172732
168,1437146321549,41.792736464495
169,1437146321914,43.8541010148515
170,1437146322318,54.136454420138
171,1437146322677,46.1105367736978
172,1437146323133,48.1951098983408
173,1437146323612,49.5351342510577
174,1437146324071,45.4059346458576
175,1437146324538,59.1321763258791
176,1437146324983,55.5116825078915
177,1437146325559,45.1153247927468
178,1437146326070,56.3153846655349
179,1437146326507,45.3417053363267
180,1437146326975,49.263427611041
181,1437146327451,53.5604622616607
182,1437146327956,44.7678213688202
183,1437146328487,44.3426101318451
184,1437146328966,44.1103166455948
185,1437146329487,43.5065366398482
186,1437146330004,43.8410332573744
187,1437146330450,55.1885257427812
188,1437146330912,57.1769982767577
189,1437146331412,57.0219144945763
190,1437146331900,62.4193058935945
191,1437146332381,44.7600048008052
192,1437146332868,51.0104964734101
193,1437146333274,46.4809714841405
194,1437146333689,45.3327884330084
195,1437146334132,44.0068442103596
196,1437146334606,42.5207077789373
197,1437146335087,55.8772659736675
198,1437146335839,55.4626580292954
199,1437146336373,50.1439527586636
200,1437146336788,42.6357723439037
201,1437146337210,47.6003855487903
202,1437146337656,58.3483186991526
203,1437146338168,56.7678306890427
204,1437146338578,55.4766273324884
205,1437146339030,51.6900537910346
206,1437146339553,48.5230024269764
207,1437146340042,47.8488790684198
208,1437146340521,49.5244962331163
209,1437146340978,55.6917767180369
210,1437146341409,48.4478820641139
211,1437146341822,51.3979070896271
212,1437146342351,43.757452770454
213,1437146342748,43.5472122460821
214,1437146343099,46.6937965941678
215,1437146343557,42.9149800984273
216,1437146344029,49.1231548948274
217,1437146344511,46.2339325192652
218,1437146344980,47.8891644649336
219,1437146345431,45.2747891656153
220,1437146345910,45.00762154999
221,1437146346450,45.0400054353714
222,1437146346971,48.9800689544284
223,1437146347454,49.4279080003474
224,1437146347954,47.9761725004045
225,1437146348330,48.4992978906633
226,1437146348778,44.2529359518874
227,1437146349261,43.5331699431567
228,1437146349748,43.6339158693071
229,1437146350233,49.7461542714715
230,1437146350743,55.73023253682
231,1437146351242,56.8128763762408
232,1437146351738,48.6654892181399
233,1437146352230,42.7174701135061
234,1437146352719,45.0261344733476
235,1437146353187,41.6250992399175
236,1437146353634,44.695577868423
237,1437146354043,42.0379002907371
238,1437146354551,42.1614714586924
239,1437146355038,43.9935960575127
240,1437146355538,43.6421039323027
241,1437146356037,41.7907912249039
242,1437146356576,42.1394400450408
243,1437146357066,52.3851692960455
244,1437146357560,43.1206945939811
245,1437146358071,43.1594902852864
246,1437146358493,45.6015924201066
247,1437146358950,55.0407283270163
248,1437146359422,45.1114487661883
249,1437146359951,49.0714470306986
250,1437146360437,49.9928402679052
251,1437146360907,46.9937670978795
252,1437146361403,47.0166932639297
253,1437146361895,42.5154816706578
254,1437146362368,44.9938084204151
255,1437146362794,41.2643177588171
256,1437146363245,43.0199456817793
257,1437146363697,42.4417768191457
258,1437146364121,41.4328149986773
259,1437146364640,44.0450148383029
260,1437146365115,41.4197249833908
261,1437146365582,43.0769002008089
262,1437146366060,46.3406462586255
263,1437146366556,51.1698140198486
264,1437146367092,49.9822935637148
265,1437146367503,50.6078526419556
266,1437146367993,43.8162232325306
267,1437146368435,43.2943747692741
268,1437146368922,43.574175827565
269,1437146369411,44.9221400457699
270,1437146369911,59.0332121353645
271,1437146370416,52.1076685693935
272,1437146370891,60.1344677850948
273,1437146371406,43.729803484093
274,1437146371905,45.6563156396717
275,1437146372393,47.9056314263557
276,1437146372906,45.2783637830211
277,1437146373424,46.9470262630208
278,1437146373837,41.9840486930337
279,1437146374263,41.9174967539045
280,1437146374752,53.3198393939809
281,1437146375231,55.5483879784408
282,1437146375717,53.5302324556444
283,1437146376205,47.637691262599
284,1437146376682,44.0860256219165
285,1437146377157,46.2781978078727
286,1437146377565,48.5708147876331
287,1437146378065,42.8944621212102
288,1437146378557,43.085695143639
289,1437146379041,42.5939203443179
290,1437146379517,41.7531018329421
291,1437146379911,42.151174560057
292,1437146380314,43.3999122546748
293,1437146380790,42.9143202852664
294,1437146381272,46.7071252859755
295,1437146381768,48.4104551411458
296,1437146382260,54.2892135907455
297,1437146382728,59.3761116866715
298,1437146383197,57.6907270370377
299,1437146383648,44.3864010620255
300,1437146383979,41.781984685141
301,1437146384421,43.5410142651023
302,1437146384867,43.0983195756616
303,1437146385354,45.3419800678277
304,1437146385872,47.4884483139569
305,1437146386375,44.3989877535428
306,1437146386898,47.9207549516052
307,1437146387348,42.6932094314282
308,1437146387801,48.047951513111
309,1437146388291,47.4234972552798
310,1437146388781,46.1056884092102
311,1437146389274,42.2981039147327
312,1437146389752,41.543357518138
313,1437146390247,43.3778262186535
314,1437146390701,47.7474682754258
315,1437146391178,47.9445780680396
316,1437146391657,47.4513852589127
317,1437146392149,56.3259055304771
318,1437146392644,45.3725947554451
319,1437146393123,42.5427929577854
320,1437146393611,48.4734973406191
321,1437146394085,46.6497319200636
322,1437146394464,46.9981961521747
323,1437146394879,48.5150506044059
324,1437146395330,44.1929830785344
325,1437146395858,44.7450750079022
326,1437146396293,43.0865365164876
327,1437146396805,45.2135586949069
328,1437146397228,43.3880938641208
329,1437146397554,41.4292713464447
330,1437146398005,42.8229471868945
331,1437146398476,45.9288810804743
332,1437146398967,57.2170151865888
333,1437146399574,46.8825474510265
334,1437146399956,43.0742244313856
335,1437146400356,42.2895709766616
336,1437146400811,42.5918817776025
337,1437146401286,42.8600634771578
338,1437146401798,43.4160459550277
339,1437146402291,45.1847397727648
340,1437146402773,43.6158377892753
341,1437146403257,43.4074009321551
342,1437146403708,59.0948894303662
343,1437146404120,43.2439207897393
344,1437146404518,40.9795163390031
345,1437146404983,41.2653815144779
346,1437146405421,48.338610135444
347,1437146405900,51.4451352521354
348,1437146406411,47.8436460087397
349,1437146406848,42.619535067271
350,1437146407339,42.8581504658576
351,1437146407795,43.9068683271312
352,1437146408239,48.6142480206683
353,1437146408684,43.1700729862896
354,1437146409172,43.1584021527276
355,1437146409672,41.8887218404841
356,1437146410148,40.3351348141366
357,1437146410639,44.1957762632678
358,1437146411144,43.8260418077457
359,1437146411651,45.6660203129961
360,1437146412182,41.8815089664645
361,1437146412673,43.450438216125
362,1437146413172,56.0417296923394
363,1437146413672,50.6136265392804
364,1437146414184,58.6968117489899
365,1437146414672,51.4146924421048
366,1437146415070,45.7773339337519
367,1437146415488,42.1603506300426
368,1437146415962,49.9487354585067
369,1437146416478,45.0761454720597
370,1437146416962,40.8556234794843
371,1437146417487,43.3333632035681
372,1437146418008,41.8566644969643
373,1437146418468,47.8907985959644
374,1437146418925,41.1326018154605
375,1437146419411,41.3497903206925
376,1437146419860,41.4954407771593
377,1437146420307,41.863355999145
378,1437146420771,41.6088440052452
379,1437146421246,63.441765204235
380,1437146421741,61.8680360228393
381,1437146422208,48.292873443966
382,1437146422627,53.2100243027471
383,1437146423111,43.3783512627226
384,1437146423590,39.4660262611751
385,1437146424049,42.3982372282574
386,1437146424489,46.551541798585
387,1437146425005,47.0849811487072
388,1437146425522,46.5415254573472
389,1437146425944,43.2086371606881
390,1437146426412,41.2484293985547
391,1437146426935,41.9147556291496
392,1437146427405,41.9268135481237
393,1437146427919,45.5621018612686
394,1437146428312,48.8546137701453
395,1437146428789,44.5046877929209
396,1437146429267,44.5837208759574
397,1437146429731,52.6428752631996
398,1437146430145,46.3705493507962
399,1437146430603,43.6681191882028
400,1437146431073,43.7943689377018
401,1437146431579,45.3019737632253
402,1437146432059,46.6324804993053
403,1437146432583,43.3065666262152
404,1437146433095,49.8525305892975
405,1437146433608,47.1958483473728
406,1437146434094,45.5282530307941
407,1437146434593,51.7422371846737
408,1437146435073,45.4775563161954
409,1437146435542,46.3343864031157
410,1437146435970,49.4234718356678
411,1437146436424,49.6094699473642
412,1437146436948,46.8506438155712
413,1437146437451,53.1385528067332
414,1437146437935,49.9503012120076
415,1437146438394,50.0622465669127
416,1437146438893,47.083155295865
417,1437146439334,46.0775606055284
418,1437146439771,44.8226130981803
419,1437146440188,43.2407106030976
420,1437146440651,45.3942998709532
421,1437146441110,43.9165131059099
422,1437146441603,43.4653924931103
423,1437146442100,43.5399193779399
424,1437146442637,47.3815927131366
425,1437146443101,54.6349198385947
426,1437146445469,54.8825730171002
427,1437146445873,50.7141504014318
428,1437146446325,45.8239637137545
429,1437146446827,43.3141725852074
430,1437146447361,47.4639889366961
431,1437146447872,46.2647769972039
432,1437146448241,56.7544059395133
433,1437146448678,49.2112485432229
434,1437146449135,41.5906456825335
435,1437146449630,42.4156497266741
436,1437146450115,41.8057936148746
437,1437146450635,63.3431296109875
438,1437146451130,46.6082334004415
439,1437146451625,49.6282706667437
440,1437146452111,45.1235819172292
441,1437146452602,46.378179245295
442,1437146453027,49.2046894381827
443,1437146454624,45.3183532670251
444,1437146455081,42.5977194393361
445,1437146455602,41.985510799198
446,1437146456056,51.6596566654132
447,1437146456445,43.2837764828187
448,1437146456875,45.1432336765193
449,1437146457290,48.7496693554227
450,1437146457749,48.2220872823235
451,1437146458193,44.9450598557862
452,1437146458668,48.8729492479472
453,1437146459149,45.43548061021
454,1437146459667,42.0863135161163
455,1437146460148,43.1624972671767
456,1437146460559,52.4656736991971
457,1437146461024,61.8650337338622
458,1437146461502,42.0972485780728
459,1437146461986,49.186866247429
460,1437146462465,47.0351649328614
461,1437146462952,44.0601565541356
462,1437146463428,42.5430718841031
463,1437146463895,56.5875298001493
464,1437146464354,51.7307806882758
465,1437146464778,42.1216821103368
466,1437146465224,45.6632514155864
467,1437146465686,47.5440358885654
468,1437146466145,55.5849432927238
469,1437146466532,44.3198973915554
470,1437146466999,44.2674865433303
471,1437146467492,51.781506652496
472,1437146467936,47.4460612173007
473,1437146469501,44.8999759991548
474,1437146469963,60.9289443109109
475,1437146470460,52.5301108458688
476,1437146471010,58.9450645468091
477,1437146471499,61.326715632738
478,1437146472020,55.3166877654191
479,1437146472508,50.0953746499001
480,1437146472991,49.5095409484195
481,1437146473510,55.6419256016646
482,1437146474014,47.7649474808479
483,1437146474492,51.0947941322264
484,1437146474967,53.23685846728
485,1437146475493,47.2922339126103
486,1437146475938,43.4036267917883
487,1437146476341,43.2814157110447
488,1437146476758,42.7063765279646
489,1437146477173,52.540932507674
490,1437146478640,45.3141352518307
491,1437146479027,41.7070374280254
492,1437146479513,44.0322455957226
493,1437146480004,43.3108270199296
494,1437146480509,47.2398433687977
495,1437146480887,51.1220962685931
496,1437146481304,43.4707233330963
497,1437146481751,50.4216082405734
498,1437146482241,53.2665146652582
499,1437146482741,48.8238442624234
500,1437146483252,42.9317756754851
501,1437146483752,51.0535782715306
502,1437146484258,55.1304792006467
503,1437146484762,44.4717486770588
504,1437146485230,45.3640159085619
505,1437146485690,56.6950808043484
506,1437146486154,45.5139583855294
507,1437146486584,46.3027884071789
508,1437146487052,47.2640210099207
509,1437146487524,47.2446848785376
510,1437146488020,45.3115448782659
511,1437146488508,47.0544992624408
512,1437146489013,46.0202635116554
513,1437146489423,51.0156194184591
514,1437146489899,47.0242359124969
515,1437146490255,45.1522155009805
516,1437146490621,43.9238549688683
517,1437146491041,48.8481305771193
518,1437146491435,47.1200985892845
519,1437146491862,49.1880841690663
520,1437146492314,49.2368802375569
521,1437146492796,44.2834078038747
522,1437146493216,43.3299364104505
523,1437146493651,45.2231897511811
524,1437146494108,46.5917356671292
525,1437146494597,42.0403700558295
526,1437146495032,42.457892505196
527,1437146495438,42.5399297129358
528,1437146495867,56.1564493138707
529,1437146496354,63.3320754273796
530,1437146496764,52.1357555055487
531,1437146497198,52.937610370973
532,1437146497672,49.1849973735222
533,1437146498146,45.8043088402599
534,1437146498632,57.6661318962667
535,1437146499123,45.1334510917371
536,1437146499611,48.2891413272707
537,1437146500092,47.8176554034625
538,1437146500523,48.0477616263843
539,1437146500954,50.3361380085549
540,1437146501450,44.9135130398869
541,1437146501916,49.8384161434975
542,1437146502392,42.4599679160096
543,1437146502887,42.9453670984924
544,1437146503354,42.114342224049
545,1437146503858,42.9601229301626
546,1437146504323,53.7824452297129
547,1437146504810,46.7733769996609
548,1437146505248,42.2420354128899
549,1437146505749,48.1466367777478
550,1437146506241,44.1457018106032
551,1437146506722,47.9944729425438
552,1437146507187,44.7828584392013
553,1437146507609,43.5836650472515
554,1437146508049,52.2384110305926
555,1437146508563,59.8331359191828
556,1437146509010,46.2316608904179
557,1437146509406,44.819242192834
558,1437146509837,58.6393780779505
559,1437146510309,52.5046180709215
560,1437146510779,44.3798886703484
561,1437146511292,41.5954905995723
562,1437146511837,42.9132593546462
563,1437146512243,41.2540195775502
564,1437146512588,40.5035876942865
565,1437146513027,41.0073803277172
566,1437146513507,40.4922815225665
567,1437146513994,47.8932031359088
568,1437146514473,54.9272539145781
569,1437146514978,43.2799041304649
570,1437146515472,47.3793948390362
571,1437146516009,48.954923346822
572,1437146516511,56.8313927208882
573,1437146516989,69.4738886166365
574,1437146517397,64.935501145073
575,1437146517836,48.3560761844434
