id,attr_time,attr_db
1,1437146239518,47.700134004708
2,1437146240021,66.8425694031268
3,1437146240481,58.9674295066981
4,1437146240839,51.8474754156153
5,1437146241288,62.7161123797488
6,1437146241809,62.032738211567
7,1437146242333,54.0000590011672
8,1437146242775,47.6924278291434
9,1437146243280,56.4635359251165
10,1437146243787,43.1020542850746
11,1437146244286,45.123325635248
12,1437146244775,45.3239391164945
13,1437146245285,43.3785275022506
14,1437146245718,43.3959465270324
15,1437146246176,41.6145577068543
16,1437146246647,53.2296534329274
17,1437146247132,53.7894880474129
18,1437146247621,43.7852483349622
19,1437146248101,42.3445707954731
20,1437146248618,43.2054596830281
21,1437146249115,44.5766111482459
22,1437146249611,62.2869006805994
23,1437146250092,44.5641759963717
24,1437146250574,41.674747426445
25,1437146251085,68.6747394461373
26,1437146251461,55.891306479182
27,1437146251878,60.2698117266061
28,1437146252320,60.9949118420289
29,1437146252810,45.12604992679
30,1437146253341,60.2078657344594
31,1437146253832,47.0261395976785
32,1437146254331,44.2155046534054
33,1437146254835,47.2337794612559
34,1437146255310,43.319599442609
35,1437146255821,44.0015922258619
36,1437146256319,45.5478819145638
37,1437146256811,44.0005482014525
38,1437146257346,44.3183490741652
39,1437146257834,43.4413493009875
40,1437146258366,43.1769950206451
41,1437146258850,44.2830503373017
42,1437146259332,45.3299682481084
43,1437146259813,58.2452127843783
44,1437146260297,46.8958053404143
45,1437146260682,45.1727780771962
46,1437146261105,47.6806706019756
47,1437146261528,58.7413776494559
48,1437146261968,49.2482887440696
49,1437146262418,52.5323472407605
50,1437146262920,49.1557672400499
51,1437146263403,42.8177800812839
52,1437146263920,44.50596892926
53,1437146264400,47.1462621560377
54,1437146264904,54.6995877127962
55,1437146265387,51.6709786418337
56,1437146265857,50.2449081112126
57,1437146266339,47.6842087922908
58,1437146266789,47.2012696069925
59,1437146267205,45.8544872857387
60,1437146267648,59.6694557805171
61,1437146268105,43.7920025361144
62,1437146268600,51.7605833084529
63,1437146269069,48.5944352365705
64,1437146269543,43.1945609400632
65,1437146270027,42.8582102637714
66,1437146270510,42.9547544941075
67,1437146271002,64.196031640101
68,1437146271537,50.6208530438261
69,1437146272019,42.1970521441606
70,1437146272477,51.7807793006768
71,1437146272910,43.6192513029865
72,1437146273396,41.503962132458
73,1437146273879,55.3242562414414
74,1437146274348,64.5904742228467
75,1437146274848,55.4077278424777
76,1437146275329,41.6017320954707
77,1437146275821,44.1436626107306
78,1437146276309,47.3904610421823
79,1437146276794,43.8743323813552
80,1437146277271,63.0515137896188
81,1437146277702,46.7697066273657
82,1437146278223,44.4982016780617
83,1437146278697,44.3112257592659
84,1437146279209,43.2028651974285
85,1437146279699,52.9263493169854
86,1437146280215,47.7837469661895
87,1437146280710,58.7504738521005
88,1437146281236,58.6985582669858
89,1437146281729,57.3130423776559
90,1437146282224,58.6336067937573
91,1437146282752,44.3165623450307
92,1437146283132,58.4380087553701
93,1437146283572,51.3115804091601
94,1437146284023,50.1887935263
95,1437146284493,51.1608653820168
96,1437146284984,46.3186157567544
97,1437146285459,67.8243970961304
98,1437146285966,60.1492329301291
99,1437146286437,43.8619085915697
100,1437146286920,43.1120054557769
101,1437146287420,53.4936267610973
102,1437146287903,46.2768600783117
103,1437146288352,43.6898113767679
104,1437146288817,45.7119534486465
105,1437146289299,44.7001826599143
106,1437146289757,48.0630047774494
107,1437146290160,54.8832654152895
108,1437146290580,46.5201460989538
109,1437146291030,43.8817933119129
110,1437146291524,42.6495028142038
111,1437146292037,43.8385341722748
112,1437146292523,43.487749240762
113,1437146293003,45.2650620438582
114,1437146293484,43.6355966421279
115,1437146293989,43.5887670357175
116,1437146294473,45.1295898233651
117,1437146294953,46.3731235584836
118,1437146295422,54.0487840511215
119,1437146295895,51.1528024653912
120,1437146296381,48.2177281099991
121,1437146296875,51.2046358034037
122,1437146297352,51.7206539395162
123,1437146297853,64.9110116947389
124,1437146298337,46.318871321862
125,1437146298824,43.8970727640505
126,1437146299302,43.7799408086036
127,1437146299806,45.4109214144264
128,1437146300301,46.8884788291685
129,1437146300800,63.6442921436009
130,1437146301321,45.7998963061918
131,1437146301801,44.4693947535921
132,1437146302309,59.8986024926327
133,1437146302784,45.2657182967088
134,1437146303182,44.540530032784
135,1437146303629,44.0102178370882
136,1437146304082,44.3116537850578
137,1437146304583,43.7649411528069
138,1437146305047,54.0689441654664
139,1437146305518,45.8426606342899
140,1437146306012,48.1481288393314
141,1437146306510,45.8919750132125
142,1437146306980,44.4250100898603
143,1437146307461,44.2540458677622
144,1437146307951,46.015774697661
145,1437146308436,44.9810829788001
146,1437146308926,44.6214754223885
147,1437146309402,46.8591743037793
148,1437146309890,45.4637162380113
149,1437146310361,45.6595443368515
150,1437146310848,43.9650346645745
151,1437146311347,44.3904888737969
152,1437146311738,43.6961422467757
153,1437146312182,43.3803268402145
154,1437146312619,44.6092418327717
155,1437146313071,44.099053456845
156,1437146313575,44.4647878141071
157,1437146314061,43.6214850571921
158,1437146314540,42.9488310605431
159,1437146315031,43.4065959899362
160,1437146315527,42.9777037591457
161,1437146316034,44.0248159867675
162,1437146316515,43.6509771242691
163,1437146316991,43.5130533346081
164,1437146317495,66.1017189634535
165,1437146317970,50.5999563013563
166,1437146318478,46.8020197471127
167,1437146318955,43.2405550300992
168,1437146319447,49.2114372114244
169,1437146319938,55.4800990331507
170,1437146320510,43.8708360953483
171,1437146320848,44.7075384676962
172,1437146321284,44.6620181565449
173,1437146321742,54.6053776572108
174,1437146322236,47.0172224246818
175,1437146322699,62.5815379446372
176,1437146323177,62.7590391793541
177,1437146323611,60.6196229970653
178,1437146323951,54.4608404317691
179,1437146324408,60.4376161353933
180,1437146324897,45.5565527069848
181,1437146325409,62.0294811627615
182,1437146325887,50.0354873454466
183,1437146326347,56.5878191541296
184,1437146326834,54.8223149370812
185,1437146327312,45.1568413772637
186,1437146327801,44.4848836787098
187,1437146328302,44.1968106649451
188,1437146328788,43.345957889956
189,1437146329287,44.4343624841554
190,1437146329722,44.9723623217806
191,1437146330162,57.7565068297615
192,1437146330652,64.1834060794219
193,1437146331149,67.2219069805478
194,1437146331640,50.65814863673
195,1437146332120,44.8790057059135
196,1437146332638,47.0659595773652
197,1437146333172,43.3440609091058
198,1437146333614,44.1995043223563
199,1437146334035,47.8137876321689
200,1437146334487,49.0312504600687
201,1437146334995,63.0325389397054
202,1437146335476,46.237502030433
203,1437146335996,43.6729688429669
204,1437146336466,61.0566567845166
205,1437146336975,63.7116465260274
206,1437146337458,64.7696261411671
207,1437146337950,62.9854978930023
208,1437146338421,57.2389390587861
209,1437146338915,52.0388465873335
210,1437146339425,56.4839918760808
211,1437146339871,50.9295998015044
212,1437146340344,58.041691563811
213,1437146340822,48.0669338873163
214,1437146341292,60.9944056506113
215,1437146341734,42.6663835196414
216,1437146342146,45.9362482071427
217,1437146342619,44.6794243978719
218,1437146343128,55.9102893445193
219,1437146343501,51.6744219595718
220,1437146343874,49.7434478948883
221,1437146344323,58.055941483557
222,1437146344807,52.4542225608504
223,1437146345341,50.6085624225055
224,1437146345849,45.8506086318658
225,1437146346341,61.2744628953252
226,1437146346921,53.456369143903
227,1437146347367,57.8835881695676
228,1437146347798,51.3917539973274
229,1437146348243,44.8973288597616
230,1437146348737,43.6756109265274
231,1437146349208,43.0361544222517
232,1437146349673,58.8035044264457
233,1437146350159,48.5443117819893
234,1437146350688,48.0522852295444
235,1437146351161,51.7951934280924
236,1437146351660,42.2081809234614
237,1437146352161,54.469340401023
238,1437146352649,43.1942452877062
239,1437146353159,43.7823533147798
240,1437146353649,56.8124471376615
241,1437146354125,56.9965647437377
242,1437146354609,44.2626283881308
243,1437146354975,43.0641508891915
244,1437146355430,42.5017857965039
245,1437146355912,42.2998529020513
246,1437146356416,48.6949186593716
247,1437146356912,45.3303650037401
248,1437146357392,41.3307444664259
249,1437146357865,44.461872686871
250,1437146358323,63.2092409526548
251,1437146358770,46.9276725807701
252,1437146359269,47.0792745050528
253,1437146359777,64.3910104506446
254,1437146360289,44.2449540497911
255,1437146360827,58.3365063716231
256,1437146361328,43.3643345174691
257,1437146361838,60.4169690240412
258,1437146362340,42.8289538324899
259,1437146362845,44.3107971970979
260,1437146363357,43.5562537815899
261,1437146363782,54.6272129325349
262,1437146364232,46.6214445408952
263,1437146364740,52.5496358626971
264,1437146365251,61.0239645082755
265,1437146365732,47.5435849696665
266,1437146366222,56.8003326989046
267,1437146366715,49.4712477475937
268,1437146367237,43.8183293318247
269,1437146367739,43.8494911964772
270,1437146368338,43.8419206143969
271,1437146368837,64.7021148137566
272,1437146369342,51.403431553177
273,1437146369844,55.2741856261766
274,1437146370292,46.9288273056589
275,1437146370694,43.169528708958
276,1437146371147,46.0631934685891
277,1437146371635,59.9163541622559
278,1437146372108,55.9801002617462
279,1437146372588,48.2668700732347
280,1437146373077,44.8585319645949
281,1437146373568,42.3539141615965
282,1437146374022,62.1858299658047
283,1437146374515,59.11789165769
284,1437146374979,58.200557064458
285,1437146375461,48.5658147680831
286,1437146375943,49.4887732850032
287,1437146376430,56.0400276595971
288,1437146376912,44.3952431705882
289,1437146377392,45.1732899392543
290,1437146377893,44.5255974601908
291,1437146378447,43.5207301169716
292,1437146378921,41.7720349176651
293,1437146379409,42.6645941505931
294,1437146379910,44.7923085517391
295,1437146380384,44.7262482994548
296,1437146380868,46.8183656268843
297,1437146381361,44.2972739941476
298,1437146381848,65.3437979291264
299,1437146382358,59.3742335078212
300,1437146382862,45.1046694150932
301,1437146383334,44.0810626540068
302,1437146383797,45.1713249722197
303,1437146384310,43.8885407607132
304,1437146384784,51.750941217385
305,1437146385270,49.2101806993609
306,1437146385768,45.8536634108022
307,1437146386302,59.5995309476616
308,1437146386791,44.5046593920924
309,1437146387296,55.7976512374596
310,1437146387807,57.5020109909375
311,1437146388317,44.0393773918742
312,1437146388817,44.1844446951933
313,1437146389338,45.1925382683523
314,1437146389823,56.4362732446316
315,1437146390300,54.527211063707
316,1437146390783,54.2695333413845
317,1437146391300,58.1279730878528
318,1437146391787,48.8215535432511
319,1437146392291,44.9902089400188
320,1437146392769,47.7457386266424
321,1437146393310,44.4475786583259
322,1437146393823,47.9408132784257
323,1437146394300,46.0724192733742
324,1437146394821,43.2700083281365
325,1437146395312,46.240861894985
326,1437146395813,45.352936850232
327,1437146396330,47.0003257324359
328,1437146396823,44.4085136611894
329,1437146397298,44.2859175549595
330,1437146397696,48.0414423836977
331,1437146398100,52.2598042055664
332,1437146398586,48.2164626931799
333,1437146399077,44.1948159752962
334,1437146399589,44.2621504410065
335,1437146400049,42.9527930825343
336,1437146400529,44.01507216742
337,1437146401032,43.5157259763964
338,1437146401547,43.2770283354846
339,1437146402022,46.0297563776979
340,1437146402377,44.4272041342443
341,1437146402846,47.9126613949369
342,1437146403372,44.7451903828775
343,1437146403826,43.6254989638255
344,1437146404256,42.9720720325097
345,1437146404730,46.120559970023
346,1437146405217,57.9682361225668
347,1437146405717,47.9122691689742
348,1437146406202,43.3759364606234
349,1437146406721,51.2691494794348
350,1437146407212,45.7616819090131
351,1437146407656,63.7707597823294
352,1437146409002,44.3779136833851
353,1437146409450,45.0895902732683
354,1437146409896,45.4248203123411
355,1437146410347,43.6305181565706
356,1437146410835,45.9547729982445
357,1437146411270,53.0489254593812
358,1437146411713,43.7557117037374
359,1437146412173,44.9196113687989
360,1437146412620,59.8429593598744
361,1437146413088,47.6493572188544
362,1437146413582,54.3908763873835
363,1437146414075,50.3650803876345
364,1437146414501,44.199098739733
365,1437146414958,42.7694120656139
366,1437146415421,62.5046273758532
367,1437146415970,42.7981817689181
368,1437146416468,53.443304160546
369,1437146416972,41.9181145980669
370,1437146417459,43.0977408996196
371,1437146417931,42.4067806164272
372,1437146419480,42.330393622083
373,1437146419917,42.4768538357108
374,1437146420376,57.9464777967569
375,1437146420866,59.0767893924576
376,1437146421346,49.2854897543796
377,1437146421825,59.6160977464117
378,1437146422309,42.9732432434246
379,1437146422802,43.761815801858
380,1437146423311,42.5502357802558
381,1437146423771,50.682029828307
382,1437146424234,50.998841231292
383,1437146424742,44.7900136601418
384,1437146425248,42.8506409918353
385,1437146425632,41.8828491722765
386,1437146426129,41.465974835306
387,1437146426610,43.2278770605401
388,1437146427101,52.862731103096
389,1437146427508,46.6250178242307
390,1437146427938,49.0817397101335
391,1437146428396,54.3194085818691
392,1437146428859,51.3364331934402
393,1437146429313,48.3534815273401
394,1437146429783,44.9282524631928
395,1437146430250,45.6486632688572
396,1437146430737,43.5988833899317
397,1437146431256,49.4349679981319
398,1437146431776,44.4546357867843
399,1437146432296,44.9259856348383
400,1437146432761,55.2927797245632
401,1437146434103,59.3610303293288
402,1437146434549,48.7852499258408
403,1437146435044,47.9781203578736
404,1437146435440,57.6596059280571
405,1437146435865,50.998830807867
406,1437146436336,51.2685146150363
407,1437146436837,53.4073345468145
408,1437146437323,52.3588313259541
409,1437146437828,49.2059392604397
410,1437146438309,55.2040477232143
411,1437146438815,47.5611693792141
412,1437146439279,47.6682708467806
413,1437146439712,46.3471583779333
414,1437146440181,46.7056786262779
415,1437146440659,45.0614319219704
416,1437146441147,45.0645266329375
417,1437146441627,52.7801555889461
418,1437146442094,48.8769395359832
419,1437146443292,44.4559695413347
420,1437146443713,54.0930815736566
421,1437146444143,43.0529439090845
422,1437146444580,45.4356853998061
423,1437146445017,52.936105668525
424,1437146445496,50.9891498030883
425,1437146445982,50.7767616448716
426,1437146446468,55.0114473169394
427,1437146446980,58.0236952205603
428,1437146447476,47.1710853544915
429,1437146448008,51.1122609051149
430,1437146448510,43.9651625114616
431,1437146449001,44.1214022973004
432,1437146449483,42.7745922163925
433,1437146449948,66.2031123486799
434,1437146450368,51.945862018863
435,1437146450772,53.6121362974725
436,1437146451231,61.300729288247
437,1437146451711,63.5757312073671
438,1437146452242,54.2736882981809
439,1437146452723,60.3051453228158
440,1437146453248,58.4731629269015
441,1437146453738,45.5844868991505
442,1437146454219,41.9656554455062
443,1437146454632,42.9581379554563
444,1437146455092,43.4984060830147
445,1437146455526,44.071120986236
446,1437146456006,42.1654407866216
447,1437146456479,46.8453995243382
448,1437146456997,46.3676286229284
449,1437146457480,47.2031360700115
450,1437146457971,54.0338202724448
451,1437146458462,45.0321626671756
452,1437146458973,43.4597904016842
453,1437146459448,44.3015944115695
454,1437146459957,58.2388402661031
455,1437146460470,50.0483538200502
456,1437146460878,46.7085393545285
457,1437146461267,50.2886737478175
458,1437146461766,48.1624116267456
459,1437146462271,46.5424191146689
460,1437146462781,43.8369485752779
461,1437146463281,56.9253718281784
462,1437146463822,45.0603291195374
463,1437146464314,44.970746232905
464,1437146464653,45.1112355405898
465,1437146465122,50.5427425012973
466,1437146465608,54.4196869273128
467,1437146466100,45.3194037826684
468,1437146466574,51.5859154141471
469,1437146467079,48.1624653280841
470,1437146467449,45.0738759598466
471,1437146467790,51.2557066275455
472,1437146468178,46.169319600229
473,1437146468676,42.1151643840445
474,1437146469170,61.9981023445351
475,1437146469680,65.1093685822431
476,1437146470171,63.5053870573514
477,1437146470618,55.1984351897506
478,1437146471024,49.3213078433753
479,1437146471461,60.0550045535528
480,1437146471932,57.8489980497989
481,1437146472423,59.3658497375856
482,1437146472918,65.2951525425347
483,1437146473421,53.5070882780997
484,1437146473892,58.5765362706969
485,1437146474378,55.2413066181897
486,1437146474891,48.3853067759537
487,1437146475397,44.1750173100456
488,1437146475885,43.5010454906435
489,1437146476329,56.2363181273339
490,1437146476794,54.9632382739591
491,1437146477284,62.332049887416
492,1437146477790,48.0058723601316
493,1437146478271,44.3831319717029
494,1437146478756,43.2518280452734
495,1437146479260,43.0517887310951
496,1437146479738,65.8926270476513
497,1437146480229,55.068598554709
498,1437146480713,45.9205649711296
499,1437146481180,48.5923174978475
500,1437146481570,63.550338839504
501,1437146481977,46.6545449315345
502,1437146482441,44.8267819360166
503,1437146482959,55.6723804133251
504,1437146483476,51.9204456807721
505,1437146483965,49.2796886895464
506,1437146484429,51.9372291695754
507,1437146484932,56.9427849515693
508,1437146485392,51.4238540224801
509,1437146485888,46.5951923386244
510,1437146486370,48.6564741376278
511,1437146486880,50.6762729035204
512,1437146487399,45.4361910843586
513,1437146487890,55.6086319260357
514,1437146488435,46.0853642760194
515,1437146488922,49.1635038751878
516,1437146489429,47.6238150865265
517,1437146489839,45.8208389589013
518,1437146490339,55.5880892203888
519,1437146490834,51.364969082875
520,1437146491275,45.5394871376168
521,1437146491683,46.5858557944024
522,1437146492123,45.3081943848619
523,1437146492569,45.055769960243
524,1437146493031,49.0092640453872
525,1437146493569,44.7842106652419
526,1437146494065,43.2691175482418
527,1437146494546,43.3045412043016
528,1437146495025,42.4724042738293
529,1437146495508,64.1397041148695
530,1437146495979,67.553766212082
531,1437146496507,54.4191369511456
532,1437146496923,55.9939235086023
533,1437146497428,53.0083936778514
534,1437146497921,60.3209934186069
535,1437146498401,45.5643453932329
536,1437146498912,52.8500062463698
537,1437146499362,48.3535547735384
538,1437146499780,51.0116647345578
539,1437146500252,57.0306095461331
540,1437146500741,45.1855574525809
541,1437146501219,52.4437984363151
542,1437146501703,43.9305283527336
543,1437146502162,43.4928419913825
544,1437146502612,43.5542707701767
545,1437146503096,42.7898669362673
546,1437146503629,52.8935608453733
547,1437146504101,53.0633348235651
548,1437146504585,43.5752553636294
549,1437146505051,52.0870869027532
550,1437146505488,44.7183820034563
551,1437146505978,58.9262843613433
552,1437146506497,49.7339577574165
553,1437146506990,44.1268718400927
554,1437146507507,58.4345161676916
555,1437146507979,47.1245703979906
556,1437146508441,48.1627866984128
557,1437146508923,46.5334458845436
558,1437146509433,54.0182106899359
559,1437146509792,45.9367112551112
560,1437146510157,48.4598312719002
561,1437146510578,42.6927152476692
562,1437146511061,42.472988441452
563,1437146511550,42.0134675553867
564,1437146511938,40.8458215625773
565,1437146512379,42.5452103978688
566,1437146512846,41.0856723751974
567,1437146513327,59.3184911038567
568,1437146513800,59.8761984364699
569,1437146514301,52.0542376593456
570,1437146514787,53.4185778669221
571,1437146515272,51.3147586266133
572,1437146515766,47.805107090632
573,1437146516272,65.5718713677817
574,1437146516703,66.8748638950489
575,1437146517179,52.4872143713487
