id,attr_time,attr_light
1,1436542100016,3.0
2,1436542100037,3.0
3,1436542100056,3.0
4,1436542100080,3.0
5,1436542100095,3.0
6,1436542100118,3.0
7,1436542100137,3.0
8,1436542100155,3.0
9,1436542100175,3.0
10,1436542100199,3.0
11,1436542100215,3.0
12,1436542100237,3.0
13,1436542100257,3.0
14,1436542100278,3.0
15,1436542100298,3.0
16,1436542100317,3.0
17,1436542100336,3.0
18,1436542100360,3.0
19,1436542100378,3.0
20,1436542100398,3.0
21,1436542100420,3.0
22,1436542100436,3.0
23,1436542100456,3.0
24,1436542100476,3.0
25,1436542100501,3.0
26,1436542100516,3.0
27,1436542100544,3.0
28,1436542100556,3.0
29,1436542100576,3.0
30,1436542100596,3.0
31,1436542100620,3.0
32,1436542100639,3.0
33,1436542100657,3.0
34,1436542100678,3.0
35,1436542100698,3.0
36,1436542100717,3.0
37,1436542100738,3.0
38,1436542100759,3.0
39,1436542100779,3.0
40,1436542100798,3.0
41,1436542100820,3.0
42,1436542100839,3.0
43,1436542100859,3.0
44,1436542100881,3.0
45,1436542100899,3.0
46,1436542100920,3.0
47,1436542100938,3.0
48,1436542100958,3.0
49,1436542100978,3.0
50,1436542101029,3.0
51,1436542101032,3.0
52,1436542101046,3.0
53,1436542101071,3.0
54,1436542101077,3.0
55,1436542101111,3.0
56,1436542101118,3.0
57,1436542101143,3.0
58,1436542101157,3.0
59,1436542101179,3.0
60,1436542101200,3.0
61,1436542101220,3.0
62,1436542101238,3.0
63,1436542101258,3.0
64,1436542101278,3.0
65,1436542101302,3.0
66,1436542101321,3.0
67,1436542101342,3.0
68,1436542101361,3.0
69,1436542101378,3.0
70,1436542101397,3.0
71,1436542101417,3.0
72,1436542101441,3.0
73,1436542101460,3.0
74,1436542101516,3.0
75,1436542101621,3.0
76,1436542101622,3.0
77,1436542101623,3.0
78,1436542101624,3.0
79,1436542101625,3.0
80,1436542101626,3.0
81,1436542101627,3.0
82,1436542101722,3.0
83,1436542101723,3.0
84,1436542101724,3.0
85,1436542101725,3.0
86,1436542101726,3.0
87,1436542101737,3.0
88,1436542101762,3.0
89,1436542101781,3.0
90,1436542101801,3.0
91,1436542101821,3.0
92,1436542101841,3.0
93,1436542101859,3.0
94,1436542101879,3.0
95,1436542101899,3.0
96,1436542101921,3.0
97,1436542101940,3.0
98,1436542101961,3.0
99,1436542101979,3.0
100,1436542102007,3.0
101,1436542102067,3.0
102,1436542102068,3.0
103,1436542102069,3.0
104,1436542102088,3.0
105,1436542102099,3.0
106,1436542102120,3.0
107,1436542102147,3.0
108,1436542102158,3.0
109,1436542102182,3.0
110,1436542102198,3.0
111,1436542102219,3.0
112,1436542102241,3.0
113,1436542102258,3.0
114,1436542102279,3.0
115,1436542102298,3.0
116,1436542102319,3.0
117,1436542102344,3.0
118,1436542102364,3.0
119,1436542102384,3.0
120,1436542102402,3.0
121,1436542102419,3.0
122,1436542102438,3.0
123,1436542102464,3.0
124,1436542102481,3.0
125,1436542102499,3.0
126,1436542102641,3.0
127,1436542102644,3.0
128,1436542102645,3.0
129,1436542102646,3.0
130,1436542102647,3.0
131,1436542102648,3.0
132,1436542102649,3.0
133,1436542102727,3.0
134,1436542102728,3.0
135,1436542102729,3.0
136,1436542102730,3.0
137,1436542102742,3.0
138,1436542102789,3.0
139,1436542102790,3.0
140,1436542102799,3.0
141,1436542102820,3.0
142,1436542102838,3.0
143,1436542102859,3.0
144,1436542102879,3.0
145,1436542102899,3.0
146,1436542102919,3.0
147,1436542102942,3.0
148,1436542102962,3.0
149,1436542102982,3.0
150,1436542103002,3.0
151,1436542103020,3.0
152,1436542103039,3.0
153,1436542103059,3.0
154,1436542103081,3.0
155,1436542103099,3.0
156,1436542103146,3.0
157,1436542103147,3.0
158,1436542103159,3.0
159,1436542103182,3.0
160,1436542103200,3.0
161,1436542103219,3.0
162,1436542103245,3.0
163,1436542103261,3.0
164,1436542103282,3.0
165,1436542103300,3.0
166,1436542103320,3.0
167,1436542103343,3.0
168,1436542103359,3.0
169,1436542103383,3.0
170,1436542103403,3.0
171,1436542103422,3.0
172,1436542103444,3.0
173,1436542103464,3.0
174,1436542103484,3.0
175,1436542103503,3.0
176,1436542103521,3.0
177,1436542103542,3.0
178,1436542103562,3.0
179,1436542103582,3.0
180,1436542103603,3.0
181,1436542103725,3.0
182,1436542103726,3.0
183,1436542103727,3.0
184,1436542103728,3.0
185,1436542103729,3.0
186,1436542103730,3.0
187,1436542103740,3.0
188,1436542103768,3.0
189,1436542103782,3.0
190,1436542103801,3.0
191,1436542103820,3.0
192,1436542103842,3.0
193,1436542103864,3.0
194,1436542103883,3.0
195,1436542103900,3.0
196,1436542103920,3.0
197,1436542103940,3.0
198,1436542103963,3.0
199,1436542103983,3.0
200,1436542104006,3.0
201,1436542104023,3.0
202,1436542104041,3.0
203,1436542104060,3.0
204,1436542104080,3.0
205,1436542104101,3.0
206,1436542104121,3.0
207,1436542104172,3.0
208,1436542104173,3.0
209,1436542104186,3.0
210,1436542104220,3.0
211,1436542104221,3.0
212,1436542104240,3.0
213,1436542104268,3.0
214,1436542104280,3.0
215,1436542104300,3.0
216,1436542104320,3.0
217,1436542104341,3.0
218,1436542104360,3.0
219,1436542104380,3.0
220,1436542104404,3.0
221,1436542104423,3.0
222,1436542104441,3.0
223,1436542104463,3.0
224,1436542104480,3.0
225,1436542104504,3.0
226,1436542104524,3.0
227,1436542104543,3.0
228,1436542104562,3.0
229,1436542104581,3.0
230,1436542104632,3.0
231,1436542104633,3.0
232,1436542104656,3.0
233,1436542104688,3.0
234,1436542104689,3.0
235,1436542104704,3.0
236,1436542104723,3.0
237,1436542104745,3.0
238,1436542104761,3.0
239,1436542104784,3.0
240,1436542104803,3.0
241,1436542104822,3.0
242,1436542104844,3.0
243,1436542104864,3.0
244,1436542104882,3.0
245,1436542104901,3.0
246,1436542104923,3.0
247,1436542104945,3.0
248,1436542104966,3.0
249,1436542104986,3.0
250,1436542105004,3.0
251,1436542105022,3.0
252,1436542105043,3.0
253,1436542105071,3.0
254,1436542105083,3.0
255,1436542105102,3.0
256,1436542105146,3.0
257,1436542105147,3.0
258,1436542105161,3.0
259,1436542105181,3.0
260,1436542105208,3.0
261,1436542105223,3.0
262,1436542105241,3.0
263,1436542105262,3.0
264,1436542105286,3.0
265,1436542105301,3.0
266,1436542105323,3.0
267,1436542105341,3.0
268,1436542105364,3.0
269,1436542105383,3.0
270,1436542105403,3.0
271,1436542105421,3.0
272,1436542105445,3.0
273,1436542105464,3.0
274,1436542105482,3.0
275,1436542105505,3.0
276,1436542105523,3.0
277,1436542105543,3.0
278,1436542105564,3.0
279,1436542105584,3.0
280,1436542105607,3.0
281,1436542105655,3.0
282,1436542105656,3.0
283,1436542105670,3.0
284,1436542105694,4.0
285,1436542105701,4.0
286,1436542105739,4.0
287,1436542105742,4.0
288,1436542105764,5.0
289,1436542105786,5.0
290,1436542105803,6.0
291,1436542105823,6.0
292,1436542105845,6.0
293,1436542105862,7.0
294,1436542105882,7.0
295,1436542105902,8.0
296,1436542105925,8.0
297,1436542105944,7.0
298,1436542105968,7.0
299,1436542105985,7.0
300,1436542106003,7.0
301,1436542106023,6.0
302,1436542106046,6.0
303,1436542106063,5.0
304,1436542106146,5.0
305,1436542106149,5.0
306,1436542106150,5.0
307,1436542106151,4.0
308,1436542106263,4.0
309,1436542106264,4.0
310,1436542106265,4.0
311,1436542106266,4.0
312,1436542106267,4.0
313,1436542106268,4.0
314,1436542106293,4.0
315,1436542106302,4.0
316,1436542106322,3.0
317,1436542106342,3.0
318,1436542106362,3.0
319,1436542106382,3.0
320,1436542106425,3.0
321,1436542106426,3.0
322,1436542106442,3.0
323,1436542106462,3.0
324,1436542106482,3.0
325,1436542106503,3.0
326,1436542106522,3.0
327,1436542106542,3.0
328,1436542106566,3.0
329,1436542106583,3.0
330,1436542106611,4.0
331,1436542106699,4.0
332,1436542106700,4.0
333,1436542106701,4.0
334,1436542106702,4.0
335,1436542106703,4.0
336,1436542106723,4.0
337,1436542106741,4.0
338,1436542106762,4.0
339,1436542106784,5.0
340,1436542106802,5.0
341,1436542106823,5.0
342,1436542106843,5.0
343,1436542106866,6.0
344,1436542106885,6.0
345,1436542106904,8.0
346,1436542106922,8.0
347,1436542106946,9.0
348,1436542106964,9.0
349,1436542106987,11.0
350,1436542107006,12.0
351,1436542107026,12.0
352,1436542107046,13.0
353,1436542107062,13.0
354,1436542107083,14.0
355,1436542107102,14.0
356,1436542107123,13.0
357,1436542107142,13.0
358,1436542107164,13.0
359,1436542107187,13.0
360,1436542107207,11.0
361,1436542107223,11.0
362,1436542107243,8.0
363,1436542107265,8.0
364,1436542107285,7.0
365,1436542107306,7.0
366,1436542107325,5.0
367,1436542107346,5.0
368,1436542107365,4.0
369,1436542107384,4.0
370,1436542107405,4.0
371,1436542107426,4.0
372,1436542107446,4.0
373,1436542107466,4.0
374,1436542107485,4.0
375,1436542107511,3.0
376,1436542107523,3.0
377,1436542107581,3.0
378,1436542107582,3.0
379,1436542107604,3.0
380,1436542107605,3.0
381,1436542107626,3.0
382,1436542107653,3.0
383,1436542107664,3.0
384,1436542107686,3.0
385,1436542107704,3.0
386,1436542107724,3.0
387,1436542107747,4.0
388,1436542107766,4.0
389,1436542107784,4.0
390,1436542107806,4.0
391,1436542107837,4.0
392,1436542107846,4.0
393,1436542107866,4.0
394,1436542107886,5.0
395,1436542107910,5.0
396,1436542107923,6.0
397,1436542107944,6.0
398,1436542107965,8.0
399,1436542107984,8.0
400,1436542108003,11.0
401,1436542108030,11.0
402,1436542108047,14.0
403,1436542108064,14.0
404,1436542108085,15.0
405,1436542108104,15.0
406,1436542108133,17.0
407,1436542108144,17.0
408,1436542108168,18.0
409,1436542108184,18.0
410,1436542108204,18.0
411,1436542108224,17.0
412,1436542108245,17.0
413,1436542108267,15.0
414,1436542108285,15.0
415,1436542108305,12.0
416,1436542108325,12.0
417,1436542108346,10.0
418,1436542108368,10.0
419,1436542108386,9.0
420,1436542108406,9.0
421,1436542108425,8.0
422,1436542108445,8.0
423,1436542108473,8.0
424,1436542108485,8.0
425,1436542108503,7.0
426,1436542108525,7.0
427,1436542108545,6.0
428,1436542108565,5.0
429,1436542108583,5.0
430,1436542108605,4.0
431,1436542108628,4.0
432,1436542108648,4.0
433,1436542108666,4.0
434,1436542108686,4.0
435,1436542108705,4.0
436,1436542108728,5.0
437,1436542108748,5.0
438,1436542108768,5.0
439,1436542108786,5.0
440,1436542108806,6.0
441,1436542108825,6.0
442,1436542108845,7.0
443,1436542108865,7.0
444,1436542108887,8.0
445,1436542108942,8.0
446,1436542108943,8.0
447,1436542108965,10.0
448,1436542108966,10.0
449,1436542108985,12.0
450,1436542109011,12.0
451,1436542109025,16.0
452,1436542109046,16.0
453,1436542109066,21.0
454,1436542109085,21.0
455,1436542109106,26.0
456,1436542109128,26.0
457,1436542109147,29.0
458,1436542109167,29.0
459,1436542109187,32.0
460,1436542109208,32.0
461,1436542109228,36.0
462,1436542109257,36.0
463,1436542109292,39.0
464,1436542109293,39.0
465,1436542109308,42.0
466,1436542109325,44.0
467,1436542109345,44.0
468,1436542109366,42.0
469,1436542109392,42.0
470,1436542109405,36.0
471,1436542109425,36.0
472,1436542109445,33.0
473,1436542109465,33.0
474,1436542109486,30.0
475,1436542109505,30.0
476,1436542109525,29.0
477,1436542109545,29.0
478,1436542109565,30.0
479,1436542109585,30.0
480,1436542109605,28.0
481,1436542109625,28.0
482,1436542109645,25.0
483,1436542109665,25.0
484,1436542109685,22.0
485,1436542109706,21.0
486,1436542109725,21.0
487,1436542109746,20.0
488,1436542109765,20.0
489,1436542109785,21.0
490,1436542109804,21.0
491,1436542109825,22.0
492,1436542109845,22.0
493,1436542109865,22.0
494,1436542109885,22.0
495,1436542109905,23.0
496,1436542109925,23.0
497,1436542109945,23.0
498,1436542109965,23.0
499,1436542109985,24.0
500,1436542110005,24.0
501,1436542110025,24.0
502,1436542110045,24.0
503,1436542110065,26.0
504,1436542110085,30.0
505,1436542110105,30.0
506,1436542110125,35.0
507,1436542110145,35.0
508,1436542110165,41.0
509,1436542110185,41.0
510,1436542110211,46.0
511,1436542110225,46.0
512,1436542110245,51.0
513,1436542110267,51.0
514,1436542110286,57.0
515,1436542110307,57.0
516,1436542110327,63.0
517,1436542110347,63.0
518,1436542110366,67.0
519,1436542110388,67.0
520,1436542110406,68.0
521,1436542110428,68.0
522,1436542110449,65.0
523,1436542110468,59.0
524,1436542110488,59.0
525,1436542110509,55.0
526,1436542110527,55.0
527,1436542110547,49.0
528,1436542110568,49.0
529,1436542110587,45.0
530,1436542110613,45.0
531,1436542110625,45.0
532,1436542110646,45.0
533,1436542110666,42.0
534,1436542110689,42.0
535,1436542110710,37.0
536,1436542110726,37.0
537,1436542110747,33.0
538,1436542110769,33.0
539,1436542110786,29.0
540,1436542110808,29.0
541,1436542110827,27.0
542,1436542110847,27.0
543,1436542110866,26.0
544,1436542110886,25.0
545,1436542110907,25.0
546,1436542110929,25.0
547,1436542110948,25.0
548,1436542110968,24.0
549,1436542110988,24.0
550,1436542111019,23.0
551,1436542111109,23.0
552,1436542111110,23.0
553,1436542111111,23.0
554,1436542111112,22.0
555,1436542111113,22.0
556,1436542111138,23.0
557,1436542111147,23.0
558,1436542111175,25.0
559,1436542111187,25.0
560,1436542111208,27.0
561,1436542111229,27.0
562,1436542111249,29.0
563,1436542111269,32.0
564,1436542111289,32.0
565,1436542111307,38.0
566,1436542111327,38.0
567,1436542111348,43.0
568,1436542111369,43.0
569,1436542111387,48.0
570,1436542111409,48.0
571,1436542111427,50.0
572,1436542111447,50.0
573,1436542111467,50.0
574,1436542111487,50.0
575,1436542111513,46.0
576,1436542111556,46.0
577,1436542111557,40.0
578,1436542111567,40.0
579,1436542111589,37.0
580,1436542111607,37.0
581,1436542111627,32.0
582,1436542111649,30.0
583,1436542111668,30.0
584,1436542111691,29.0
585,1436542111708,29.0
586,1436542111729,25.0
587,1436542111749,25.0
588,1436542111768,21.0
589,1436542111787,21.0
590,1436542111807,19.0
591,1436542111828,19.0
592,1436542111850,18.0
593,1436542111870,18.0
594,1436542111890,17.0
595,1436542111910,17.0
596,1436542111928,16.0
597,1436542111947,16.0
598,1436542111968,16.0
599,1436542111990,16.0
600,1436542112010,15.0
601,1436542112095,15.0
602,1436542112096,15.0
603,1436542112097,15.0
604,1436542112098,15.0
605,1436542112214,14.0
606,1436542112215,14.0
607,1436542112216,14.0
608,1436542112217,14.0
609,1436542112218,16.0
610,1436542112219,16.0
611,1436542112228,19.0
612,1436542112248,19.0
613,1436542112268,24.0
614,1436542112290,24.0
615,1436542112308,29.0
616,1436542112329,29.0
617,1436542112350,33.0
618,1436542112370,33.0
619,1436542112390,39.0
620,1436542112411,45.0
621,1436542112431,45.0
622,1436542112451,52.0
623,1436542112474,52.0
624,1436542112492,56.0
625,1436542112510,56.0
626,1436542112531,56.0
627,1436542112550,56.0
628,1436542112570,51.0
629,1436542112589,51.0
630,1436542112609,43.0
631,1436542112660,43.0
632,1436542112661,37.0
633,1436542112680,37.0
634,1436542112692,32.0
635,1436542112708,32.0
636,1436542112733,26.0
637,1436542112751,26.0
638,1436542112801,25.0
639,1436542112806,24.0
640,1436542112810,24.0
641,1436542112832,22.0
642,1436542112850,22.0
643,1436542112871,20.0
644,1436542112892,20.0
645,1436542112911,19.0
646,1436542112932,19.0
647,1436542112951,18.0
648,1436542112972,18.0
649,1436542112990,17.0
650,1436542113017,17.0
651,1436542113033,17.0
652,1436542113052,17.0
653,1436542113152,18.0
654,1436542113153,18.0
655,1436542113154,18.0
656,1436542113155,18.0
657,1436542113156,18.0
658,1436542113232,18.0
659,1436542113233,18.0
660,1436542113234,19.0
661,1436542113235,19.0
662,1436542113280,19.0
663,1436542113281,19.0
664,1436542113289,21.0
665,1436542113395,21.0
666,1436542113396,23.0
667,1436542113397,23.0
668,1436542113398,27.0
669,1436542113399,27.0
670,1436542113409,34.0
671,1436542113429,34.0
672,1436542113449,42.0
673,1436542113469,42.0
674,1436542113489,50.0
675,1436542113509,50.0
676,1436542113529,59.0
677,1436542113551,59.0
678,1436542113570,65.0
679,1436542113589,66.0
680,1436542113636,66.0
681,1436542113637,61.0
682,1436542113649,61.0
683,1436542113670,51.0
684,1436542113707,51.0
685,1436542113712,41.0
686,1436542113729,41.0
687,1436542113749,35.0
688,1436542113769,35.0
689,1436542113789,29.0
690,1436542113814,29.0
691,1436542113828,26.0
692,1436542113849,26.0
693,1436542113868,26.0
694,1436542113906,26.0
695,1436542113908,25.0
696,1436542113928,25.0
697,1436542113948,24.0
698,1436542113968,23.0
699,1436542113988,23.0
700,1436542114008,22.0
701,1436542114028,22.0
702,1436542114048,22.0
703,1436542114068,22.0
704,1436542114088,22.0
705,1436542114109,22.0
706,1436542114128,21.0
707,1436542114149,21.0
708,1436542114169,21.0
709,1436542114188,21.0
710,1436542114208,21.0
711,1436542114228,21.0
712,1436542114251,21.0
713,1436542114273,21.0
714,1436542114294,21.0
715,1436542114313,21.0
716,1436542114329,21.0
717,1436542114352,22.0
718,1436542114373,22.0
719,1436542114394,25.0
720,1436542114412,25.0
721,1436542114430,29.0
722,1436542114466,29.0
723,1436542114471,34.0
724,1436542114492,34.0
725,1436542114510,39.0
726,1436542114532,39.0
727,1436542114551,42.0
728,1436542114571,42.0
729,1436542114591,45.0
730,1436542114611,45.0
731,1436542114631,46.0
732,1436542114653,46.0
733,1436542114675,48.0
734,1436542114694,48.0
735,1436542114713,51.0
736,1436542114731,52.0
737,1436542114749,52.0
738,1436542114772,50.0
739,1436542114795,50.0
740,1436542114820,47.0
741,1436542114830,47.0
742,1436542114852,44.0
743,1436542114870,44.0
744,1436542114904,44.0
745,1436542114916,44.0
746,1436542114933,48.0
747,1436542114951,48.0
748,1436542114971,48.0
749,1436542114991,48.0
750,1436542115011,43.0
751,1436542115031,43.0
752,1436542115053,37.0
753,1436542115071,37.0
754,1436542115092,32.0
755,1436542115114,29.0
756,1436542115134,29.0
757,1436542115151,27.0
758,1436542115171,27.0
759,1436542115193,28.0
760,1436542115216,28.0
761,1436542115237,30.0
762,1436542115257,30.0
763,1436542115274,32.0
764,1436542115293,32.0
765,1436542115311,34.0
766,1436542115331,34.0
767,1436542115352,36.0
768,1436542115371,36.0
769,1436542115419,42.0
770,1436542115420,42.0
771,1436542115441,51.0
772,1436542115472,51.0
773,1436542115473,62.0
774,1436542115492,75.0
775,1436542115511,75.0
776,1436542115534,86.0
777,1436542115551,86.0
778,1436542115573,94.0
779,1436542115593,94.0
780,1436542115611,99.0
781,1436542115634,99.0
782,1436542115651,103.0
783,1436542115671,103.0
784,1436542115692,106.0
785,1436542115717,106.0
786,1436542115733,109.0
787,1436542115757,109.0
788,1436542115775,110.0
789,1436542115792,110.0
790,1436542115822,107.0
791,1436542115834,107.0
792,1436542115852,99.0
793,1436542115897,99.0
794,1436542115905,90.0
795,1436542115911,83.0
796,1436542115934,83.0
797,1436542115955,77.0
798,1436542115983,77.0
799,1436542115992,76.0
800,1436542116014,76.0
801,1436542116035,74.0
802,1436542116054,74.0
803,1436542116074,68.0
804,1436542116095,68.0
805,1436542116112,63.0
806,1436542116132,63.0
807,1436542116152,59.0
808,1436542116178,59.0
809,1436542116197,58.0
810,1436542116218,58.0
811,1436542116235,57.0
812,1436542116251,57.0
813,1436542116273,56.0
814,1436542116292,56.0
815,1436542116314,56.0
816,1436542116334,56.0
817,1436542116383,56.0
818,1436542116384,57.0
819,1436542116400,57.0
820,1436542116428,57.0
821,1436542116432,57.0
822,1436542116452,57.0
823,1436542116481,57.0
824,1436542116492,58.0
825,1436542116515,58.0
826,1436542116536,60.0
827,1436542116554,60.0
828,1436542116573,65.0
829,1436542116592,65.0
830,1436542116614,72.0
831,1436542116633,72.0
832,1436542116653,80.0
833,1436542116675,86.0
834,1436542116695,86.0
835,1436542116715,93.0
836,1436542116735,93.0
837,1436542116754,101.0
838,1436542116774,101.0
839,1436542116794,110.0
840,1436542116814,110.0
841,1436542116834,119.0
842,1436542116884,119.0
843,1436542116885,122.0
844,1436542116901,122.0
845,1436542116928,113.0
846,1436542116932,113.0
847,1436542116952,98.0
848,1436542116978,98.0
849,1436542116993,85.0
850,1436542117016,85.0
851,1436542117036,74.0
852,1436542117054,72.0
853,1436542117073,72.0
854,1436542117096,69.0
855,1436542117113,69.0
856,1436542117133,62.0
857,1436542117154,62.0
858,1436542117179,56.0
859,1436542117193,56.0
860,1436542117213,52.0
861,1436542117233,52.0
862,1436542117253,49.0
863,1436542117272,49.0
864,1436542117294,48.0
865,1436542117313,48.0
866,1436542117333,48.0
867,1436542117378,48.0
868,1436542117379,49.0
869,1436542117400,49.0
870,1436542117422,49.0
871,1436542117433,49.0
872,1436542117471,49.0
873,1436542117473,47.0
874,1436542117494,47.0
875,1436542117520,47.0
876,1436542117535,47.0
877,1436542117553,48.0
878,1436542117576,48.0
879,1436542117599,51.0
880,1436542117616,51.0
881,1436542117635,58.0
882,1436542117656,58.0
883,1436542117676,70.0
884,1436542117697,70.0
885,1436542117716,84.0
886,1436542117736,84.0
887,1436542117757,99.0
888,1436542117776,99.0
889,1436542117796,110.0
890,1436542117820,116.0
