id,attr_time,attr_light
1,1436542100010,1.0
2,1436542100031,1.0
3,1436542100050,1.0
4,1436542100072,1.0
5,1436542100091,1.0
6,1436542100111,1.0
7,1436542100132,1.0
8,1436542100151,1.0
9,1436542100169,1.0
10,1436542100191,1.0
11,1436542100209,1.0
12,1436542100233,1.0
13,1436542100253,1.0
14,1436542100273,1.0
15,1436542100292,1.0
16,1436542100321,1.0
17,1436542100342,1.0
18,1436542100394,1.0
19,1436542100395,1.0
20,1436542100396,1.0
21,1436542100419,1.0
22,1436542100428,1.0
23,1436542100451,1.0
24,1436542100469,1.0
25,1436542100490,1.0
26,1436542100512,1.0
27,1436542100530,1.0
28,1436542100551,1.0
29,1436542100570,1.0
30,1436542100593,1.0
31,1436542100609,1.0
32,1436542100630,1.0
33,1436542100651,1.0
34,1436542100672,1.0
35,1436542100693,1.0
36,1436542100712,1.0
37,1436542100732,1.0
38,1436542100751,1.0
39,1436542100772,1.0
40,1436542100790,1.0
41,1436542100812,1.0
42,1436542100833,1.0
43,1436542100852,1.0
44,1436542100872,1.0
45,1436542100892,1.0
46,1436542100912,1.0
47,1436542100932,1.0
48,1436542100953,1.0
49,1436542100972,1.0
50,1436542100992,1.0
51,1436542101012,1.0
52,1436542101036,1.0
53,1436542101055,1.0
54,1436542101117,1.0
55,1436542101118,1.0
56,1436542101119,1.0
57,1436542101145,1.0
58,1436542101153,1.0
59,1436542101172,1.0
60,1436542101194,1.0
61,1436542101209,1.0
62,1436542101232,1.0
63,1436542101249,1.0
64,1436542101269,1.0
65,1436542101290,1.0
66,1436542101309,1.0
67,1436542101329,1.0
68,1436542101350,1.0
69,1436542101369,1.0
70,1436542101390,1.0
71,1436542101409,1.0
72,1436542101429,1.0
73,1436542101449,1.0
74,1436542101470,1.0
75,1436542101490,1.0
76,1436542101508,1.0
77,1436542101528,1.0
78,1436542101549,1.0
79,1436542101572,1.0
80,1436542101589,1.0
81,1436542101611,1.0
82,1436542101630,1.0
83,1436542101653,1.0
84,1436542101673,1.0
85,1436542101691,1.0
86,1436542101710,1.0
87,1436542101733,1.0
88,1436542101750,1.0
89,1436542101775,1.0
90,1436542101795,1.0
91,1436542101809,1.0
92,1436542101830,1.0
93,1436542101850,1.0
94,1436542101871,1.0
95,1436542101890,1.0
96,1436542101910,1.0
97,1436542101934,1.0
98,1436542101951,1.0
99,1436542101974,1.0
100,1436542101994,1.0
101,1436542102010,1.0
102,1436542102034,1.0
103,1436542102050,1.0
104,1436542102073,1.0
105,1436542102094,1.0
106,1436542102116,1.0
107,1436542102132,1.0
108,1436542102154,1.0
109,1436542102175,1.0
110,1436542102194,1.0
111,1436542102214,1.0
112,1436542102234,1.0
113,1436542102253,1.0
114,1436542102272,1.0
115,1436542102293,1.0
116,1436542102314,1.0
117,1436542102334,1.0
118,1436542102355,1.0
119,1436542102374,1.0
120,1436542102391,1.0
121,1436542102433,1.0
122,1436542102434,1.0
123,1436542102454,1.0
124,1436542102474,1.0
125,1436542102491,1.0
126,1436542102510,1.0
127,1436542102535,1.0
128,1436542102552,1.0
129,1436542102572,1.0
130,1436542102591,1.0
131,1436542102613,1.0
132,1436542102634,1.0
133,1436542102651,1.0
134,1436542102672,1.0
135,1436542102694,1.0
136,1436542102713,1.0
137,1436542102733,1.0
138,1436542102752,1.0
139,1436542102777,1.0
140,1436542102793,1.0
141,1436542102818,1.0
142,1436542102831,1.0
143,1436542102854,1.0
144,1436542102872,1.0
145,1436542102891,1.0
146,1436542102911,1.0
147,1436542102936,1.0
148,1436542102958,1.0
149,1436542102973,1.0
150,1436542102994,1.0
151,1436542103012,1.0
152,1436542103031,1.0
153,1436542103052,1.0
154,1436542103072,1.0
155,1436542103092,1.0
156,1436542103161,1.0
157,1436542103162,1.0
158,1436542103163,1.0
159,1436542103173,1.0
160,1436542103193,1.0
161,1436542103213,1.0
162,1436542103231,1.0
163,1436542103257,1.0
164,1436542103273,1.0
165,1436542103292,1.0
166,1436542103313,1.0
167,1436542103333,1.0
168,1436542103352,1.0
169,1436542103375,1.0
170,1436542103394,1.0
171,1436542103415,1.0
172,1436542103435,1.0
173,1436542103454,1.0
174,1436542103475,1.0
175,1436542103492,1.0
176,1436542103515,1.0
177,1436542103535,1.0
178,1436542103554,1.0
179,1436542103575,1.0
180,1436542103594,1.0
181,1436542103614,1.0
182,1436542103633,1.0
183,1436542103655,1.0
184,1436542103674,1.0
185,1436542103696,1.0
186,1436542103715,1.0
187,1436542103735,1.0
188,1436542103752,1.0
189,1436542103774,1.0
190,1436542103793,1.0
191,1436542103823,1.0
192,1436542103890,1.0
193,1436542103891,1.0
194,1436542103892,1.0
195,1436542103893,1.0
196,1436542103912,1.0
197,1436542103933,1.0
198,1436542103954,1.0
199,1436542103972,1.0
200,1436542103996,1.0
201,1436542104013,1.0
202,1436542104032,1.0
203,1436542104053,1.0
204,1436542104073,1.0
205,1436542104096,1.0
206,1436542104114,1.0
207,1436542104136,1.0
208,1436542104154,1.0
209,1436542104176,1.0
210,1436542104193,1.0
211,1436542104213,1.0
212,1436542104232,1.0
213,1436542104252,1.0
214,1436542104273,1.0
215,1436542104294,1.0
216,1436542104314,1.0
217,1436542104336,1.0
218,1436542104353,1.0
219,1436542104375,1.0
220,1436542104396,1.0
221,1436542104415,1.0
222,1436542104436,1.0
223,1436542104456,1.0
224,1436542104476,1.0
225,1436542104496,1.0
226,1436542104513,1.0
227,1436542104535,1.0
228,1436542104554,1.0
229,1436542104573,1.0
230,1436542104646,1.0
231,1436542104647,1.0
232,1436542104648,1.0
233,1436542104656,1.0
234,1436542104673,1.0
235,1436542104694,1.0
236,1436542104718,1.0
237,1436542104735,1.0
238,1436542104757,1.0
239,1436542104773,1.0
240,1436542104793,1.0
241,1436542104822,1.0
242,1436542104837,1.0
243,1436542104859,1.0
244,1436542104885,1.0
245,1436542104894,1.0
246,1436542104914,1.0
247,1436542105007,1.0
248,1436542105008,1.0
249,1436542105009,1.0
250,1436542105010,1.0
251,1436542105015,1.0
252,1436542105033,1.0
253,1436542105054,1.0
254,1436542105073,1.0
255,1436542105093,1.0
256,1436542105114,1.0
257,1436542105134,1.0
258,1436542105159,1.0
259,1436542105177,1.0
260,1436542105194,1.0
261,1436542105216,1.0
262,1436542105233,1.0
263,1436542105253,1.0
264,1436542105273,1.0
265,1436542105297,1.0
266,1436542105326,1.0
267,1436542105340,1.0
268,1436542105360,1.0
269,1436542105373,1.0
270,1436542105395,1.0
271,1436542105415,1.0
272,1436542105433,1.0
273,1436542105454,1.0
274,1436542105477,1.0
275,1436542105497,1.0
276,1436542105517,1.0
277,1436542105539,1.0
278,1436542105555,1.0
279,1436542105577,1.0
280,1436542105597,1.0
281,1436542105617,1.0
282,1436542105637,1.0
283,1436542105657,1.0
284,1436542105674,1.0
285,1436542105697,1.0
286,1436542105717,1.0
287,1436542105737,1.0
288,1436542105757,1.0
289,1436542105777,1.0
290,1436542105795,1.0
291,1436542105816,1.0
292,1436542105836,1.0
293,1436542105855,1.0
294,1436542105876,1.0
295,1436542105897,1.0
296,1436542105915,1.0
297,1436542105944,1.0
298,1436542105999,1.0
299,1436542106000,1.0
300,1436542106001,1.0
301,1436542106023,1.0
302,1436542106034,1.0
303,1436542106065,1.0
304,1436542106075,1.0
305,1436542106095,1.0
306,1436542106115,1.0
307,1436542106135,1.0
308,1436542106194,1.0
309,1436542106195,1.0
310,1436542106196,1.0
311,1436542106215,1.0
312,1436542106237,1.0
313,1436542106258,1.0
314,1436542106275,1.0
315,1436542106297,1.0
316,1436542106318,1.0
317,1436542106338,1.0
318,1436542106355,1.0
319,1436542106375,1.0
320,1436542106395,1.0
321,1436542106418,1.0
322,1436542106438,1.0
323,1436542106457,1.0
324,1436542106478,1.0
325,1436542106496,1.0
326,1436542106515,2.0
327,1436542106535,2.0
328,1436542106556,2.0
329,1436542106581,2.0
330,1436542106597,2.0
331,1436542106617,2.0
332,1436542106636,2.0
333,1436542106663,2.0
334,1436542106722,2.0
335,1436542106723,2.0
336,1436542106724,2.0
337,1436542106745,2.0
338,1436542106755,2.0
339,1436542106780,2.0
340,1436542106795,2.0
341,1436542106815,2.0
342,1436542106837,2.0
343,1436542106855,2.0
344,1436542106875,2.0
345,1436542106895,2.0
346,1436542106915,2.0
347,1436542106936,2.0
348,1436542106956,2.0
349,1436542106977,2.0
350,1436542106999,2.0
351,1436542107017,2.0
352,1436542107038,2.0
353,1436542107058,2.0
354,1436542107078,2.0
355,1436542107098,2.0
356,1436542107118,2.0
357,1436542107138,2.0
358,1436542107158,2.0
359,1436542107176,2.0
360,1436542107198,2.0
361,1436542107217,2.0
362,1436542107237,2.0
363,1436542107258,2.0
364,1436542107279,2.0
365,1436542107299,2.0
366,1436542107316,2.0
367,1436542107337,2.0
368,1436542107357,2.0
369,1436542107376,2.0
370,1436542107446,2.0
371,1436542107449,2.0
372,1436542107450,2.0
373,1436542107466,2.0
374,1436542107475,2.0
375,1436542107496,2.0
376,1436542107518,2.0
377,1436542107535,2.0
378,1436542107555,2.0
379,1436542107577,2.0
380,1436542107597,2.0
381,1436542107616,2.0
382,1436542107637,2.0
383,1436542107659,2.0
384,1436542107679,2.0
385,1436542107699,2.0
386,1436542107716,2.0
387,1436542107737,2.0
388,1436542107759,2.0
389,1436542107779,2.0
390,1436542107799,2.0
391,1436542107818,2.0
392,1436542107837,2.0
393,1436542107858,2.0
394,1436542107879,2.0
395,1436542107899,2.0
396,1436542107918,2.0
397,1436542107937,2.0
398,1436542107959,2.0
399,1436542107977,2.0
400,1436542107997,2.0
401,1436542108016,2.0
402,1436542108037,2.0
403,1436542108059,2.0
404,1436542108076,2.0
405,1436542108097,2.0
406,1436542108124,2.0
407,1436542108183,2.0
408,1436542108184,2.0
409,1436542108185,2.0
410,1436542108206,2.0
411,1436542108216,2.0
412,1436542108242,2.0
413,1436542108257,2.0
414,1436542108277,2.0
415,1436542108297,2.0
416,1436542108319,2.0
417,1436542108337,2.0
418,1436542108357,2.0
419,1436542108377,2.0
420,1436542108397,2.0
421,1436542108420,2.0
422,1436542108437,2.0
423,1436542108457,2.0
424,1436542108480,2.0
425,1436542108500,2.0
426,1436542108520,2.0
427,1436542108537,2.0
428,1436542108557,2.0
429,1436542108578,2.0
430,1436542108597,2.0
431,1436542108620,2.0
432,1436542108637,2.0
433,1436542108659,2.0
434,1436542108680,2.0
435,1436542108699,2.0
436,1436542108720,2.0
437,1436542108743,2.0
438,1436542108758,2.0
439,1436542108779,2.0
440,1436542108797,2.0
441,1436542108819,2.0
442,1436542108837,2.0
443,1436542108860,2.0
444,1436542108927,2.0
445,1436542108928,2.0
446,1436542108929,2.0
447,1436542108937,2.0
448,1436542108966,2.0
449,1436542108978,2.0
450,1436542108997,2.0
451,1436542109019,2.0
452,1436542109037,2.0
453,1436542109059,2.0
454,1436542109079,2.0
455,1436542109100,2.0
456,1436542109117,2.0
457,1436542109138,2.0
458,1436542109159,2.0
459,1436542109178,2.0
460,1436542109198,2.0
461,1436542109218,2.0
462,1436542109238,2.0
463,1436542109260,2.0
464,1436542109279,2.0
465,1436542109302,2.0
466,1436542109317,2.0
467,1436542109337,2.0
468,1436542109358,2.0
469,1436542109378,2.0
470,1436542109399,2.0
471,1436542109417,2.0
472,1436542109438,2.0
473,1436542109458,2.0
474,1436542109479,2.0
475,1436542109504,2.0
476,1436542109518,2.0
477,1436542109539,2.0
478,1436542109565,2.0
479,1436542109651,2.0
480,1436542109652,2.0
481,1436542109653,2.0
482,1436542109654,2.0
483,1436542109663,2.0
484,1436542109681,2.0
485,1436542109698,2.0
486,1436542109718,2.0
487,1436542109739,2.0
488,1436542109758,2.0
489,1436542109780,2.0
490,1436542109798,2.0
491,1436542109822,2.0
492,1436542109838,3.0
493,1436542109861,3.0
494,1436542109880,3.0
495,1436542109900,3.0
496,1436542109922,3.0
497,1436542109940,3.0
498,1436542109961,3.0
499,1436542109980,3.0
500,1436542110000,3.0
501,1436542110020,3.0
502,1436542110042,3.0
503,1436542110061,4.0
504,1436542110079,4.0
505,1436542110101,4.0
506,1436542110122,4.0
507,1436542110141,4.0
508,1436542110161,4.0
509,1436542110182,4.0
510,1436542110202,4.0
511,1436542110221,4.0
512,1436542110240,4.0
513,1436542110261,4.0
514,1436542110279,4.0
515,1436542110302,3.0
516,1436542110387,3.0
517,1436542110388,3.0
518,1436542110389,3.0
519,1436542110390,3.0
520,1436542110409,3.0
521,1436542110422,3.0
522,1436542110445,3.0
523,1436542110458,3.0
524,1436542110487,3.0
525,1436542110500,3.0
526,1436542110521,3.0
527,1436542110540,3.0
528,1436542110559,3.0
529,1436542110582,3.0
530,1436542110602,3.0
531,1436542110622,3.0
532,1436542110642,3.0
533,1436542110663,3.0
534,1436542110682,3.0
535,1436542110702,3.0
536,1436542110721,3.0
537,1436542110742,3.0
538,1436542110762,3.0
539,1436542110780,3.0
540,1436542110801,3.0
541,1436542110819,3.0
542,1436542110839,3.0
543,1436542110860,3.0
544,1436542110879,3.0
545,1436542110902,3.0
546,1436542110922,3.0
547,1436542110942,3.0
548,1436542110962,3.0
549,1436542110981,3.0
550,1436542111000,3.0
551,1436542111021,3.0
552,1436542111042,3.0
553,1436542111060,3.0
554,1436542111139,3.0
555,1436542111140,3.0
556,1436542111141,3.0
557,1436542111142,3.0
558,1436542111161,3.0
559,1436542111183,3.0
560,1436542111199,3.0
561,1436542111234,3.0
562,1436542111239,3.0
563,1436542111260,3.0
564,1436542111285,3.0
565,1436542111303,3.0
566,1436542111327,3.0
567,1436542111383,3.0
568,1436542111384,3.0
569,1436542111385,3.0
570,1436542111399,3.0
571,1436542111419,3.0
572,1436542111439,3.0
573,1436542111459,3.0
574,1436542111479,3.0
575,1436542111499,3.0
576,1436542111519,3.0
577,1436542111539,3.0
578,1436542111559,3.0
579,1436542111580,3.0
580,1436542111599,3.0
581,1436542111619,3.0
582,1436542111639,3.0
583,1436542111659,3.0
584,1436542111679,3.0
585,1436542111701,3.0
586,1436542111720,3.0
587,1436542111739,3.0
588,1436542111759,3.0
589,1436542111780,3.0
590,1436542111800,3.0
591,1436542111821,3.0
592,1436542111840,3.0
593,1436542111859,3.0
594,1436542111880,3.0
595,1436542111900,3.0
596,1436542111920,3.0
597,1436542111940,3.0
598,1436542111962,3.0
599,1436542111983,3.0
600,1436542112001,3.0
601,1436542112022,3.0
602,1436542112040,3.0
603,1436542112063,3.0
604,1436542112083,4.0
605,1436542112103,4.0
606,1436542112123,4.0
607,1436542112140,4.0
608,1436542112164,4.0
609,1436542112181,4.0
610,1436542112204,4.0
611,1436542112222,4.0
612,1436542112242,4.0
613,1436542112263,4.0
614,1436542112283,4.0
615,1436542112303,4.0
616,1436542112322,4.0
617,1436542112344,4.0
618,1436542112360,4.0
619,1436542112383,4.0
620,1436542112401,4.0
621,1436542112493,4.0
622,1436542112494,4.0
623,1436542112495,4.0
624,1436542112496,4.0
625,1436542112512,4.0
626,1436542112520,4.0
627,1436542112545,4.0
628,1436542112560,4.0
629,1436542112587,4.0
630,1436542112610,4.0
631,1436542112620,4.0
632,1436542112641,4.0
633,1436542112660,4.0
634,1436542112680,4.0
635,1436542112703,4.0
636,1436542112724,4.0
637,1436542112744,4.0
638,1436542112762,4.0
639,1436542112783,4.0
640,1436542112803,4.0
641,1436542112824,4.0
642,1436542112844,4.0
643,1436542112862,4.0
644,1436542112884,4.0
645,1436542112904,4.0
646,1436542112924,4.0
647,1436542112944,4.0
648,1436542112962,4.0
649,1436542112984,5.0
650,1436542113004,5.0
651,1436542113024,5.0
652,1436542113044,5.0
653,1436542113064,5.0
654,1436542113084,5.0
655,1436542113102,5.0
656,1436542113130,5.0
657,1436542113186,5.0
658,1436542113187,5.0
659,1436542113188,5.0
660,1436542113202,5.0
661,1436542113221,5.0
662,1436542113241,5.0
663,1436542113262,5.0
664,1436542113282,5.0
665,1436542113302,5.0
666,1436542113322,5.0
667,1436542113344,5.0
668,1436542113361,5.0
669,1436542113384,5.0
670,1436542113401,5.0
671,1436542113424,5.0
672,1436542113444,5.0
673,1436542113464,5.0
674,1436542113484,5.0
675,1436542113504,5.0
676,1436542113524,5.0
677,1436542113545,5.0
678,1436542113564,5.0
679,1436542113583,5.0
680,1436542113605,5.0
681,1436542113624,6.0
682,1436542113643,6.0
683,1436542113662,6.0
684,1436542113682,6.0
685,1436542113707,6.0
686,1436542113723,6.0
687,1436542113747,6.0
688,1436542113769,6.0
689,1436542113785,6.0
690,1436542113803,6.0
691,1436542113823,6.0
692,1436542113843,6.0
693,1436542113862,6.0
694,1436542113942,6.0
695,1436542113943,6.0
696,1436542113944,6.0
697,1436542113945,6.0
698,1436542113963,6.0
699,1436542113983,6.0
700,1436542114002,6.0
701,1436542114022,6.0
702,1436542114044,6.0
703,1436542114063,6.0
704,1436542114084,6.0
705,1436542114103,6.0
706,1436542114125,6.0
707,1436542114145,6.0
708,1436542114165,6.0
709,1436542114185,6.0
710,1436542114205,6.0
711,1436542114225,6.0
712,1436542114244,6.0
713,1436542114262,6.0
714,1436542114282,6.0
715,1436542114302,7.0
716,1436542114323,7.0
717,1436542114344,7.0
718,1436542114369,7.0
719,1436542114382,7.0
720,1436542114403,7.0
721,1436542114422,7.0
722,1436542114443,7.0
723,1436542114462,7.0
724,1436542114488,7.0
725,1436542114505,7.0
726,1436542114523,7.0
727,1436542114542,7.0
728,1436542114564,8.0
729,1436542114583,8.0
730,1436542114646,8.0
731,1436542114647,8.0
732,1436542114648,8.0
733,1436542114663,8.0
734,1436542114684,8.0
735,1436542114706,8.0
736,1436542114722,8.0
737,1436542114742,8.0
738,1436542114762,8.0
739,1436542114785,8.0
740,1436542114806,8.0
741,1436542114823,9.0
742,1436542114845,9.0
743,1436542114863,9.0
744,1436542114885,9.0
745,1436542114905,9.0
746,1436542114926,9.0
747,1436542114946,9.0
748,1436542114966,9.0
749,1436542114984,9.0
750,1436542115004,9.0
751,1436542115024,9.0
752,1436542115044,9.0
753,1436542115063,9.0
754,1436542115086,9.0
755,1436542115105,9.0
756,1436542115125,9.0
757,1436542115145,9.0
758,1436542115166,9.0
759,1436542115186,10.0
760,1436542115206,10.0
761,1436542115223,10.0
762,1436542115244,10.0
763,1436542115273,10.0
764,1436542115375,10.0
765,1436542115376,10.0
766,1436542115377,10.0
767,1436542115378,10.0
768,1436542115379,10.0
769,1436542115390,10.0
770,1436542115428,10.0
771,1436542115429,10.0
772,1436542115443,10.0
773,1436542115464,10.0
774,1436542115497,11.0
775,1436542115505,11.0
776,1436542115524,11.0
777,1436542115544,11.0
778,1436542115565,11.0
779,1436542115586,11.0
780,1436542115606,11.0
781,1436542115624,11.0
782,1436542115646,12.0
783,1436542115666,12.0
784,1436542115686,12.0
785,1436542115706,12.0
786,1436542115727,12.0
787,1436542115745,12.0
788,1436542115779,13.0
789,1436542115785,13.0
790,1436542115804,13.0
791,1436542115827,14.0
792,1436542115845,14.0
793,1436542115866,14.0
794,1436542115885,14.0
795,1436542115906,14.0
796,1436542115926,14.0
797,1436542115947,14.0
798,1436542115965,14.0
799,1436542115985,14.0
800,1436542116005,14.0
801,1436542116024,15.0
802,1436542116047,14.0
803,1436542116110,14.0
804,1436542116111,14.0
805,1436542116112,14.0
806,1436542116125,14.0
807,1436542116150,14.0
808,1436542116184,14.0
809,1436542116185,14.0
810,1436542116207,14.0
811,1436542116227,14.0
812,1436542116246,13.0
813,1436542116267,13.0
814,1436542116287,13.0
815,1436542116306,13.0
816,1436542116327,14.0
817,1436542116347,14.0
818,1436542116366,14.0
819,1436542116385,14.0
820,1436542116407,14.0
821,1436542116426,14.0
822,1436542116448,14.0
823,1436542116467,13.0
824,1436542116487,13.0
825,1436542116507,13.0
826,1436542116525,13.0
827,1436542116547,13.0
828,1436542116565,13.0
829,1436542116586,14.0
830,1436542116605,14.0
831,1436542116628,14.0
832,1436542116650,14.0
833,1436542116669,14.0
834,1436542116688,14.0
835,1436542116706,14.0
836,1436542116725,14.0
837,1436542116744,14.0
838,1436542116766,14.0
839,1436542116787,14.0
840,1436542116908,14.0
841,1436542116925,14.0
842,1436542116926,14.0
843,1436542116927,14.0
844,1436542116928,14.0
845,1436542116929,14.0
846,1436542116930,14.0
847,1436542116994,14.0
848,1436542116995,14.0
849,1436542116996,14.0
850,1436542117018,14.0
851,1436542117025,14.0
852,1436542117180,14.0
853,1436542117181,14.0
854,1436542117182,14.0
855,1436542117183,14.0
856,1436542117184,14.0
857,1436542117185,14.0
858,1436542117186,14.0
859,1436542117193,14.0
860,1436542117226,14.0
861,1436542117227,14.0
862,1436542117245,14.0
863,1436542117265,14.0
864,1436542117285,14.0
865,1436542117306,14.0
866,1436542117326,15.0
867,1436542117346,15.0
868,1436542117364,15.0
869,1436542117385,15.0
870,1436542117405,15.0
871,1436542117426,15.0
872,1436542117447,16.0
873,1436542117467,16.0
874,1436542117485,16.0
875,1436542117505,16.0
876,1436542117525,16.0
877,1436542117545,16.0
878,1436542117565,16.0
879,1436542117586,16.0
880,1436542117618,16.0
881,1436542117628,16.0
882,1436542117645,16.0
883,1436542117664,16.0
884,1436542117685,16.0
885,1436542117706,16.0
886,1436542117725,16.0
887,1436542117746,16.0
888,1436542117768,16.0
889,1436542117788,16.0
890,1436542117807,16.0
891,1436542117827,16.0
892,1436542117846,17.0
893,1436542117867,17.0
894,1436542117888,17.0
895,1436542117907,17.0
896,1436542117928,17.0
897,1436542117946,17.0
898,1436542117971,18.0
899,1436542117990,18.0
900,1436542118007,18.0
901,1436542118026,18.0
902,1436542118046,18.0
903,1436542118067,18.0
904,1436542118086,18.0
905,1436542118107,18.0
906,1436542118126,18.0
