id,attr_time,attr_light
1,1436542100015,5.0
2,1436542100037,5.0
3,1436542100054,5.0
4,1436542100076,5.0
5,1436542100098,5.0
6,1436542100114,5.0
7,1436542100134,5.0
8,1436542100155,5.0
9,1436542100174,5.0
10,1436542100198,5.0
11,1436542100214,5.0
12,1436542100236,5.0
13,1436542100257,5.0
14,1436542100275,5.0
15,1436542100296,5.0
16,1436542100317,5.0
17,1436542100336,5.0
18,1436542100358,5.0
19,1436542100375,5.0
20,1436542100396,5.0
21,1436542100416,5.0
22,1436542100436,5.0
23,1436542100456,5.0
24,1436542100481,5.0
25,1436542100540,5.0
26,1436542100541,5.0
27,1436542100542,5.0
28,1436542100562,5.0
29,1436542100574,5.0
30,1436542100596,5.0
31,1436542100614,5.0
32,1436542100635,5.0
33,1436542100655,5.0
34,1436542100675,5.0
35,1436542100698,5.0
36,1436542100715,5.0
37,1436542100737,5.0
38,1436542100755,5.0
39,1436542100776,5.0
40,1436542100796,5.0
41,1436542100816,5.0
42,1436542100836,5.0
43,1436542100857,5.0
44,1436542100875,5.0
45,1436542100896,5.0
46,1436542100918,5.0
47,1436542100936,5.0
48,1436542100956,5.0
49,1436542100977,5.0
50,1436542100995,5.0
51,1436542101016,5.0
52,1436542101038,5.0
53,1436542101056,5.0
54,1436542101076,5.0
55,1436542101097,5.0
56,1436542101116,5.0
57,1436542101138,5.0
58,1436542101158,5.0
59,1436542101176,5.0
60,1436542101195,5.0
61,1436542101215,5.0
62,1436542101238,5.0
63,1436542101301,5.0
64,1436542101302,5.0
65,1436542101303,5.0
66,1436542101316,5.0
67,1436542101338,5.0
68,1436542101357,5.0
69,1436542101377,5.0
70,1436542101395,5.0
71,1436542101415,5.0
72,1436542101439,5.0
73,1436542101458,5.0
74,1436542101476,5.0
75,1436542101496,5.0
76,1436542101518,5.0
77,1436542101538,5.0
78,1436542101558,5.0
79,1436542101578,5.0
80,1436542101595,5.0
81,1436542101616,5.0
82,1436542101638,5.0
83,1436542101656,5.0
84,1436542101678,5.0
85,1436542101705,5.0
86,1436542101715,5.0
87,1436542101738,5.0
88,1436542101755,5.0
89,1436542101778,5.0
90,1436542101796,5.0
91,1436542101817,5.0
92,1436542101838,5.0
93,1436542101859,5.0
94,1436542101879,5.0
95,1436542101896,5.0
96,1436542101916,5.0
97,1436542101936,5.0
98,1436542101957,5.0
99,1436542101978,5.0
100,1436542102045,5.0
101,1436542102046,5.0
102,1436542102047,5.0
103,1436542102056,5.0
104,1436542102079,5.0
105,1436542102096,5.0
106,1436542102131,5.0
107,1436542102139,5.0
108,1436542102157,5.0
109,1436542102176,5.0
110,1436542102197,5.0
111,1436542102216,5.0
112,1436542102238,5.0
113,1436542102259,5.0
114,1436542102279,5.0
115,1436542102296,5.0
116,1436542102317,5.0
117,1436542102339,5.0
118,1436542102358,5.0
119,1436542102379,5.0
120,1436542102396,5.0
121,1436542102423,5.0
122,1436542102439,5.0
123,1436542102458,5.0
124,1436542102479,5.0
125,1436542102496,5.0
126,1436542102518,5.0
127,1436542102538,5.0
128,1436542102558,5.0
129,1436542102579,5.0
130,1436542102597,5.0
131,1436542102620,5.0
132,1436542102637,5.0
133,1436542102657,5.0
134,1436542102687,5.0
135,1436542102791,5.0
136,1436542102792,5.0
137,1436542102793,5.0
138,1436542102794,5.0
139,1436542102806,5.0
140,1436542102807,5.0
141,1436542102824,5.0
142,1436542102836,5.0
143,1436542102857,5.0
144,1436542102876,5.0
145,1436542102898,5.0
146,1436542102917,5.0
147,1436542102938,5.0
148,1436542102963,5.0
149,1436542102977,5.0
150,1436542102998,5.0
151,1436542103019,5.0
152,1436542103039,5.0
153,1436542103059,5.0
154,1436542103080,5.0
155,1436542103097,5.0
156,1436542103119,5.0
157,1436542103139,5.0
158,1436542103159,5.0
159,1436542103179,5.0
160,1436542103200,5.0
161,1436542103219,5.0
162,1436542103243,5.0
163,1436542103262,5.0
164,1436542103282,5.0
165,1436542103298,5.0
166,1436542103317,5.0
167,1436542103338,5.0
168,1436542103357,5.0
169,1436542103383,5.0
170,1436542103398,5.0
171,1436542103423,5.0
172,1436542103438,5.0
173,1436542103460,5.0
174,1436542103530,5.0
175,1436542103531,5.0
176,1436542103532,5.0
177,1436542103542,5.0
178,1436542103559,5.0
179,1436542103581,5.0
180,1436542103597,5.0
181,1436542103617,5.0
182,1436542103642,5.0
183,1436542103658,5.0
184,1436542103679,5.0
185,1436542103704,5.0
186,1436542103719,5.0
187,1436542103741,5.0
188,1436542103761,5.0
189,1436542103780,5.0
190,1436542103800,5.0
191,1436542103819,5.0
192,1436542103841,5.0
193,1436542103858,5.0
194,1436542103880,5.0
195,1436542103900,5.0
196,1436542103919,5.0
197,1436542103938,5.0
198,1436542103961,5.0
199,1436542103978,5.0
200,1436542103997,5.0
201,1436542104018,5.0
202,1436542104038,5.0
203,1436542104058,5.0
204,1436542104077,5.0
205,1436542104099,5.0
206,1436542104119,5.0
207,1436542104138,5.0
208,1436542104158,5.0
209,1436542104181,5.0
210,1436542104200,5.0
211,1436542104261,5.0
212,1436542104262,5.0
213,1436542104263,5.0
214,1436542104279,5.0
215,1436542104300,5.0
216,1436542104322,5.0
217,1436542104338,5.0
218,1436542104366,5.0
219,1436542104392,5.0
220,1436542104400,5.0
221,1436542104419,5.0
222,1436542104440,5.0
223,1436542104464,5.0
224,1436542104481,5.0
225,1436542104501,5.0
226,1436542104521,5.0
227,1436542104541,5.0
228,1436542104561,5.0
229,1436542104581,5.0
230,1436542104601,5.0
231,1436542104621,5.0
232,1436542104642,5.0
233,1436542104658,5.0
234,1436542104681,5.0
235,1436542104704,5.0
236,1436542104721,5.0
237,1436542104745,5.0
238,1436542104760,5.0
239,1436542104778,5.0
240,1436542104801,5.0
241,1436542104824,5.0
242,1436542104842,5.0
243,1436542104861,5.0
244,1436542104886,5.0
245,1436542104901,6.0
246,1436542104919,6.0
247,1436542104969,6.0
248,1436542104970,6.0
249,1436542104979,6.0
250,1436542104998,6.0
251,1436542105021,6.0
252,1436542105043,6.0
253,1436542105059,7.0
254,1436542105079,7.0
255,1436542105099,8.0
256,1436542105119,8.0
257,1436542105157,8.0
258,1436542105188,8.0
259,1436542105189,9.0
260,1436542105201,9.0
261,1436542105219,8.0
262,1436542105242,8.0
263,1436542105262,8.0
264,1436542105282,8.0
265,1436542105302,8.0
266,1436542105322,8.0
267,1436542105339,8.0
268,1436542105362,8.0
269,1436542105382,8.0
270,1436542105400,8.0
271,1436542105422,8.0
272,1436542105443,8.0
273,1436542105459,8.0
274,1436542105482,8.0
275,1436542105501,8.0
276,1436542105549,8.0
277,1436542105550,8.0
278,1436542105562,8.0
279,1436542105582,7.0
280,1436542105600,7.0
281,1436542105622,7.0
282,1436542105643,7.0
283,1436542105663,7.0
284,1436542105683,7.0
285,1436542105705,7.0
286,1436542105807,7.0
287,1436542105808,6.0
288,1436542105809,6.0
289,1436542105810,6.0
290,1436542105811,6.0
291,1436542105864,6.0
292,1436542105865,6.0
293,1436542105866,6.0
294,1436542105880,6.0
295,1436542105900,6.0
296,1436542105919,5.0
297,1436542105945,5.0
298,1436542105969,5.0
299,1436542105982,5.0
300,1436542105999,5.0
301,1436542106019,5.0
302,1436542106039,4.0
303,1436542106061,4.0
304,1436542106079,4.0
305,1436542106099,4.0
306,1436542106124,3.0
307,1436542106142,3.0
308,1436542106162,3.0
309,1436542106182,3.0
310,1436542106202,3.0
311,1436542106221,3.0
312,1436542106242,4.0
313,1436542106262,4.0
314,1436542106281,5.0
315,1436542106299,5.0
316,1436542106320,6.0
317,1436542106341,6.0
318,1436542106362,6.0
319,1436542106382,6.0
320,1436542106403,6.0
321,1436542106420,6.0
322,1436542106441,8.0
323,1436542106460,8.0
324,1436542106482,9.0
325,1436542106504,9.0
326,1436542106573,11.0
327,1436542106574,11.0
328,1436542106575,11.0
329,1436542106582,11.0
330,1436542106602,11.0
331,1436542106625,11.0
332,1436542108180,10.0
333,1436542108181,10.0
334,1436542108182,10.0
335,1436542108183,11.0
336,1436542108184,11.0
337,1436542108185,11.0
338,1436542108186,11.0
339,1436542108187,10.0
340,1436542108188,10.0
341,1436542108189,9.0
342,1436542108190,9.0
343,1436542108191,9.0
344,1436542108192,9.0
345,1436542108193,8.0
346,1436542108194,8.0
347,1436542108195,9.0
348,1436542108196,9.0
349,1436542108197,8.0
350,1436542108198,8.0
351,1436542108199,7.0
352,1436542108200,7.0
353,1436542108201,7.0
354,1436542108202,7.0
355,1436542108203,6.0
356,1436542108204,6.0
357,1436542108205,6.0
358,1436542108206,6.0
359,1436542108207,5.0
360,1436542108208,5.0
361,1436542108209,4.0
362,1436542108210,4.0
363,1436542108211,3.0
364,1436542108212,3.0
365,1436542108213,3.0
366,1436542108214,3.0
367,1436542108215,3.0
368,1436542108216,3.0
369,1436542108217,3.0
370,1436542108218,3.0
371,1436542108219,5.0
372,1436542108220,5.0
373,1436542108221,7.0
374,1436542108222,7.0
375,1436542108223,8.0
376,1436542108224,8.0
377,1436542108225,8.0
378,1436542108226,8.0
379,1436542108227,9.0
380,1436542108228,11.0
381,1436542108229,11.0
382,1436542108230,13.0
383,1436542108231,13.0
384,1436542108232,13.0
385,1436542108233,13.0
386,1436542108234,13.0
387,1436542108235,13.0
388,1436542108236,11.0
389,1436542108237,11.0
390,1436542108238,11.0
391,1436542108239,11.0
392,1436542108240,12.0
393,1436542108241,12.0
394,1436542108242,12.0
395,1436542108243,12.0
396,1436542108244,11.0
397,1436542108245,11.0
398,1436542108246,11.0
399,1436542108247,11.0
400,1436542108248,11.0
401,1436542108249,11.0
402,1436542108250,11.0
403,1436542108251,11.0
404,1436542108252,10.0
405,1436542108253,10.0
406,1436542108254,9.0
407,1436542108255,9.0
408,1436542108256,9.0
409,1436542108257,9.0
410,1436542108258,8.0
411,1436542108259,8.0
412,1436542108260,6.0
413,1436542108261,6.0
414,1436542108280,4.0
415,1436542108300,4.0
416,1436542108320,3.0
417,1436542108340,3.0
418,1436542108360,3.0
419,1436542108380,3.0
420,1436542108400,2.0
421,1436542108420,2.0
422,1436542108443,2.0
423,1436542108461,4.0
424,1436542108485,4.0
425,1436542108502,7.0
426,1436542108522,7.0
427,1436542108543,8.0
428,1436542108565,8.0
429,1436542108585,9.0
430,1436542108604,9.0
431,1436542108625,10.0
432,1436542108642,10.0
433,1436542108662,11.0
434,1436542108682,11.0
435,1436542108716,13.0
436,1436542108806,13.0
437,1436542108807,15.0
438,1436542108808,15.0
439,1436542108809,15.0
440,1436542108810,15.0
441,1436542108829,13.0
442,1436542108842,13.0
443,1436542108862,12.0
444,1436542108882,12.0
445,1436542108902,12.0
446,1436542108924,12.0
447,1436542108943,13.0
448,1436542108965,13.0
449,1436542108983,12.0
450,1436542109004,12.0
451,1436542109026,13.0
452,1436542109046,13.0
453,1436542109063,12.0
454,1436542109083,12.0
455,1436542109104,12.0
456,1436542109125,12.0
457,1436542109145,12.0
458,1436542109162,12.0
459,1436542109185,11.0
460,1436542109204,11.0
461,1436542109224,10.0
462,1436542109243,10.0
463,1436542109263,9.0
464,1436542109284,9.0
465,1436542109303,7.0
466,1436542109323,7.0
467,1436542109343,6.0
468,1436542109369,5.0
469,1436542109387,5.0
470,1436542109402,4.0
471,1436542109423,4.0
472,1436542109443,4.0
473,1436542109465,4.0
474,1436542109487,4.0
475,1436542109553,4.0
476,1436542109554,4.0
477,1436542109555,4.0
478,1436542109563,6.0
479,1436542109591,6.0
480,1436542109604,8.0
481,1436542109623,8.0
482,1436542109645,10.0
483,1436542109663,10.0
484,1436542109684,11.0
485,1436542109709,11.0
486,1436542109724,12.0
487,1436542109743,12.0
488,1436542109763,13.0
489,1436542109787,13.0
490,1436542109821,15.0
491,1436542109823,15.0
492,1436542109844,16.0
493,1436542109863,16.0
494,1436542109883,15.0
495,1436542109903,15.0
496,1436542109923,14.0
497,1436542109943,14.0
498,1436542109964,13.0
499,1436542109984,13.0
500,1436542110003,13.0
501,1436542110024,13.0
502,1436542110043,13.0
503,1436542110064,13.0
504,1436542110083,12.0
505,1436542110103,12.0
506,1436542110123,13.0
507,1436542110144,13.0
508,1436542110165,12.0
509,1436542110188,12.0
510,1436542110203,12.0
511,1436542110245,12.0
512,1436542110246,12.0
513,1436542110263,11.0
514,1436542110284,11.0
515,1436542110304,10.0
516,1436542110324,10.0
517,1436542110344,9.0
518,1436542110366,9.0
519,1436542110384,8.0
520,1436542110405,8.0
521,1436542110427,7.0
522,1436542110447,7.0
523,1436542110464,6.0
524,1436542110484,6.0
525,1436542110505,5.0
526,1436542110525,5.0
527,1436542110547,5.0
528,1436542110567,5.0
529,1436542110587,5.0
530,1436542110605,5.0
531,1436542110627,6.0
532,1436542110645,6.0
533,1436542110665,8.0
534,1436542110687,8.0
535,1436542110706,10.0
536,1436542110727,10.0
537,1436542110749,12.0
538,1436542110769,12.0
539,1436542110785,13.0
540,1436542110804,13.0
541,1436542110826,14.0
542,1436542110846,14.0
543,1436542110864,16.0
544,1436542110954,16.0
545,1436542110955,17.0
546,1436542110956,17.0
547,1436542110957,17.0
548,1436542110966,17.0
549,1436542110988,16.0
550,1436542111004,16.0
551,1436542111024,14.0
552,1436542111045,14.0
553,1436542111064,14.0
554,1436542111085,14.0
555,1436542111111,15.0
556,1436542111125,14.0
557,1436542111145,14.0
558,1436542111167,14.0
559,1436542111186,14.0
560,1436542111208,14.0
561,1436542111225,14.0
562,1436542111246,14.0
563,1436542111268,14.0
564,1436542111288,13.0
565,1436542111306,13.0
566,1436542111326,12.0
567,1436542111347,12.0
568,1436542111365,12.0
569,1436542111388,12.0
570,1436542111408,11.0
571,1436542111426,11.0
572,1436542111448,9.0
573,1436542111467,9.0
574,1436542111487,8.0
575,1436542111506,8.0
576,1436542111526,6.0
577,1436542111548,6.0
578,1436542111565,5.0
579,1436542111585,5.0
580,1436542111606,5.0
581,1436542111626,5.0
582,1436542111687,5.0
583,1436542111688,5.0
584,1436542111689,6.0
585,1436542111706,6.0
586,1436542111731,8.0
587,1436542111756,8.0
588,1436542111800,11.0
589,1436542111801,11.0
590,1436542111825,14.0
591,1436542111826,14.0
592,1436542111850,15.0
593,1436542111866,15.0
594,1436542111887,17.0
595,1436542111911,17.0
596,1436542111926,20.0
597,1436542111947,20.0
598,1436542111968,22.0
599,1436542111988,22.0
600,1436542112006,22.0
601,1436542112028,21.0
602,1436542112046,21.0
603,1436542112066,19.0
604,1436542112088,19.0
605,1436542112106,19.0
606,1436542112130,19.0
607,1436542112145,19.0
608,1436542112166,19.0
609,1436542112191,19.0
610,1436542112208,19.0
611,1436542112231,17.0
612,1436542112246,17.0
613,1436542112267,18.0
614,1436542112286,18.0
615,1436542112307,18.0
616,1436542112328,18.0
617,1436542112346,18.0
618,1436542113916,18.0
619,1436542113917,16.0
620,1436542113918,16.0
621,1436542113919,15.0
622,1436542113920,15.0
623,1436542113921,13.0
624,1436542113922,13.0
625,1436542113923,11.0
626,1436542113924,11.0
627,1436542113925,8.0
628,1436542113926,8.0
629,1436542113927,6.0
630,1436542113928,6.0
631,1436542113929,5.0
632,1436542113930,5.0
633,1436542113931,5.0
634,1436542113932,5.0
635,1436542113933,4.0
636,1436542113934,4.0
637,1436542113935,4.0
638,1436542113936,4.0
639,1436542113937,5.0
640,1436542113938,5.0
641,1436542113939,8.0
642,1436542113940,8.0
643,1436542113941,12.0
644,1436542113942,12.0
645,1436542113943,15.0
646,1436542113944,17.0
647,1436542113945,17.0
648,1436542113946,18.0
649,1436542113947,18.0
650,1436542113948,22.0
651,1436542113949,22.0
652,1436542113950,25.0
653,1436542113951,25.0
654,1436542113952,25.0
655,1436542113953,25.0
656,1436542113954,23.0
657,1436542113955,23.0
658,1436542113956,20.0
659,1436542113957,20.0
660,1436542113958,19.0
661,1436542113959,19.0
662,1436542113960,20.0
663,1436542113961,20.0
664,1436542113962,21.0
665,1436542113963,21.0
666,1436542113964,21.0
667,1436542113965,21.0
668,1436542113966,19.0
669,1436542113967,19.0
670,1436542113968,18.0
671,1436542113969,18.0
672,1436542113970,17.0
673,1436542113971,17.0
674,1436542113972,16.0
675,1436542113973,16.0
676,1436542113974,15.0
677,1436542113975,15.0
678,1436542113976,11.0
679,1436542113977,11.0
680,1436542113978,9.0
681,1436542113979,9.0
682,1436542113980,7.0
683,1436542113981,7.0
684,1436542113982,6.0
685,1436542113983,6.0
686,1436542113984,5.0
687,1436542113985,5.0
688,1436542113986,5.0
689,1436542113987,5.0
690,1436542113988,4.0
691,1436542113989,4.0
692,1436542113990,4.0
693,1436542113991,6.0
694,1436542113992,6.0
695,1436542113993,10.0
696,1436542113994,10.0
697,1436542113995,15.0
698,1436542113996,15.0
699,1436542113997,17.0
700,1436542114006,17.0
701,1436542114026,19.0
702,1436542114046,19.0
703,1436542114066,23.0
704,1436542114086,23.0
705,1436542114106,28.0
706,1436542114126,28.0
707,1436542114147,30.0
708,1436542114171,30.0
709,1436542114191,29.0
710,1436542114208,29.0
711,1436542114231,26.0
712,1436542114248,26.0
713,1436542114268,24.0
714,1436542114287,24.0
715,1436542114310,24.0
716,1436542114331,24.0
717,1436542114351,26.0
718,1436542114371,26.0
719,1436542114387,23.0
720,1436542114408,23.0
721,1436542114428,23.0
722,1436542114450,23.0
723,1436542114467,22.0
724,1436542114492,22.0
725,1436542114510,21.0
726,1436542114529,21.0
727,1436542114547,20.0
728,1436542114567,20.0
729,1436542114587,19.0
730,1436542114607,19.0
731,1436542114626,16.0
732,1436542114646,16.0
733,1436542114666,13.0
734,1436542114686,9.0
735,1436542114707,9.0
736,1436542114727,6.0
737,1436542114747,6.0
738,1436542114767,6.0
739,1436542114787,6.0
740,1436542114807,6.0
741,1436542114827,6.0
742,1436542114847,5.0
743,1436542114867,5.0
744,1436542114888,5.0
745,1436542114911,5.0
746,1436542114931,5.0
747,1436542114951,5.0
748,1436542114971,8.0
749,1436542114991,8.0
750,1436542115011,18.0
751,1436542115031,18.0
752,1436542115051,25.0
753,1436542115070,25.0
754,1436542115088,27.0
755,1436542115112,27.0
756,1436542115127,32.0
757,1436542115147,32.0
758,1436542115167,39.0
759,1436542115192,39.0
760,1436542115209,43.0
761,1436542115231,43.0
762,1436542115249,44.0
763,1436542115270,44.0
764,1436542115292,40.0
765,1436542115314,40.0
766,1436542115330,37.0
767,1436542115352,37.0
768,1436542115372,37.0
769,1436542115388,37.0
770,1436542115410,40.0
771,1436542115428,40.0
772,1436542115473,37.0
773,1436542115474,37.0
774,1436542115489,34.0
775,1436542115511,34.0
776,1436542115557,32.0
777,1436542115558,32.0
778,1436542115570,30.0
779,1436542115591,29.0
780,1436542115613,29.0
781,1436542115633,27.0
782,1436542115653,27.0
783,1436542115673,24.0
784,1436542115693,24.0
785,1436542115715,21.0
786,1436542115736,21.0
787,1436542115852,18.0
788,1436542115853,18.0
789,1436542115854,14.0
790,1436542115855,14.0
791,1436542115856,12.0
792,1436542115857,12.0
793,1436542115869,9.0
794,1436542115899,9.0
795,1436542115909,8.0
796,1436542115929,8.0
797,1436542115953,8.0
798,1436542115969,8.0
799,1436542115989,8.0
800,1436542116015,8.0
801,1436542116034,10.0
802,1436542116052,10.0
803,1436542116072,15.0
804,1436542116089,15.0
805,1436542116109,22.0
806,1436542116129,22.0
807,1436542116149,25.0
808,1436542116172,25.0
809,1436542116192,27.0
810,1436542116212,27.0
811,1436542116232,33.0
812,1436542116251,33.0
813,1436542116273,40.0
814,1436542116293,40.0
815,1436542116313,44.0
816,1436542116333,44.0
817,1436542116352,44.0
818,1436542116373,44.0
819,1436542116389,40.0
820,1436542116412,40.0
821,1436542116434,36.0
822,1436542116454,36.0
823,1436542116474,37.0
824,1436542116491,40.0
825,1436542116512,40.0
826,1436542116538,34.0
827,1436542116556,34.0
828,1436542116579,34.0
829,1436542116591,34.0
830,1436542116610,31.0
831,1436542116631,31.0
832,1436542116650,30.0
833,1436542116672,30.0
834,1436542116692,30.0
835,1436542116712,30.0
836,1436542116733,28.0
837,1436542116752,28.0
838,1436542116772,24.0
839,1436542116791,24.0
840,1436542116813,21.0
841,1436542116833,21.0
842,1436542116853,17.0
843,1436542116880,17.0
844,1436542116893,15.0
845,1436542116910,15.0
846,1436542116931,12.0
847,1436542116950,12.0
848,1436542116971,10.0
849,1436542116992,10.0
850,1436542117016,9.0
851,1436542117035,9.0
852,1436542117052,9.0
853,1436542117073,9.0
854,1436542117091,10.0
855,1436542117112,10.0
856,1436542117131,13.0
857,1436542117151,13.0
858,1436542117171,20.0
859,1436542117243,20.0
860,1436542117244,27.0
861,1436542117245,27.0
862,1436542117255,31.0
863,1436542117272,31.0
864,1436542117293,36.0
865,1436542117311,36.0
866,1436542117336,43.0
867,1436542117351,48.0
868,1436542117373,48.0
869,1436542117392,48.0
870,1436542117412,48.0
871,1436542117434,44.0
872,1436542117451,44.0
873,1436542117473,40.0
874,1436542117493,40.0
875,1436542117514,39.0
876,1436542117534,39.0
877,1436542117554,41.0
878,1436542117571,41.0
879,1436542117593,38.0
880,1436542117614,38.0
881,1436542117632,35.0
882,1436542117654,35.0
883,1436542117673,32.0
884,1436542117692,32.0
885,1436542117713,31.0
886,1436542117732,31.0
887,1436542117761,32.0
888,1436542117780,32.0
889,1436542117794,30.0
890,1436542117814,30.0
891,1436542117834,27.0
892,1436542117853,27.0
893,1436542117872,24.0
894,1436542117899,24.0
895,1436542117958,20.0
