id,attr_time,attr_x,attr_y,attr_z
1,1436893598021,10.769,-35.163,-31.053
2,1436893598022,10.769,-35.163,-31.053
3,1436893598023,10.769,-35.163,-31.053
4,1436893598029,10.769,-35.163,-31.053
5,1436893598046,10.429,-35.163,-31.053
6,1436893598066,10.429,-35.163,-31.053
7,1436893598086,10.429,-35.163,-31.053
8,1436893598115,10.429,-35.163,-31.053
9,1436893598127,10.127,-35.163,-31.053
10,1436893598149,10.127,-35.163,-31.053
11,1436893598168,10.127,-35.163,-31.053
12,1436893598192,10.127,-35.163,-31.053
13,1436893598207,9.809,-35.163,-31.053
14,1436893598229,9.809,-35.163,-31.053
15,1436893598247,9.809,-35.163,-31.053
16,1436893598268,9.809,-35.163,-31.053
17,1436893598286,9.46,-35.163,-31.053
18,1436893598307,9.46,-35.163,-31.053
19,1436893598330,9.46,-35.163,-31.053
20,1436893598350,9.46,-35.163,-31.053
21,1436893598370,9.46,-35.163,-31.053
22,1436893598390,9.155,-35.163,-31.053
23,1436893598407,9.155,-35.163,-31.053
24,1436893598429,9.155,-35.163,-31.053
25,1436893598450,9.155,-35.163,-31.053
26,1436893598467,9.155,-35.163,-31.053
27,1436893598487,9.155,-35.163,-31.053
28,1436893598507,9.155,-35.163,-31.394
29,1436893598530,9.155,-35.163,-31.394
30,1436893598550,9.155,-34.831,-31.394
31,1436893598571,9.155,-34.831,-31.394
32,1436893598588,9.155,-34.831,-31.394
33,1436893598609,9.155,-34.831,-31.723
34,1436893598627,9.155,-34.831,-31.723
35,1436893598647,9.155,-34.831,-31.723
36,1436893598696,9.155,-34.831,-31.723
37,1436893598697,9.155,-34.831,-31.723
38,1436893598771,8.837,-34.831,-31.723
39,1436893598773,8.837,-34.831,-31.723
40,1436893598774,8.837,-34.831,-31.723
41,1436893598775,8.508,-34.831,-31.723
42,1436893598794,8.508,-34.831,-31.723
43,1436893598807,8.508,-34.831,-31.723
44,1436893598831,8.085,-34.831,-31.723
45,1436893598847,7.644,-34.831,-31.723
46,1436893598874,7.289,-34.831,-32.029
47,1436893598888,6.826,-34.831,-32.029
48,1436893598908,6.826,-34.831,-32.029
49,1436893598929,6.298,-34.831,-32.029
50,1436893598948,6.298,-34.831,-32.029
51,1436893598970,5.776,-34.831,-32.029
52,1436893598989,5.204,-34.831,-32.029
53,1436893599010,4.702,-35.137,-32.029
54,1436893599030,4.702,-35.137,-32.029
55,1436893599048,4.702,-35.137,-32.029
56,1436893599068,4.238,-35.137,-32.029
57,1436893599091,3.808,-35.137,-32.029
58,1436893599109,3.26,-35.137,-32.029
59,1436893599131,2.764,-35.137,-32.029
60,1436893599150,2.415,-35.137,-32.029
61,1436893599180,2.415,-35.137,-32.029
62,1436893599190,1.992,-35.137,-32.029
63,1436893599208,1.992,-35.137,-32.029
64,1436893599230,1.359,-35.137,-32.029
65,1436893599248,1.359,-35.137,-32.029
66,1436893599270,1.359,-35.137,-32.029
67,1436893599289,1.359,-35.137,-32.029
68,1436893599308,1.359,-35.137,-31.695
69,1436893599330,1.017,-35.137,-31.695
70,1436893599352,1.017,-35.137,-31.695
71,1436893599368,1.017,-35.137,-31.695
72,1436893599388,1.017,-35.453,-31.393
73,1436893599408,1.017,-35.453,-31.393
74,1436893599428,1.017,-35.453,-31.393
75,1436893599448,1.017,-35.453,-31.393
76,1436893599479,1.017,-35.453,-31.393
77,1436893599495,1.017,-35.453,-31.079
78,1436893599508,0.706,-35.453,-31.079
79,1436893599528,0.706,-35.453,-31.079
80,1436893599548,0.706,-35.453,-31.079
81,1436893599568,0.706,-35.453,-31.079
82,1436893599588,0.706,-35.453,-31.079
83,1436893599616,0.706,-35.453,-31.079
84,1436893599640,0.706,-35.786,-31.079
85,1436893599648,0.706,-35.786,-31.079
86,1436893599668,1.013,-35.786,-31.079
87,1436893599688,1.013,-35.786,-31.079
88,1436893599708,1.013,-35.786,-31.079
89,1436893599729,1.013,-35.786,-31.079
90,1436893599750,1.013,-35.786,-31.079
91,1436893599772,1.013,-35.786,-31.079
92,1436893599792,1.013,-35.786,-31.079
93,1436893599808,1.327,-35.786,-31.079
94,1436893599828,1.327,-35.786,-31.079
95,1436893599848,1.327,-35.786,-31.079
96,1436893599869,1.327,-36.135,-31.079
97,1436893599896,1.327,-36.135,-30.708
98,1436893599908,1.327,-36.135,-30.708
99,1436893599928,1.327,-36.135,-30.708
100,1436893599949,1.628,-36.135,-30.708
101,1436893599968,1.628,-36.135,-30.343
102,1436893599987,1.628,-36.135,-30.343
103,1436893600009,1.628,-36.135,-30.343
104,1436893600032,1.956,-36.135,-30.343
105,1436893600050,1.956,-36.135,-30.343
106,1436893600072,1.956,-36.135,-30.343
107,1436893600090,2.268,-36.135,-30.343
108,1436893600112,2.268,-36.135,-30.343
109,1436893600128,2.268,-36.135,-30.343
110,1436893600149,2.687,-36.135,-30.343
111,1436893600184,2.687,-36.135,-30.343
112,1436893600210,2.687,-36.135,-30.343
113,1436893600211,3.053,-36.135,-30.343
114,1436893600228,3.053,-36.135,-30.343
115,1436893600248,3.053,-36.135,-30.343
116,1436893600269,3.398,-36.135,-30.683
117,1436893600291,3.398,-36.135,-30.683
118,1436893600308,3.398,-36.135,-30.683
119,1436893600327,3.398,-36.135,-30.683
120,1436893600347,3.398,-36.135,-31.021
121,1436893600367,3.73,-36.135,-31.021
122,1436893600388,3.73,-35.818,-31.021
123,1436893600408,3.73,-35.818,-31.021
124,1436893600428,3.73,-35.818,-31.021
125,1436893600448,3.73,-35.818,-31.021
126,1436893600468,3.73,-35.818,-31.021
127,1436893600488,3.73,-35.818,-31.021
128,1436893600508,3.73,-35.818,-31.021
129,1436893600528,3.388,-35.818,-31.021
130,1436893600548,3.388,-35.818,-31.321
131,1436893600568,3.388,-35.818,-31.321
132,1436893600588,3.388,-35.514,-31.321
133,1436893600611,3.388,-35.514,-31.321
134,1436893600630,3.083,-35.514,-31.321
135,1436893600652,3.083,-35.514,-31.321
136,1436893600672,3.083,-35.514,-31.321
137,1436893600692,3.083,-35.514,-31.321
138,1436893600709,3.083,-35.514,-31.321
139,1436893600731,2.761,-35.514,-31.321
140,1436893600751,2.761,-35.514,-31.321
141,1436893600772,2.761,-35.514,-31.321
142,1436893600790,2.761,-35.514,-31.321
143,1436893600845,2.413,-35.514,-31.321
144,1436893600858,2.413,-35.514,-31.321
145,1436893600859,2.413,-35.514,-31.321
146,1436893600869,1.531,-35.514,-31.321
147,1436893600898,0.63,-35.514,-31.321
148,1436893600917,-0.041,-35.514,-31.321
149,1436893600941,-0.529,-35.514,-31.321
150,1436893600949,-0.831,-35.514,-31.321
151,1436893600971,-0.831,-35.514,-31.021
152,1436893600990,-0.831,-35.514,-31.021
153,1436893601010,-0.831,-35.514,-31.021
154,1436893601032,-0.831,-35.514,-31.021
155,1436893601051,-0.831,-35.514,-30.67
156,1436893601072,-0.831,-35.514,-30.67
157,1436893601093,-0.831,-35.514,-30.67
158,1436893601113,-0.831,-35.841,-30.67
159,1436893601133,-0.831,-35.841,-30.67
160,1436893601153,-0.831,-35.841,-30.67
161,1436893601173,-0.831,-35.841,-30.339
162,1436893601193,-1.24,-35.841,-30.339
163,1436893601213,-1.24,-36.17,-30.339
164,1436893601230,-1.24,-36.17,-30.339
165,1436893601250,-1.24,-36.17,-29.974
166,1436893601273,-1.588,-36.511,-29.974
167,1436893601293,-1.588,-36.511,-29.974
168,1436893601313,-1.588,-36.511,-29.562
169,1436893601333,-1.588,-36.891,-29.562
170,1436893601353,-1.588,-36.891,-29.127
171,1436893601373,-2.009,-36.891,-28.28
172,1436893601393,-2.377,-37.322,-27.789
173,1436893601413,-3.053,-37.322,-27.789
174,1436893601433,-3.645,-37.635,-27.249
175,1436893601453,-4.112,-37.635,-26.597
176,1436893601473,-4.505,-37.635,-26.597
177,1436893601490,-4.505,-38.079,-26.597
178,1436893601510,-4.505,-38.079,-26.214
179,1436893601567,-4.852,-38.392,-26.214
180,1436893601568,-4.852,-38.392,-26.214
181,1436893601583,-4.852,-38.392,-26.214
182,1436893601593,-4.852,-38.763,-26.214
183,1436893601612,-4.852,-38.763,-26.214
184,1436893601630,-4.852,-38.763,-26.214
185,1436893601650,-4.852,-38.763,-26.214
186,1436893601670,-4.852,-38.763,-25.871
187,1436893601691,-4.852,-38.763,-25.871
188,1436893601710,-4.852,-39.064,-25.871
189,1436893601730,-4.852,-39.064,-25.871
190,1436893601751,-4.852,-39.064,-25.871
191,1436893601775,-4.852,-39.064,-25.871
192,1436893601793,-4.852,-39.064,-25.871
193,1436893601813,-4.852,-39.064,-25.871
194,1436893601833,-4.852,-39.064,-25.871
195,1436893601853,-4.852,-39.064,-26.277
196,1436893601873,-4.852,-39.064,-26.277
197,1436893601893,-4.852,-39.064,-26.277
198,1436893601913,-4.852,-38.749,-26.277
199,1436893601933,-4.512,-38.749,-26.277
200,1436893601953,-4.512,-38.749,-26.277
201,1436893601971,-4.512,-38.749,-26.277
202,1436893601991,-4.512,-38.749,-26.277
203,1436893602013,-6.423,-38.749,-26.277
204,1436893602034,-8.358,-38.749,-24.343
205,1436893602052,-9.861,-38.749,-23.24
206,1436893602070,-10.993,-38.749,-21.484
207,1436893602093,-11.732,-38.749,-20.574
208,1436893602114,-11.732,-38.749,-19.931
209,1436893602134,-12.174,-39.129,-19.279
210,1436893602154,-12.174,-39.129,-18.605
211,1436893602173,-12.174,-39.45,-17.745
212,1436893602193,-12.174,-39.45,-16.979
213,1436893602213,-13.125,-39.851,-15.997
214,1436893602233,-13.432,-40.161,-15.524
215,1436893602252,-13.432,-40.507,-14.491
216,1436893602306,-13.888,-40.507,-13.542
217,1436893602307,-14.247,-40.997,-13.069
218,1436893602324,-14.247,-40.997,-12.045
219,1436893602330,-14.247,-41.461,-11.7
220,1436893602352,-14.247,-41.461,-11.7
221,1436893602373,-14.247,-41.461,-10.803
222,1436893602391,-14.247,-41.862,-10.803
223,1436893602412,-13.888,-41.862,-10.803
224,1436893602431,-13.888,-41.862,-10.102
225,1436893602452,-13.888,-42.219,-10.102
226,1436893602473,-13.888,-42.219,-9.333
227,1436893602491,-14.283,-42.565,-9.333
228,1436893602515,-14.283,-42.565,-8.808
229,1436893602534,-14.283,-42.565,-8.808
230,1436893602554,-14.68,-42.979,-8.808
231,1436893602574,-14.68,-42.979,-8.808
232,1436893602594,-14.68,-42.979,-8.384
233,1436893602614,-14.987,-43.281,-8.03
234,1436893602634,-14.987,-43.281,-8.03
235,1436893602654,-14.987,-43.281,-8.03
236,1436893602674,-14.987,-43.281,-7.429
237,1436893602694,-14.987,-43.281,-7.429
238,1436893602711,-14.987,-43.595,-6.953
239,1436893602734,-15.316,-43.595,-6.953
240,1436893602755,-15.316,-43.595,-6.953
241,1436893602772,-15.316,-43.595,-6.953
242,1436893602792,-15.647,-43.595,-6.953
243,1436893602811,-15.647,-43.595,-6.953
244,1436893602831,-15.647,-43.595,-6.953
245,1436893602852,-16.029,-43.595,-6.953
246,1436893602874,-16.029,-43.595,-6.953
247,1436893602894,-16.029,-43.595,-6.953
248,1436893602915,-16.366,-43.595,-6.953
249,1436893602935,-16.366,-43.595,-7.33
250,1436893602954,-16.366,-43.26,-7.843
251,1436893602979,-16.783,-43.26,-8.598
252,1436893603037,-16.783,-43.26,-9.786
253,1436893603038,-17.085,-42.884,-10.949
254,1436893603039,-17.085,-42.884,-11.63
255,1436893603065,-17.085,-42.553,-13.287
256,1436893603071,-17.428,-42.553,-14.408
257,1436893603091,-17.428,-42.231,-14.901
258,1436893603114,-17.428,-42.231,-15.502
259,1436893603131,-17.428,-41.888,-16.201
260,1436893603156,-17.428,-41.888,-16.78
261,1436893603173,-17.428,-41.529,-16.78
262,1436893603192,-17.428,-41.529,-17.231
263,1436893603212,-17.059,-41.529,-17.774
264,1436893603232,-16.52,-41.087,-17.774
265,1436893603253,-16.111,-41.087,-17.774
266,1436893603275,-15.275,-41.087,-18.383
267,1436893603295,-14.64,-40.716,-18.884
268,1436893603315,-13.993,-40.716,-19.477
269,1436893603335,-13.436,-40.716,-19.477
270,1436893603355,-12.211,-40.716,-20.281
271,1436893603375,-11.549,-40.357,-20.281
272,1436893603395,-10.781,-40.357,-20.806
273,1436893603415,-9.838,-40.357,-20.806
274,1436893603435,-9.457,-40.357,-20.806
275,1436893603453,-8.891,-40.357,-21.406
276,1436893603474,-8.428,-40.357,-21.823
277,1436893603493,-7.972,-40.357,-21.823
278,1436893603513,-7.272,-40.357,-21.823
279,1436893603532,-7.272,-40.357,-21.823
280,1436893603553,-6.857,-40.357,-21.493
281,1436893603576,-6.282,-40.357,-21.493
282,1436893603597,-5.621,-40.357,-21.838
283,1436893603617,-5.299,-40.357,-21.838
284,1436893603635,-4.725,-40.357,-21.838
285,1436893603653,-4.336,-40.357,-21.838
286,1436893603674,-3.44,-40.357,-21.838
287,1436893603694,-3.44,-40.357,-22.227
288,1436893603712,-2.828,-40.357,-22.227
289,1436893603732,-2.828,-40.357,-22.691
290,1436893603783,-2.441,-40.357,-22.691
291,1436893603784,-2.441,-40.357,-23.057
292,1436893603803,-2.033,-40.357,-23.057
293,1436893603812,-1.661,-40.357,-23.381
294,1436893603836,-1.661,-40.357,-23.381
295,1436893603854,-1.118,-40.357,-23.381
296,1436893603874,-1.445,-40.357,-23.768
297,1436893603894,-1.445,-40.043,-23.768
298,1436893603913,-1.445,-40.043,-23.768
299,1436893603933,-1.445,-40.043,-24.14
300,1436893603953,-1.445,-40.043,-24.14
301,1436893603976,-1.445,-40.043,-24.511
302,1436893603992,-1.445,-40.043,-24.511
303,1436893604015,-1.445,-39.707,-24.911
304,1436893604035,-1.094,-39.707,-24.911
305,1436893604055,-1.094,-39.707,-25.218
306,1436893604075,-0.776,-39.707,-25.218
307,1436893604095,-0.776,-39.707,-25.218
308,1436893604115,-0.776,-39.389,-25.547
309,1436893604135,-0.465,-39.389,-25.547
310,1436893604155,-0.465,-39.389,-25.547
311,1436893605748,-0.465,-39.389,-25.547
312,1436893605749,-0.465,-39.389,-25.547
313,1436893605750,-0.465,-39.389,-25.888
314,1436893605751,-0.465,-39.085,-25.888
315,1436893605752,-0.465,-39.085,-25.888
316,1436893605753,-0.465,-39.085,-25.888
317,1436893605754,-0.465,-39.085,-25.888
318,1436893605755,-0.465,-39.085,-25.888
319,1436893605756,-0.827,-39.085,-25.888
320,1436893605757,-0.827,-39.085,-25.888
321,1436893605758,-2.142,-39.085,-25.888
322,1436893605759,-2.954,-39.085,-25.888
323,1436893605760,-3.71,-39.085,-25.888
324,1436893605761,-4.396,-39.085,-25.888
325,1436893605762,-5.131,-39.085,-25.582
326,1436893605763,-5.514,-39.085,-25.582
327,1436893605764,-5.911,-39.085,-25.222
328,1436893605765,-6.365,-39.085,-25.222
329,1436893605766,-6.365,-39.085,-24.705
330,1436893605767,-6.365,-39.085,-24.705
331,1436893605768,-6.365,-39.39,-23.951
332,1436893605769,-6.365,-39.39,-23.951
333,1436893605770,-6.365,-39.39,-23.484
334,1436893605771,-6.365,-39.39,-23.484
335,1436893605772,-5.867,-39.761,-23.484
336,1436893605773,-5.867,-39.761,-23.484
337,1436893605774,-5.867,-39.761,-23.484
338,1436893605775,-5.867,-39.761,-23.484
339,1436893605776,-5.867,-39.761,-23.484
340,1436893605777,-5.867,-40.061,-23.138
341,1436893605778,-5.867,-40.061,-23.138
342,1436893605779,-5.867,-40.061,-23.138
343,1436893605780,-4.734,-40.061,-23.138
344,1436893605781,-3.694,-40.061,-23.138
345,1436893605782,-3.179,-40.061,-23.138
346,1436893605783,-2.349,-40.061,-24.639
347,1436893605784,-1.841,-40.061,-25.085
348,1436893605785,-0.827,-40.061,-25.46
349,1436893605786,-0.21,-39.678,-26.229
350,1436893605787,0.527,-39.678,-26.829
351,1436893605788,1.194,-39.678,-27.197
352,1436893605789,1.844,-39.112,-27.197
353,1436893605790,2.209,-39.112,-27.197
354,1436893605791,2.647,-38.592,-27.197
355,1436893605792,2.97,-38.592,-27.589
356,1436893605793,3.64,-38.592,-28.045
357,1436893605794,3.64,-38.592,-28.045
358,1436893605795,4.104,-38.244,-28.045
359,1436893605796,4.104,-38.244,-28.045
360,1436893605797,4.504,-38.244,-28.045
361,1436893605798,4.504,-37.847,-28.045
362,1436893605799,4.504,-37.847,-28.045
363,1436893605800,5.033,-37.847,-28.045
364,1436893605801,5.033,-37.535,-28.045
365,1436893605802,5.033,-37.535,-28.045
366,1436893605803,5.033,-37.535,-28.376
367,1436893605804,5.033,-37.535,-28.376
368,1436893605805,5.033,-37.535,-28.376
369,1436893605806,4.679,-37.535,-28.376
370,1436893605807,4.679,-37.535,-28.376
371,1436893605808,4.679,-37.535,-28.376
372,1436893605809,5.043,-37.535,-28.686
373,1436893605810,5.043,-37.535,-28.686
374,1436893605811,5.043,-37.535,-28.686
375,1436893605812,5.427,-37.535,-28.686
376,1436893605813,5.427,-37.535,-28.686
377,1436893605814,5.427,-37.535,-28.686
378,1436893605815,5.76,-37.535,-28.686
379,1436893605816,5.76,-37.535,-28.686
380,1436893605817,5.76,-37.535,-28.686
381,1436893605818,5.76,-37.535,-28.686
382,1436893605819,5.76,-37.535,-28.686
383,1436893605820,5.76,-37.535,-28.686
384,1436893605821,5.76,-37.535,-28.686
385,1436893605822,5.76,-37.535,-28.686
386,1436893605823,5.76,-37.535,-28.686
387,1436893605824,5.76,-37.535,-28.686
388,1436893605825,5.76,-37.535,-28.686
389,1436893605826,5.024,-37.535,-28.686
390,1436893605827,4.171,-37.535,-28.686
391,1436893605828,3.286,-37.535,-28.686
392,1436893605829,2.262,-37.535,-28.686
393,1436893605830,1.76,-37.535,-28.686
394,1436893605833,1.203,-37.535,-28.337
395,1436893605853,-0.146,-37.535,-28.337
396,1436893605873,-0.146,-37.535,-28.337
397,1436893605893,-0.546,-37.849,-28.337
398,1436893605913,-0.981,-37.849,-27.902
399,1436893605933,-1.672,-37.849,-27.902
400,1436893605953,-2.258,-37.849,-27.902
401,1436893605973,-3.125,-37.849,-27.514
402,1436893605993,-3.125,-38.171,-27.514
403,1436893606015,-4.251,-38.171,-27.514
404,1436893606034,-5.206,-38.171,-27.119
405,1436893606055,-5.816,-38.171,-27.119
406,1436893606076,-6.971,-38.171,-27.119
407,1436893606098,-7.44,-38.171,-26.66
408,1436893606115,-8.268,-38.171,-26.66
409,1436893606137,-9.375,-38.171,-26.301
410,1436893606155,-10.462,-38.171,-26.301
411,1436893606175,-11.369,-38.171,-25.378
412,1436893606197,-12.411,-38.171,-24.951
413,1436893606218,-13.624,-38.171,-24.404
414,1436893606236,-14.724,-38.171,-23.46
415,1436893606256,-15.663,-38.171,-22.715
416,1436893606276,-16.859,-38.171,-21.882
417,1436893606295,-17.671,-38.171,-20.637
418,1436893606378,-18.757,-38.171,-19.715
419,1436893606379,-19.372,-38.171,-18.911
420,1436893606380,-20.251,-38.171,-17.63
421,1436893606381,-20.964,-38.171,-17.012
422,1436893606398,-21.846,-38.171,-16.259
423,1436893606414,-22.506,-37.806,-15.147
424,1436893606435,-23.197,-37.806,-13.945
425,1436893606454,-23.866,-37.806,-12.449
426,1436893606475,-24.366,-37.806,-12.014
427,1436893606494,-24.366,-37.806,-12.014
428,1436893606517,-25.03,-37.455,-11.14
429,1436893606546,-25.03,-37.455,-11.14
430,1436893606555,-25.505,-37.455,-9.977
431,1436893606578,-25.505,-37.455,-9.657
432,1436893606600,-25.505,-37.455,-8.949
433,1436893606615,-25.505,-37.455,-8.949
434,1436893606634,-25.505,-37.455,-8.438
435,1436893606657,-25.004,-37.455,-8.438
436,1436893606678,-25.004,-37.142,-8.438
437,1436893606698,-24.679,-37.142,-8.438
438,1436893606717,-24.679,-37.142,-8.438
439,1436893606738,-25.111,-37.142,-8.438
440,1436893606757,-25.111,-37.142,-8.438
441,1436893606775,-25.111,-37.142,-9.054
442,1436893606798,-25.111,-36.756,-9.735
443,1436893606818,-25.54,-36.756,-9.735
444,1436893606838,-25.54,-36.756,-9.349
445,1436893606857,-25.918,-36.41,-9.349
446,1436893606877,-25.918,-36.41,-9.349
447,1436893606897,-26.298,-36.41,-9.349
448,1436893606918,-26.724,-35.955,-9.349
449,1436893606938,-27.394,-35.058,-9.349
450,1436893606957,-27.989,-33.988,-10.896
451,1436893606977,-27.989,-32.867,-13.774
452,1436893606995,-27.989,-31.608,-16.987
453,1436893607015,-27.989,-29.821,-19.461
454,1436893607035,-27.36,-28.785,-21.62
455,1436893607056,-27.058,-27.754,-23.675
456,1436893607077,-27.058,-26.962,-25.372
457,1436893607098,-26.652,-26.231,-26.606
458,1436893607115,-26.208,-26.231,-27.14
459,1436893607135,-25.714,-26.231,-27.723
460,1436893607155,-25.032,-26.231,-27.723
461,1436893607175,-25.032,-26.231,-27.146
462,1436893607196,-24.725,-26.832,-27.146
463,1436893607229,-24.725,-27.363,-25.994
464,1436893607235,-24.725,-28.994,-25.047
465,1436893607255,-24.725,-29.82,-23.394
466,1436893607275,-24.423,-31.175,-22.059
467,1436893607295,-23.838,-32.272,-19.729
468,1436893607317,-24.275,-33.605,-17.652
469,1436893607336,-24.275,-34.939,-14.878
470,1436893607355,-23.535,-36.619,-13.116
471,1436893607375,-22.901,-38.146,-10.258
472,1436893607395,-22.286,-39.727,-8.914
473,1436893607416,-21.415,-40.414,-7.496
474,1436893607435,-20.169,-41.32,-7.496
475,1436893607455,-19.404,-41.683,-6.481
476,1436893607476,-18.731,-42.019,-5.668
477,1436893607496,-18.731,-42.019,-4.705
478,1436893607516,-19.39,-42.019,-4.705
479,1436893607536,-19.778,-42.019,-3.746
480,1436893607555,-20.396,-41.519,-2.261
481,1436893607576,-20.951,-41.186,-1.687
482,1436893607595,-21.339,-40.66,-1.13
483,1436893607615,-21.885,-40.66,-1.77
484,1436893607635,-22.265,-39.976,-2.516
485,1436893607655,-22.265,-39.976,-3.784
486,1436893607677,-22.779,-39.41,-5.293
487,1436893607697,-22.779,-39.41,-6.423
488,1436893607715,-22.373,-39.41,-7.91
489,1436893607735,-21.934,-39.41,-10.11
490,1436893607755,-21.934,-39.41,-11.946
491,1436893607777,-22.474,-38.311,-13.536
492,1436893607796,-22.474,-36.88,-15.071
493,1436893607815,-22.474,-35.841,-17.118
494,1436893607835,-22.474,-35.07,-18.791
