id,attr_time,attr_db
1,1435990454484,57.730738071668
2,1435990455096,46.3817836552738
3,1435990455805,54.5927177467712
4,1435990456470,54.4441899775811
5,1435990458002,42.8111182092302
6,1435990458674,39.1616328274091
7,1435990459492,38.2061344219128
8,1435990460340,39.2426602332918
9,1435990461054,55.4632756367402
10,1435990461762,59.0503838753737
11,1435990462492,43.7524218112206
12,1435990463236,58.5306034685957
13,1435990463984,45.9426060264432
14,1435990464759,40.6042290081021
15,1435990465487,39.0340690306393
16,1435990466219,43.0555050071579
17,1435990466946,40.4270371564439
18,1435990467721,43.1266956871621
19,1435990468452,46.9406893060021
20,1435990469180,46.7686576075081
21,1435990469920,40.7898475503406
22,1435990470656,42.1566055005904
23,1435990471388,41.1929227572238
24,1435990472087,46.7556123847877
25,1435990472773,39.2952988519996
26,1435990473462,40.4186340811094
27,1435990474180,38.6871765518064
28,1435990474916,48.649638622792
29,1435990475690,45.7014953659905
30,1435990476415,38.8972407264733
31,1435990477113,47.4105794276298
32,1435990478810,39.8862775186136
33,1435990479555,44.3038551201477
34,1435990480290,45.8610154857929
35,1435990481022,42.3256335026016
36,1435990481790,38.6851453567137
37,1435990482452,34.0080350335715
38,1435990483156,47.8993939574551
39,1435990483849,36.6758701196566
40,1435990484562,35.8098271806777
41,1435990485302,37.8722803428526
42,1435990486016,38.5058417544423
43,1435990486777,36.1088004372556
44,1435990487468,38.6562701818265
45,1435990488206,37.8371141542039
46,1435990488933,42.8165963778655
47,1435990489735,50.9782483866941
48,1435990490455,36.1168213400533
49,1435990491184,35.9971420429687
50,1435990491900,43.850085740772
51,1435990492627,46.9037453316183
52,1435990493274,45.4681363892081
53,1435990494017,42.1123973708406
54,1435990494783,38.6039419978445
55,1435990495510,38.2643480302168
56,1435990496231,37.372453709041
57,1435990496955,38.9763371336824
58,1435990497720,42.2817414130168
59,1435990498443,38.9221582779735
60,1435990499157,40.8271995467571
61,1435990499894,39.5625366385684
62,1435990500642,41.3137530218973
63,1435990501370,44.9146582675497
64,1435990502098,38.1987890313582
65,1435990502819,44.0763519229366
66,1435990503551,45.7869780885668
67,1435990504256,48.9766527077736
68,1435990504984,39.7579790538252
69,1435990505748,39.8221536868393
70,1435990506442,39.8863052556758
71,1435990507990,47.3851117456727
72,1435990508640,39.0634590445066
73,1435990509328,46.4033992144278
74,1435990510061,44.3312345260395
75,1435990510776,39.6786297125574
76,1435990511533,59.4487719379071
77,1435990512270,43.4205508915243
78,1435990513320,44.8117523751466
79,1435990514026,43.0735971071552
80,1435990514804,42.881030010014
81,1435990515532,45.8900463119149
82,1435990516260,44.1427136369144
83,1435990516992,42.6627058805041
84,1435990517724,44.6292207160311
85,1435990518459,46.0039472217271
86,1435990519197,47.1512021459491
87,1435990519925,47.7516000691243
88,1435990520658,52.163172626864
89,1435990521312,55.2574232388839
90,1435990522023,58.0114098779699
91,1435990522753,56.6564185472107
92,1435990523470,55.8450513199265
93,1435990524217,57.2361823689634
94,1435990524932,58.8476865075181
95,1435990526697,57.5353087365085
96,1435990527431,57.546601402839
97,1435990528144,47.2245005918438
98,1435990528876,48.2010999550978
99,1435990529633,41.8559713062044
100,1435990530444,38.4911797643926
101,1435990531168,38.053183590882
102,1435990531832,36.9790232346951
103,1435990532606,39.7583352823538
104,1435990533349,42.1715588647586
105,1435990533950,37.558062897802
106,1435990534656,35.324928110367
107,1435990535421,40.3851470713242
108,1435990536089,36.5310429312021
109,1435990536808,42.6879245931128
110,1435990537556,65.1756088596883
111,1435990538284,62.7395804858077
112,1435990539016,37.1644189896363
113,1435990539749,34.0545957830673
114,1435990540548,54.2351248632164
115,1435990541251,43.7827117155998
116,1435990542003,35.5940669472879
117,1435990542733,36.7744644289418
118,1435990543508,56.5999333829816
119,1435990544240,42.4721412345942
120,1435990545018,34.1265676739807
121,1435990545758,36.6105417971006
122,1435990546512,43.1391597293552
123,1435990547218,49.5699295197752
124,1435990547871,43.4350257310575
125,1435990548525,32.8391562417996
126,1435990549204,32.2377308125608
127,1435990549983,32.9392565953307
128,1435990550761,47.1877444086177
129,1435990551457,39.6947253790032
130,1435990552038,42.7146123497033
131,1435990552719,45.5361082318836
132,1435990553462,42.7386222443734
133,1435990554134,32.1268047977969
134,1435990554861,47.0954571222678
135,1435990555704,48.9144468660574
136,1435990556369,49.1378087886635
137,1435990557112,40.8521613569591
138,1435990557857,34.104915690911
139,1435990558589,37.1058421922498
140,1435990559329,39.8084301291969
141,1435990560117,61.2261105317902
142,1435990560840,35.2225824413456
143,1435990561522,31.0125954098645
144,1435990562263,41.6851424781792
145,1435990563003,39.6643393586044
146,1435990563657,58.1368064032513
147,1435990564379,43.0006613770698
148,1435990565144,42.6251370627357
149,1435990565904,51.1022071275808
150,1435990566656,39.3689167618264
151,1435990567402,56.008728207203
152,1435990568134,36.9097232042631
153,1435990568857,52.3423020748268
154,1435990569681,59.956325696136
155,1435990570314,39.5729255702511
156,1435990571000,44.383484238099
157,1435990571731,46.1766895318173
158,1435990572454,44.2463333037294
159,1435990573126,35.6041153176889
160,1435990573729,46.7148536264339
161,1435990574473,45.69689493856
162,1435990575197,49.2729957835631
163,1435990575945,42.2905314174275
164,1435990576697,58.5808162942951
165,1435990577391,37.5013094135902
166,1435990578046,53.7973306642988
167,1435990578751,53.5215750635162
168,1435990579508,37.8289644000091
169,1435990580248,47.3692046641449
170,1435990580993,37.8130073066894
171,1435990581727,36.3235557397058
172,1435990582447,41.2802039191482
173,1435990583115,43.0853491637982
174,1435990583760,45.5683456641927
175,1435990584497,40.4553418729059
176,1435990585233,31.928992226501
177,1435990585956,27.9865838455337
178,1435990586693,35.2340020688457
179,1435990587414,36.9410158498908
180,1435990588150,35.9135004998117
181,1435990588894,33.8273444947364
182,1435990589574,35.3056960592638
183,1435990590292,38.5309223278827
184,1435990591019,29.2882416971995
185,1435990591750,35.1557274212737
186,1435990592475,44.3474863665288
187,1435990593242,41.8614274963872
188,1435990593921,54.5674646604852
189,1435990594493,37.182369275272
190,1435990595149,32.2618752761117
191,1435990595773,37.4278739707719
192,1435990596480,35.4800240508831
193,1435990597214,54.8848463987945
194,1435990597954,55.0149680677207
195,1435990598745,53.4847139970576
196,1435990599472,40.4783162842243
197,1435990600193,34.2581940083639
198,1435990600922,46.6926487626355
199,1435990601644,42.3548133044739
200,1435990602375,42.0161766241562
201,1435990603108,40.2341008435164
202,1435990603821,42.7426405437259
203,1435990604421,39.0411188991592
204,1435990605067,40.2507133626056
205,1435990605732,34.5330609203198
206,1435990606460,42.7857177341323
207,1435990607202,38.059417507835
208,1435990607949,54.0886148062075
209,1435990608732,41.2808279876174
210,1435990609495,41.2071499018243
211,1435990610239,41.8796723453801
212,1435990610983,45.1967470641128
213,1435990611717,40.8220512272527
214,1435990612443,35.7548014353741
215,1435990613185,42.1543445964111
216,1435990613904,53.1377597431413
217,1435990614558,44.9593474497542
218,1435990615317,40.6899095608019
219,1435990616050,35.3042763322244
220,1435990616784,40.1343286993757
221,1435990617530,37.3940765694515
222,1435990618272,47.3706942627043
223,1435990618926,42.2202331943576
224,1435990619672,65.7931178583615
225,1435990620409,42.5503993604615
226,1435990621116,43.7652726303376
227,1435990621845,63.4029087581503
228,1435990622574,42.5303503199016
229,1435990623304,43.8531994664069
230,1435990624066,37.7022500907639
231,1435990624707,43.8221290406673
232,1435990625393,59.4518565904681
233,1435990626082,39.2653674945547
234,1435990626833,44.9952080972821
235,1435990627598,38.8103850808648
236,1435990628327,55.6438969517717
237,1435990629065,40.690143485225
238,1435990629800,33.8469267453842
239,1435990630475,44.9190368814498
240,1435990631211,35.1491741040879
241,1435990631943,45.60168537092
242,1435990632664,39.0089205052712
243,1435990633406,45.597997116221
244,1435990634135,44.4509503939728
245,1435990634813,42.199390241633
246,1435990635439,44.1871674957966
247,1435990636116,40.7381408737847
248,1435990636845,42.8270316732854
249,1435990637608,42.7706010575556
250,1435990638342,42.2519729399124
251,1435990639078,49.4012786621399
252,1435990639806,44.5742940846474
253,1435990640575,42.897440921637
254,1435990641346,46.7899709238628
255,1435990642082,40.4789485069496
256,1435990642806,42.8018975329211
257,1435990643554,44.1958117840147
258,1435990644283,40.286631885032
259,1435990645006,50.4864431748527
260,1435990645740,39.0857225191374
261,1435990646499,38.7984009988456
262,1435990647235,37.3049876311902
263,1435990647973,34.9661986511743
264,1435990648703,38.9456552219911
265,1435990649438,29.3040239100135
266,1435990650174,35.5837083464288
267,1435990650861,38.3689041142633
268,1435990651500,44.5776341240948
269,1435990652196,36.0000636738767
270,1435990652946,34.1956814591742
271,1435990653695,39.4178692475351
272,1435990654438,38.2618297018099
273,1435990655140,43.3086647893995
274,1435990655799,47.1444002361005
275,1435990656464,37.5602521702489
276,1435990657192,36.945945967966
277,1435990657938,34.4075104605547
278,1435990658668,37.8121294581993
279,1435990659410,35.7220883226099
280,1435990660142,45.110109848523
281,1435990660815,40.0245726241587
282,1435990662231,34.2882698055997
283,1435990662981,36.8075072509641
284,1435990663734,41.5034300962655
285,1435990664475,40.5669603746315
286,1435990665214,41.9263788314559
287,1435990665978,43.1910526515742
288,1435990666772,50.0655455124799
289,1435990667508,47.5681712265479
290,1435990668244,42.292735873143
291,1435990668984,46.9797056186424
292,1435990669724,40.1278774580873
293,1435990670471,40.2223323197158
294,1435990671190,46.329958526601
295,1435990671862,46.0508189414599
296,1435990672517,39.5687049960229
297,1435990673242,37.96643882394
298,1435990673973,53.6421287302982
299,1435990674715,41.6636078799092
300,1435990675526,42.980179276415
301,1435990676215,43.2623159594176
302,1435990676819,52.1739364701923
303,1435990677556,37.6585813492212
304,1435990678287,50.4549424544074
305,1435990679018,38.2931692204043
306,1435990679754,39.4730366751456
307,1435990680494,44.9526055633266
308,1435990681240,47.3890729230224
309,1435990681925,36.2916817074698
310,1435990682566,41.1714068688146
311,1435990683308,38.6066655425141
312,1435990684026,39.2419810770215
313,1435990684748,38.1916296285362
314,1435990685505,39.7850353583156
315,1435990686944,44.0080605102717
316,1435990687617,46.0854849218663
317,1435990688334,36.6126829934384
318,1435990689042,52.0923431980645
319,1435990689931,42.0411096482021
320,1435990690659,38.3428688192468
321,1435990691378,43.5468052489602
322,1435990692077,38.4363234920944
323,1435990692762,45.632922174767
324,1435990693516,40.219736278433
325,1435990694216,35.9471233407141
326,1435990694961,35.9895022595695
327,1435990695734,41.6025077484804
328,1435990696331,34.4938650788105
329,1435990696960,38.5337429263293
330,1435990697660,35.5528673478459
331,1435990698397,39.4022255526502
332,1435990699215,40.4511818057978
333,1435990699897,38.6863752969552
334,1435990700656,36.8433793102092
335,1435990701424,36.185396471814
336,1435990702148,39.1134693953767
337,1435990702792,35.5184229665441
338,1435990703562,41.2201978238548
339,1435990704310,37.5655479344308
340,1435990705083,41.0076492199899
341,1435990705865,35.8588670270588
342,1435990706621,40.2963632528109
343,1435990707351,37.8524581357872
344,1435990708149,38.5435406371047
345,1435990708869,36.8929796437778
346,1435990709593,40.5678432737065
347,1435990710247,38.5014527915735
348,1435990710988,47.8257179532204
349,1435990711688,35.0327573567062
350,1435990712337,43.2478187071573
351,1435990713007,41.5899527893286
352,1435990713757,40.5758576259488
353,1435990714524,51.5875493002227
354,1435990715171,39.671582519062
355,1435990715849,41.1659709002817
356,1435990716640,43.3982344810973
357,1435990717339,42.5005674492517
358,1435990718112,36.7110919536003
359,1435990718781,37.0141216436178
360,1435990719495,38.0675646945811
361,1435990720272,40.9820445115339
362,1435990721002,40.1319745763426
363,1435990721730,39.0106815310572
364,1435990722452,41.9431092742287
365,1435990724590,35.4513411510238
366,1435990725321,37.0802406837981
367,1435990726044,38.1076659206677
368,1435990726771,37.6984661078382
369,1435990727518,36.4730792599847
370,1435990728242,38.7105769112903
371,1435990728947,48.1054337899269
372,1435990729669,46.4660728364932
373,1435990730405,43.7841383383149
374,1435990731113,40.2721050782705
375,1435990731848,42.904986257455
376,1435990732582,37.1762321600595
377,1435990733308,44.2943548841292
378,1435990734020,39.8685724431808
379,1435990734773,46.2029411846538
380,1435990735524,39.3498511139778
381,1435990736255,42.9746674933287
382,1435990736992,41.9122165422087
383,1435990737730,43.0995412666855
384,1435990738444,39.6972649019846
385,1435990739117,41.557627327691
386,1435990739875,45.7170177616677
387,1435990740618,44.7926668144758
388,1435990741348,38.8662571937294
389,1435990742069,39.7040602200006
390,1435990742772,39.8682075385774
391,1435990743427,46.023171266221
392,1435990744103,41.2136561239047
393,1435990744802,40.8295411670817
394,1435990745470,33.0218573950315
395,1435990746712,45.4435793972635
396,1435990747447,37.4457586968804
397,1435990748207,32.5450716452725
398,1435990748876,40.1595241726528
399,1435990749578,34.9558454740115
400,1435990750309,33.3642894672896
401,1435990751041,44.342187393674
402,1435990751786,36.4794189252201
403,1435990752525,41.3024796666987
404,1435990753249,37.600554951182
405,1435990753967,45.7706046885232
406,1435990754622,42.7276084559801
407,1435990755844,36.235532859496
408,1435990756485,31.4609574112923
409,1435990757190,35.7626359463547
410,1435990757929,35.2122811533819
411,1435990758713,37.7875753502449
412,1435990759342,43.6068663822301
413,1435990760015,44.1444170603526
414,1435990760743,39.7495161687424
415,1435990761560,39.6434324361665
416,1435990762276,43.6901816144603
417,1435990763034,32.8946133429588
418,1435990763771,31.443074216767
419,1435990764552,41.6785733760388
420,1435990765274,32.4221500396173
421,1435990765995,35.2761782643177
422,1435990766712,34.9970389535949
423,1435990767388,35.9493157031242
424,1435990768122,35.3504467625012
425,1435990768840,35.8317880746216
426,1435990769658,29.438622333913
427,1435990770368,38.3299325623479
428,1435990771087,41.049409587865
429,1435990771812,36.7544118740031
430,1435990772558,32.4993169686544
431,1435990773288,59.2608527496099
432,1435990774017,58.536028794662
433,1435990774738,41.0030920857825
434,1435990775475,42.738393788914
435,1435990776202,37.907198986999
436,1435990776958,34.4266648733698
437,1435990777692,45.6213506485335
438,1435990778431,34.3403646075529
439,1435990779212,47.737161324698
440,1435990779905,43.1829390051428
441,1435990780663,55.584709832596
442,1435990781397,55.9443470081404
443,1435990782113,44.188814439295
444,1435990782833,38.6519723274817
445,1435990783617,32.5119498795745
446,1435990784352,46.3024468802035
447,1435990785090,56.2352180627269
448,1435990785816,46.5564511122174
449,1435990786527,44.2499518915166
450,1435990787242,41.5107858825846
451,1435990787993,36.7330684107493
452,1435990788708,36.3985029584667
453,1435990789438,38.0303581577593
454,1435990790165,37.9906005668629
455,1435990790913,36.0540610320105
456,1435990791677,60.2491537216813
457,1435990792403,47.4984202828146
458,1435990793148,37.9515618613998
459,1435990793911,38.2774715860164
460,1435990794652,34.8272360571296
461,1435990795435,47.7375363972893
462,1435990796156,41.0492938093792
463,1435990796889,34.6389194545273
464,1435990797637,33.3333605512803
465,1435990798353,37.6166671228837
466,1435990799072,31.9560357954461
467,1435990799774,35.3232056150225
468,1435990800612,34.0173514572698
469,1435990801334,36.744109472892
470,1435990802052,31.1153134067651
471,1435990802793,39.0496033938738
472,1435990803467,31.5318571525633
473,1435990804222,35.9733257928654
474,1435990804957,31.6942998584669
475,1435990805686,32.2690590852967
476,1435990806425,34.4834147019535
477,1435990807146,38.6671263839135
478,1435990807867,36.3571356609663
479,1435990808652,41.062618872763
480,1435990809446,38.1764161248881
481,1435990810166,47.8237273887207
482,1435990810913,37.7373587347752
483,1435990811682,66.0101752146884
484,1435990812343,63.0495716128762
485,1435990813069,59.7026243671901
486,1435990813815,36.6911201762926
487,1435990814507,66.0878334720001
488,1435990815276,64.6822291356818
489,1435990816009,57.1736589030984
490,1435990816734,67.7114828203584
491,1435990817478,31.9072799476507
492,1435990818196,37.0868644656428
493,1435990818860,50.4583269760515
494,1435990819503,48.1571894329887
495,1435990820234,35.9824220376397
496,1435990820968,42.6499219409765
497,1435990821683,63.1977214962998
498,1435990822398,45.6276312533612
499,1435990823155,48.4880192942304
500,1435990823819,42.8466811490672
501,1435990824516,44.7681907727098
502,1435990825242,31.3731627208316
503,1435990825994,31.8284995887759
504,1435990826723,31.9071492271085
505,1435990827458,39.4081800747378
506,1435990828188,32.5363573822295
507,1435990828917,38.3631602428256
508,1435990829674,34.732693603706
509,1435990830408,53.4463707581661
510,1435990831150,40.4101313714381
511,1435990831876,42.4290789416979
512,1435990832646,32.9400109454223
513,1435990833382,43.7283876500774
514,1435990834094,43.3890257818871
515,1435990834774,35.6668172129902
516,1435990835497,34.8189556594357
517,1435990836138,29.264994376176
518,1435990836846,35.0981969255001
519,1435990837605,41.840935799384
520,1435990838328,35.35776790357
521,1435990839077,52.1467430614394
522,1435990839801,41.2168596154202
523,1435990840431,41.6697782188552
524,1435990841147,46.808716290914
525,1435990841878,36.1572328766045
526,1435990842625,36.063624123941
527,1435990843354,31.4944574642176
528,1435990844095,38.3890665738881
529,1435990844846,34.2371750267193
530,1435990845578,34.929334186627
531,1435990846324,32.4479377410501
532,1435990847077,30.2144869311888
533,1435990847818,28.8214638633329
534,1435990848560,41.6892503215905
535,1435990849284,50.9636369216866
536,1435990850027,41.1146423384401
537,1435990850784,46.6544750975578
538,1435990851520,40.5506149759372
539,1435990852224,49.9560393112322
540,1435990852921,31.6637731586177
541,1435990853625,29.5706665103269
542,1435990854380,26.629063899449
543,1435990855112,33.982581575898
544,1435990855923,36.6117582929864
545,1435990856650,35.5739561003081
546,1435990857372,40.5822769154058
547,1435990858016,29.2805748039627
548,1435990858754,40.0863006117112
549,1435990859511,35.6356131679781
550,1435990860255,37.3467793374792
551,1435990861093,44.9129806068374
552,1435990861716,42.0501306461914
553,1435990862427,34.6179961835065
554,1435990863172,33.2429396406791
555,1435990863915,27.3290495481136
556,1435990864663,54.6052618553773
557,1435990866594,26.8870871625596
558,1435990867278,29.5586176964955
559,1435990867933,26.2559696493347
560,1435990868645,35.577278247557
561,1435990869355,27.8806709162739
562,1435990870087,39.8038624335069
563,1435990870882,29.6781969080806
564,1435990871669,34.4686782631462
565,1435990872338,26.3918761584285
566,1435990873068,30.4840435921395
567,1435990873787,30.1123218744108
568,1435990874502,29.4529560847861
569,1435990875229,28.2196353201953
570,1435990876044,32.0246549941158
571,1435990876782,34.1152929012988
572,1435990877504,34.9260407292601
573,1435990878189,28.1573066636709
574,1435990878935,38.640134318369
575,1435990879689,29.6261360858372
