id,attr_time,attr_db
1,1435990454184,46.6549453702976
2,1435990454906,58.2704443375041
3,1435990455701,47.8654051860648
4,1435990456414,54.5458601057595
5,1435990457166,54.6027536851546
6,1435990457777,47.8445450803902
7,1435990458336,42.1366908738738
8,1435990459771,36.5687462024037
9,1435990460570,46.6410770032718
10,1435990461261,54.2003154578563
11,1435990461994,43.9512671095431
12,1435990462722,52.9992157962717
13,1435990463483,49.5743250356137
14,1435990464119,43.4558915157888
15,1435990464796,46.3802376780146
16,1435990465522,52.3311031922885
17,1435990466259,52.5856364407564
18,1435990467069,43.6565655193989
19,1435990467866,54.0432400207009
20,1435990468622,50.1619200690661
21,1435990469341,48.0955158297816
22,1435990469937,50.0534872184499
23,1435990470596,42.7599846459935
24,1435990471275,50.9370205541301
25,1435990472011,46.9932746771127
26,1435990472741,49.1186515426761
27,1435990473486,44.5199000832603
28,1435990474274,52.8958683216165
29,1435990474966,62.731602353876
30,1435990475585,57.1626116530269
31,1435990476233,54.5452626316418
32,1435990476991,60.1807488898115
33,1435990477745,46.4908152087487
34,1435990478486,46.6925278810694
35,1435990479234,56.3917267786608
36,1435990479956,42.3694494073384
37,1435990480547,50.1536925911661
38,1435990481157,46.7561408565103
39,1435990481926,51.4896179793261
40,1435990482631,38.069086348049
41,1435990483338,56.0587848412057
42,1435990484065,55.1018323678765
43,1435990484756,42.2881462597793
44,1435990485391,45.2724356658836
45,1435990486105,45.8639673994853
46,1435990486791,63.3451087331321
47,1435990487521,47.595601909325
48,1435990488261,44.8898394864684
49,1435990488997,46.4951991288578
50,1435990489722,36.1951496005724
51,1435990490345,58.8902105866869
52,1435990491014,49.5310409428183
53,1435990491719,54.7811006478731
54,1435990492324,36.5325786546092
55,1435990493004,45.3721188283922
56,1435990493731,39.9580500283926
57,1435990494489,43.3101367596807
58,1435990495156,62.5258673655101
59,1435990495987,53.0975214092061
60,1435990496651,47.6568314018811
61,1435990497371,38.4278294922641
62,1435990498041,38.9604551155569
63,1435990498766,48.5308473716517
64,1435990499487,59.0031043645869
65,1435990500298,59.8693017202628
66,1435990500947,53.0323752379301
67,1435990501525,42.4564084606152
68,1435990502139,42.71705809781
69,1435990502841,40.2028131671959
70,1435990503567,43.1086395265682
71,1435990504459,46.5803607800029
72,1435990505160,52.0687141381819
73,1435990505903,50.0665552396281
74,1435990506636,58.7669668183357
75,1435990507304,59.1137421999836
76,1435990508034,59.336773916636
77,1435990508770,48.5981109211073
78,1435990509502,49.7423169306585
79,1435990510225,55.821848789541
80,1435990510937,53.3216938148687
81,1435990511657,50.5427371609541
82,1435990512325,59.7416936908591
83,1435990512955,60.2025154350575
84,1435990513679,44.3013903168336
85,1435990514428,60.3392869173169
86,1435990515067,49.0800495449913
87,1435990515699,50.1813182463313
88,1435990517320,46.3175620953859
89,1435990517896,43.8715014942119
90,1435990518581,51.7161681477922
91,1435990519375,47.2949682212801
92,1435990520106,54.5147707567304
93,1435990520774,49.0460877577145
94,1435990521427,54.6831089023627
95,1435990522150,52.142438220791
96,1435990522894,56.602211692615
97,1435990523557,56.8987225448836
98,1435990524158,54.2461227284819
99,1435990524854,66.5318608215722
100,1435990525563,57.511712141152
101,1435990526251,58.2799833874105
102,1435990527034,56.8020770499374
103,1435990527697,54.0714103613497
104,1435990528415,46.9619405002718
105,1435990529130,50.1602223393939
106,1435990529805,43.5264518755483
107,1435990530533,38.2293863830064
108,1435990531242,53.7386537164265
109,1435990531904,38.8374872971961
110,1435990532639,40.2978321538761
111,1435990533373,44.0119310746483
112,1435990534013,44.3395427039599
113,1435990534714,38.4676038906758
114,1435990535424,35.3113272692684
115,1435990536095,57.4357662362122
116,1435990536831,54.4760172595201
117,1435990537573,50.4091018054977
118,1435990538297,69.0419014501112
119,1435990539044,64.2066859182873
120,1435990539785,45.1118682861414
121,1435990540456,39.1686195721615
122,1435990541082,61.4894082059203
123,1435990541763,47.3206713292425
124,1435990542487,44.7660160801693
125,1435990543262,47.3053571046583
126,1435990543998,63.5416145775566
127,1435990544751,63.0504305152563
128,1435990545420,41.9787981867617
129,1435990546102,47.8125313482517
130,1435990546651,62.0271925045918
131,1435990547279,68.7334955976855
132,1435990548008,64.7482875513932
133,1435990548754,55.2314318478663
134,1435990549570,65.0974491411207
135,1435990550256,44.8453608271981
136,1435990550880,64.6623625465948
137,1435990551521,37.695368789927
138,1435990552156,42.1954538527285
139,1435990552845,50.7643899683269
140,1435990553589,43.7454297615483
141,1435990554333,44.5097077947868
142,1435990555015,65.075322698686
143,1435990555667,44.5766515985949
144,1435990556375,58.7994820668016
145,1435990557116,61.1045392842076
146,1435990557826,39.2277624748445
147,1435990558489,33.3405181345229
148,1435990559103,36.1003837030423
149,1435990559731,51.7972663603641
150,1435990560417,63.9479742856479
151,1435990560977,61.2236521908479
152,1435990561590,34.9877870480455
153,1435990562283,47.1884053994541
154,1435990563030,53.9612536814733
155,1435990563747,41.2145367921671
156,1435990564474,49.7479538680381
157,1435990565272,68.0814721251142
158,1435990565879,45.2404065538389
159,1435990566481,61.4212265261499
160,1435990567218,44.6377480772069
161,1435990567958,69.3571074351699
162,1435990568707,47.1793027530656
163,1435990569500,62.9066258199186
164,1435990570301,65.2527922569959
165,1435990571011,41.8378608748539
166,1435990571736,39.3720892815003
167,1435990572360,47.87449641711
168,1435990573943,59.4889009383942
169,1435990574585,43.0254794052633
170,1435990575309,50.5043866623992
171,1435990576051,61.270071603072
172,1435990576775,50.5125904354795
173,1435990577481,54.6117604919201
174,1435990578099,57.7387717100091
175,1435990578772,64.4691961487849
176,1435990579475,57.7492856204889
177,1435990580117,37.573959027099
178,1435990580905,56.1169025400782
179,1435990581671,53.0079741770164
180,1435990582318,36.4286143653104
181,1435990583015,49.3664788474858
182,1435990583715,56.9056648429912
183,1435990585519,48.057163110332
184,1435990586259,38.2661232486664
185,1435990586996,41.8620135516446
186,1435990587705,42.7097513838886
187,1435990588441,59.353826590843
188,1435990589160,56.0493053266496
189,1435990589830,59.7783311444982
190,1435990590525,44.9597720424172
191,1435990591264,44.3725966477858
192,1435990591995,38.0301925190662
193,1435990592735,51.6266221558112
194,1435990593386,37.1711724241094
195,1435990594109,60.3581770270777
196,1435990594894,52.2013098935092
197,1435990595555,58.6202939521623
198,1435990596879,45.2140574583911
199,1435990597554,42.3598069529966
200,1435990598296,53.230017368757
201,1435990599039,67.217991442943
202,1435990599859,69.8092207378832
203,1435990600593,44.2687177100083
204,1435990601338,57.6159809902807
205,1435990602049,63.8550623352937
206,1435990602667,46.1487618662657
207,1435990603356,42.309008887588
208,1435990604085,48.1983414865539
209,1435990604817,44.3757627071639
210,1435990605618,48.8286003238748
211,1435990606234,45.9522997608602
212,1435990606951,59.9834268668694
213,1435990607704,51.0925855103272
214,1435990608334,36.7190674098487
215,1435990609003,48.2818592176321
216,1435990609746,37.4644554997088
217,1435990610540,42.3090403744722
218,1435990611187,44.7001467190522
219,1435990611914,43.6511009340013
220,1435990612632,55.4493378138819
221,1435990613297,62.9074610734208
222,1435990613963,46.7827508607061
223,1435990614693,56.4011534224466
224,1435990615504,46.3401251193922
225,1435990616130,51.3568215096934
226,1435990616790,39.8983018185141
227,1435990617549,48.5111002197975
228,1435990618281,55.2625637998356
229,1435990620323,50.4501062730524
230,1435990620902,68.0359738796122
231,1435990621587,51.9574527981355
232,1435990622327,71.0437834791231
233,1435990623032,47.7643541363493
234,1435990623657,36.3254340441427
235,1435990624367,52.888466233907
236,1435990625078,37.7255003954326
237,1435990625790,39.9300905513603
238,1435990626594,37.7454385649348
239,1435990627324,38.081914118549
240,1435990628070,47.0591057163464
241,1435990628800,60.2992051327647
242,1435990629528,50.2153453202382
243,1435990631254,42.8248503565557
244,1435990631842,39.5060241646855
245,1435990632524,58.8776446777822
246,1435990633228,49.6363091311211
247,1435990633906,52.8977715296877
248,1435990634641,55.4090049126395
249,1435990635376,55.0398772348935
250,1435990636078,57.5341855633048
251,1435990636764,49.9092962099588
252,1435990637371,58.7269273664016
253,1435990638051,50.4301352755776
254,1435990638789,40.1390318200723
255,1435990639516,54.2148419555999
256,1435990640257,44.9705267050408
257,1435990640991,36.2122182856882
258,1435990641733,39.3265968947345
259,1435990642470,51.150497835604
260,1435990643205,38.8854367105423
261,1435990643796,39.7596486783028
262,1435990644476,42.7242878874678
263,1435990645221,39.8413886278979
264,1435990645946,59.6600926217051
265,1435990646679,50.5723251964234
266,1435990647499,46.0869004135757
267,1435990648173,40.496346318292
268,1435990648921,64.1665376345746
269,1435990649585,54.8479918722892
270,1435990650306,44.5384951237209
271,1435990651049,34.3158972194505
272,1435990651779,49.6089919781232
273,1435990652494,43.3076544117645
274,1435990653229,44.1905750880372
275,1435990653954,60.9506441711854
276,1435990654542,36.9652678276293
277,1435990655217,53.493397891942
278,1435990655937,42.7051979840395
279,1435990656663,39.0971407051341
280,1435990657445,59.6901916610771
281,1435990658164,62.4927678335192
282,1435990658907,50.7432626240138
283,1435990659646,35.7469345266791
284,1435990660331,37.7069341861962
285,1435990660969,41.4124648388913
286,1435990661647,58.0114381018438
287,1435990662362,56.1121258305866
288,1435990663078,57.5235349103236
289,1435990663773,45.5782554953777
290,1435990664440,57.8451033491161
291,1435990665261,56.8845890456821
292,1435990666010,46.5112243873376
293,1435990666696,60.109569078597
294,1435990667466,56.1777095719289
295,1435990668150,60.3001735849557
296,1435990668894,63.4383743171247
297,1435990669618,45.1516085934013
298,1435990670405,43.0097035701224
299,1435990671101,57.160185662598
300,1435990671778,52.2299720338324
301,1435990672526,50.50872526861
302,1435990673263,60.7471541892848
303,1435990674001,62.3931299790548
304,1435990674656,58.4822051346734
305,1435990675389,53.2780422360646
306,1435990676133,42.2730240119575
307,1435990676799,46.548869975795
308,1435990677452,57.6711608252784
309,1435990678123,38.4527568006487
310,1435990678952,45.3697926541222
311,1435990679512,40.9370293864586
312,1435990680075,39.8255020959356
313,1435990680663,42.3903580276224
314,1435990681280,51.8515855310726
315,1435990682028,49.8230882057053
316,1435990682753,41.0443241403154
317,1435990683494,40.1982857976671
318,1435990684242,44.6382276722402
319,1435990684839,39.0921215984864
320,1435990685409,45.6464153226539
321,1435990685957,43.7708207127345
322,1435990686530,46.7193235625933
323,1435990688855,58.5581919287706
324,1435990689575,43.7112594892265
325,1435990690302,55.5080424813435
326,1435990690878,46.574040099276
327,1435990691437,39.6517465681678
328,1435990691992,44.1302744690971
329,1435990692619,61.9454715910038
330,1435990693334,46.468201492924
331,1435990694012,59.8365132474638
332,1435990694563,54.1558014559889
333,1435990695138,38.9957667065804
334,1435990695705,38.0567418203195
335,1435990696256,43.0247518889593
336,1435990696807,50.542992161106
337,1435990698407,43.0499568750201
338,1435990699158,43.0739989098654
339,1435990699839,50.85533943632
340,1435990700643,47.3739760562249
341,1435990701424,53.6012948546539
342,1435990702003,35.855680866329
343,1435990702555,44.2001202311752
344,1435990703101,41.226944785693
345,1435990703647,40.6532143242048
346,1435990704248,40.6971434821447
347,1435990704963,35.378139514131
348,1435990705555,59.4106211764181
349,1435990706128,51.4773964280368
350,1435990706700,57.7451086134592
351,1435990707263,34.6786258692462
352,1435990707818,41.7169347800208
353,1435990709303,39.9123268952376
354,1435990710039,49.7527748021632
355,1435990710777,56.4953852085567
356,1435990711501,57.3251842747498
357,1435990712247,62.2518083630473
358,1435990712977,60.6670198906981
359,1435990713718,60.9405950236202
360,1435990714416,56.2815875215202
361,1435990715014,38.4807886257636
362,1435990715635,49.3870649073872
363,1435990716316,42.5656167118331
364,1435990717044,43.8878529237772
365,1435990717768,42.1465089933534
366,1435990718505,46.4661335285722
367,1435990719136,62.003601199994
368,1435990719837,54.9196844956496
369,1435990720585,43.1283949880756
370,1435990721236,43.5411926444573
371,1435990721965,44.2728085340848
372,1435990722693,54.1989415222571
373,1435990723427,61.1794094301505
374,1435990724154,52.6840453493575
375,1435990724904,53.6438946631091
376,1435990725610,62.2228406639948
377,1435990726261,60.2340448267857
378,1435990726987,58.7833832177415
379,1435990727720,54.1142170601734
380,1435990728452,63.5931045218139
381,1435990729073,44.0956780806132
382,1435990729764,59.3627627178977
383,1435990730494,52.4297121892169
384,1435990731264,51.0850212789522
385,1435990731959,55.5276194561239
386,1435990732686,52.4684248529368
387,1435990733460,50.4507748486307
388,1435990734203,46.9149242079059
389,1435990734957,40.2134021411418
390,1435990735688,55.0944255880841
391,1435990736489,53.3647424531558
392,1435990737222,51.4699980361277
393,1435990737947,52.5420883269815
394,1435990738595,39.3236339139759
395,1435990739298,50.4120731244068
396,1435990740018,50.8854218847111
397,1435990740746,42.3793755507169
398,1435990741380,49.8745152458861
399,1435990742051,43.9682702107558
400,1435990742795,50.7269077015687
401,1435990743493,45.9644936056079
402,1435990744171,59.8712267364539
403,1435990744850,44.0283774642182
404,1435990746447,58.8160653589533
405,1435990747144,51.1021470911258
406,1435990747866,41.3569971184337
407,1435990748604,54.4420737088958
408,1435990749384,40.3465939082652
409,1435990750062,42.4246616454075
410,1435990750856,58.9157195802966
411,1435990751629,50.6252205897515
412,1435990752368,45.1692420760688
413,1435990753057,52.6578044695226
414,1435990753787,60.3954770914122
415,1435990754526,51.5402681813414
416,1435990755261,49.9215170862134
417,1435990756001,45.5774621571498
418,1435990756647,46.1784229686342
419,1435990757229,38.7733556156339
420,1435990757900,50.8910102972125
421,1435990758614,38.066947134633
422,1435990759371,41.3899286132322
423,1435990760094,38.6995108117306
424,1435990760812,42.3830169571562
425,1435990761638,37.2530107511256
426,1435990762358,58.3438211827554
427,1435990763016,45.8736890087767
428,1435990763772,54.4562601411056
429,1435990764453,46.2020431804454
430,1435990765186,39.1929711702463
431,1435990765919,38.1285406863754
432,1435990766713,36.1027978735412
433,1435990767375,38.0310635887604
434,1435990768101,44.9164511734794
435,1435990768819,53.6637819235185
436,1435990769474,42.4713555187011
437,1435990770188,56.1082993155654
438,1435990770850,64.1702727647109
439,1435990771653,56.4694289761789
440,1435990772399,45.104456349683
441,1435990773124,38.7065085418809
442,1435990773864,57.2523293572537
443,1435990774576,70.5067322759767
444,1435990775383,37.049342663737
445,1435990776054,51.4808041860513
446,1435990776747,52.1134184244301
447,1435990777460,40.7016112632762
448,1435990778231,50.6068807239087
449,1435990778949,41.8232167899696
450,1435990779670,53.6537755263656
451,1435990780413,50.3760841109366
452,1435990781073,38.5251066307671
453,1435990781767,52.6949966023187
454,1435990782498,54.9907601248085
455,1435990783265,54.0242380219201
456,1435990783991,51.6658564035643
457,1435990784715,53.3646113238377
458,1435990785450,41.9598550564304
459,1435990786153,57.8470167933169
460,1435990786751,48.3775447694688
461,1435990787412,44.2016433103842
462,1435990788141,47.5737155024916
463,1435990789834,34.4068980995563
464,1435990790560,40.120683640573
465,1435990791322,42.0481004411703
466,1435990792095,59.1669081201761
467,1435990792768,36.849122475256
468,1435990793505,43.6442040638892
469,1435990794251,37.1599728346253
470,1435990794948,43.8002880057912
471,1435990795679,45.9666476654302
472,1435990796427,46.9383456431148
473,1435990797169,47.6328720661834
474,1435990797868,41.5015835055305
475,1435990798461,44.2653093873914
476,1435990799122,43.3300084856023
477,1435990799858,38.8138239194625
478,1435990800555,32.8606389913669
479,1435990801143,40.2988588892211
480,1435990801827,45.5855673076776
481,1435990803654,48.7393038510823
482,1435990804795,43.1128868506898
483,1435990805530,40.2310066351815
484,1435990806263,40.8827510498022
485,1435990806938,38.6772695343325
486,1435990807691,55.1915033392189
487,1435990808424,41.1250995291491
488,1435990809153,56.2380691943364
489,1435990809852,52.8182943005739
490,1435990810510,38.6774632986639
491,1435990811257,38.5044751335117
492,1435990811928,46.2558165261587
493,1435990812509,71.1978138557985
494,1435990813164,64.7149354545262
495,1435990813878,46.9511228324109
496,1435990814620,40.8489656649166
497,1435990815431,72.2566168872553
498,1435990816158,60.0681465683871
499,1435990816903,59.8368749533023
500,1435990817620,48.7337771818608
501,1435990818273,50.9905108999914
502,1435990819014,61.9846778263275
503,1435990819723,57.3984990029697
504,1435990820389,74.849745452977
505,1435990821117,39.389771568575
506,1435990821837,49.1855070846654
507,1435990822586,43.3834454717147
508,1435990823329,39.0239588515272
509,1435990823895,46.3189807891664
510,1435990824549,56.7865423534232
511,1435990825257,38.9246862211678
512,1435990826060,43.1389715020029
513,1435990826792,40.486379114397
514,1435990827519,35.8036988404386
515,1435990828189,43.8975846982446
516,1435990828894,34.5212122957084
517,1435990829618,51.9834521174412
518,1435990830210,43.769075270293
519,1435990830944,55.3505187520959
520,1435990831673,59.2237530047435
521,1435990832394,55.0989192936088
522,1435990833002,62.1317667135965
523,1435990833542,33.2556601221472
524,1435990834120,45.1438532271834
525,1435990834668,47.4185264393361
526,1435990835244,40.1346247583116
527,1435990835855,42.6183718170026
528,1435990836538,44.7818145101871
529,1435990837289,43.1024740919027
530,1435990837994,38.8859141996894
531,1435990838567,41.8094262345709
532,1435990839854,36.8290722130974
533,1435990840411,55.6092724568191
534,1435990841810,53.9211877234417
535,1435990842573,39.7203079705969
536,1435990843344,53.0335491475739
537,1435990844003,44.4388867036775
538,1435990844713,46.599440390383
539,1435990845326,47.5115255640778
540,1435990845877,55.6568557097977
541,1435990846452,46.9122824972686
542,1435990847028,35.3647976247967
543,1435990847681,34.4831983058873
544,1435990848453,35.9826435237619
545,1435990849205,55.1447989725305
546,1435990849778,55.8747114970913
547,1435990850328,43.2276740836383
548,1435990850877,38.9072873136761
549,1435990852060,52.7418574415543
550,1435990852708,38.2819712305813
551,1435990853458,39.4964556668653
552,1435990854117,37.6206219133245
553,1435990854855,42.4890216854702
554,1435990855613,39.4622125858628
555,1435990856190,44.2382888977507
556,1435990856772,54.7609903290906
557,1435990857322,50.6770714209671
558,1435990857915,32.8937284652105
559,1435990858558,53.9068329260227
560,1435990859240,46.4972226065989
561,1435990861324,38.1179953926659
562,1435990861912,51.9555508266135
563,1435990862484,39.279328164104
564,1435990863036,42.5424128234599
565,1435990863585,57.0878260611822
566,1435990865248,49.7210124987728
567,1435990865948,42.0670754205378
568,1435990866594,51.5850213313347
569,1435990867323,32.1397274513185
570,1435990868050,43.740422494433
571,1435990868776,31.7080251957631
572,1435990869512,50.1589615104276
573,1435990870249,41.1192683679157
574,1435990870948,33.0122644462908
575,1435990871507,37.8342082192423
