id,attr_time,attr_x,attr_y,attr_z
1,1437147221407,12.435,20.602,-6.317
2,1437147221427,12.435,20.602,-6.317
3,1437147221449,12.435,20.602,-6.317
4,1437147221469,12.435,20.602,-6.317
5,1437147221486,12.435,20.602,-6.317
6,1437147221506,12.435,20.602,-6.317
7,1437147221525,12.435,20.602,-6.317
8,1437147221545,12.435,20.602,-5.973
9,1437147221582,12.435,20.602,-5.973
10,1437147221587,12.435,20.602,-5.973
11,1437147221606,12.435,20.602,-5.973
12,1437147221625,12.435,20.602,-5.973
13,1437147221646,12.435,20.602,-5.973
14,1437147221669,12.435,20.602,-5.653
15,1437147221686,12.435,20.602,-5.653
16,1437147221705,12.435,20.602,-5.653
17,1437147221727,12.435,20.602,-5.653
18,1437147221745,12.435,20.602,-5.653
19,1437147221769,12.435,20.602,-5.329
20,1437147221788,12.435,20.602,-5.329
21,1437147221807,12.435,20.602,-5.329
22,1437147221826,12.435,20.602,-5.329
23,1437147221849,12.435,20.602,-5.329
24,1437147221869,12.435,20.602,-5.329
25,1437147221889,12.435,20.602,-5.329
26,1437147221910,12.435,20.602,-5.329
27,1437147221930,12.435,20.602,-5.329
28,1437147221949,12.435,20.602,-5.329
29,1437147221966,12.435,20.602,-5.329
30,1437147221990,12.435,20.602,-5.329
31,1437147222023,12.435,20.602,-5.329
32,1437147222028,12.435,20.602,-5.329
33,1437147222046,12.435,20.602,-5.329
34,1437147222067,12.435,20.602,-5.329
35,1437147222086,12.435,20.602,-5.329
36,1437147222108,12.435,20.602,-5.329
37,1437147222177,12.435,20.602,-5.329
38,1437147222178,12.435,20.602,-5.329
39,1437147222179,12.435,20.602,-5.329
40,1437147222188,12.435,20.602,-5.329
41,1437147222207,12.435,20.602,-5.009
42,1437147222229,12.435,20.602,-5.009
43,1437147222247,12.435,20.602,-5.009
44,1437147222266,12.435,20.602,-5.009
45,1437147222287,12.435,20.602,-5.009
46,1437147222307,12.435,20.602,-5.009
47,1437147222326,12.435,20.602,-5.009
48,1437147222349,12.435,20.602,-5.009
49,1437147222368,12.435,20.602,-5.009
50,1437147222388,12.435,20.602,-5.009
51,1437147222407,12.435,20.602,-5.009
52,1437147222428,12.435,20.602,-5.009
53,1437147222448,12.435,20.602,-5.009
54,1437147222477,12.435,20.602,-5.009
55,1437147222549,12.435,20.602,-5.009
56,1437147222550,12.435,20.602,-5.009
57,1437147222551,12.739,20.292,-5.009
58,1437147222552,12.739,20.292,-5.009
59,1437147222577,12.739,20.292,-5.009
60,1437147222629,12.739,20.292,-5.009
61,1437147222630,12.739,20.292,-5.009
62,1437147222631,12.739,20.292,-5.009
63,1437147222649,12.739,20.292,-5.009
64,1437147222667,12.739,20.292,-5.009
65,1437147222691,12.739,20.292,-5.325
66,1437147222710,12.739,20.292,-5.325
67,1437147222731,12.739,20.292,-5.325
68,1437147222747,12.739,20.292,-5.325
69,1437147222771,12.739,20.292,-5.325
70,1437147222787,12.739,20.292,-5.325
71,1437147222808,12.739,20.292,-5.325
72,1437147222827,12.739,20.292,-5.325
73,1437147222847,12.739,20.292,-5.325
74,1437147222868,12.739,20.292,-5.325
75,1437147222893,12.739,20.292,-5.325
76,1437147222913,12.739,20.292,-5.325
77,1437147222929,12.739,20.292,-5.325
78,1437147222951,12.739,20.292,-5.325
79,1437147223017,12.739,20.292,-5.325
80,1437147223018,12.739,20.292,-5.01
81,1437147223019,12.739,20.292,-5.01
82,1437147223036,12.739,19.989,-5.01
83,1437147223049,12.739,19.989,-5.01
84,1437147223067,12.739,19.989,-4.67
85,1437147223087,12.739,19.989,-4.67
86,1437147223109,12.739,19.989,-4.67
87,1437147223131,12.428,19.989,-4.341
88,1437147223150,12.428,19.989,-4.341
89,1437147223168,12.428,19.989,-4.341
90,1437147223190,12.428,19.989,-3.874
91,1437147223209,12.428,19.989,-3.874
92,1437147223228,12.063,19.989,-3.874
93,1437147223248,12.063,19.989,-3.457
94,1437147223270,12.063,19.989,-3.457
95,1437147223293,12.063,19.989,-3.155
96,1437147223313,11.709,19.989,-3.155
97,1437147223330,11.709,19.989,-3.155
98,1437147223348,11.709,19.989,-2.827
99,1437147223368,11.709,19.989,-2.827
100,1437147223389,11.709,19.989,-2.827
101,1437147223409,11.709,19.989,-2.827
102,1437147223435,11.709,19.989,-2.827
103,1437147223496,11.709,19.989,-2.499
104,1437147223497,11.709,19.989,-2.499
105,1437147223498,11.709,19.989,-2.499
106,1437147223522,11.709,19.989,-2.499
107,1437147223529,11.709,19.989,-2.499
108,1437147223548,11.709,19.989,-2.499
109,1437147223574,11.709,19.989,-2.499
110,1437147223589,11.709,19.989,-2.499
111,1437147223609,11.709,19.989,-2.499
112,1437147223629,11.709,19.989,-2.885
113,1437147223682,11.709,19.989,-2.885
114,1437147223683,11.709,19.989,-2.885
115,1437147223692,11.709,19.989,-2.885
116,1437147223712,11.709,19.989,-2.885
117,1437147223730,11.709,19.989,-2.885
118,1437147223748,11.709,19.989,-2.885
119,1437147223771,11.709,19.989,-2.885
120,1437147223789,11.367,19.989,-2.885
121,1437147223809,11.367,19.989,-2.885
122,1437147223831,11.367,19.989,-2.885
123,1437147223851,11.367,19.989,-2.885
124,1437147223873,11.027,19.989,-2.885
125,1437147223890,11.027,19.989,-2.885
126,1437147223912,11.027,19.989,-2.885
127,1437147223978,11.027,19.989,-2.885
128,1437147223979,11.027,19.989,-2.885
129,1437147223980,11.027,19.989,-2.885
130,1437147224004,11.027,19.989,-2.577
131,1437147224009,11.027,19.989,-2.577
132,1437147224029,11.027,19.989,-2.577
133,1437147224055,11.027,19.989,-2.577
134,1437147224069,11.027,19.989,-2.577
135,1437147224090,11.027,19.989,-2.577
136,1437147224110,11.027,19.989,-2.917
137,1437147224129,11.027,19.989,-2.917
138,1437147224150,11.027,19.989,-2.917
139,1437147224170,11.347,19.989,-3.25
140,1437147224190,11.347,19.989,-3.25
141,1437147224209,11.347,19.989,-3.25
142,1437147224230,11.347,19.989,-3.25
143,1437147224252,11.347,19.989,-3.25
144,1437147224273,11.347,19.613,-3.25
145,1437147224292,11.347,19.613,-3.25
146,1437147224311,11.347,19.613,-3.25
147,1437147224330,11.347,19.613,-3.25
148,1437147224348,11.347,19.613,-3.25
149,1437147224368,11.347,19.613,-3.25
150,1437147224399,11.347,19.613,-3.25
151,1437147224466,11.347,19.613,-3.25
152,1437147224467,11.347,19.613,-3.25
153,1437147224468,11.347,19.613,-3.25
154,1437147224469,11.347,19.613,-3.25
155,1437147224511,11.347,19.613,-3.25
156,1437147224512,11.347,19.613,-3.25
157,1437147224529,11.347,19.613,-3.25
158,1437147224556,11.347,19.613,-3.25
159,1437147224570,11.347,19.613,-3.25
160,1437147224592,11.347,19.613,-3.25
161,1437147224612,11.347,19.613,-3.25
162,1437147224631,11.72,19.613,-3.25
163,1437147224652,11.72,19.613,-3.25
164,1437147224671,11.72,19.613,-3.25
165,1437147224692,11.72,19.613,-3.25
166,1437147224711,11.72,19.613,-3.25
167,1437147224735,11.72,19.613,-3.25
168,1437147224760,11.72,19.613,-3.25
169,1437147224775,11.72,19.183,-3.25
170,1437147224794,11.72,19.183,-3.25
171,1437147224810,11.72,19.183,-3.25
172,1437147224830,11.72,19.183,-3.25
173,1437147224851,11.72,19.183,-3.25
174,1437147224871,11.72,19.183,-3.25
175,1437147224946,11.72,19.183,-3.25
176,1437147224947,11.72,19.183,-3.25
177,1437147224948,11.72,19.183,-3.25
178,1437147224949,11.72,19.183,-3.25
179,1437147224978,11.72,19.183,-3.25
180,1437147224990,11.72,19.183,-3.25
181,1437147225022,12.054,19.183,-3.25
182,1437147225029,12.054,19.183,-3.25
183,1437147225051,12.054,19.183,-3.25
184,1437147225077,12.054,19.183,-3.25
185,1437147225092,12.38,19.183,-3.25
186,1437147225110,12.38,19.183,-3.25
187,1437147225131,12.38,19.183,-3.25
188,1437147225151,12.38,19.183,-3.25
189,1437147225169,12.715,19.183,-3.25
190,1437147225190,12.715,19.183,-3.25
191,1437147225210,12.715,19.183,-3.25
192,1437147225234,12.715,19.183,-3.25
193,1437147225250,12.715,19.183,-3.25
194,1437147225273,12.715,19.183,-3.25
195,1437147225289,12.715,19.183,-3.25
196,1437147225311,12.384,19.183,-3.25
197,1437147225331,12.384,19.183,-3.25
198,1437147225351,12.384,18.844,-3.25
199,1437147225378,12.384,18.844,-3.25
200,1437147225419,12.384,18.844,-3.25
201,1437147225420,12.068,18.844,-3.25
202,1437147225439,12.068,18.844,-3.25
203,1437147225450,12.068,18.844,-3.25
204,1437147225470,12.068,18.844,-3.25
205,1437147225489,12.068,18.844,-3.25
206,1437147225516,12.068,18.844,-3.25
207,1437147225531,12.068,18.844,-3.25
208,1437147225551,12.068,18.844,-3.25
209,1437147225573,12.068,18.844,-3.25
210,1437147225592,12.068,18.844,-3.25
211,1437147225610,12.068,18.844,-3.25
212,1437147225631,12.068,18.844,-3.25
213,1437147225650,12.068,18.844,-3.25
214,1437147225670,12.068,18.844,-3.25
215,1437147225691,12.068,18.844,-3.25
216,1437147225722,12.068,18.844,-3.25
217,1437147225730,12.068,18.844,-3.25
218,1437147225812,12.068,18.844,-3.25
219,1437147225813,12.068,18.844,-3.25
220,1437147225814,12.068,18.844,-3.25
221,1437147225815,12.068,18.844,-3.25
222,1437147225830,12.068,18.844,-3.25
223,1437147225851,12.068,18.844,-3.25
224,1437147225931,12.068,18.844,-3.25
225,1437147225932,12.068,18.844,-3.25
226,1437147225933,12.068,18.844,-3.25
227,1437147225934,12.068,18.844,-3.25
228,1437147225957,12.068,18.844,-3.25
229,1437147225970,12.068,18.844,-3.25
230,1437147225998,12.068,18.844,-3.25
231,1437147226012,12.068,18.844,-3.25
232,1437147226033,12.068,18.844,-3.25
233,1437147226051,12.068,18.844,-3.25
234,1437147226076,12.068,19.172,-3.25
235,1437147226093,12.068,19.172,-3.572
236,1437147226113,12.068,19.172,-3.572
237,1437147226132,12.068,19.172,-3.572
238,1437147226152,12.068,19.172,-3.572
239,1437147226189,12.068,19.172,-3.572
240,1437147226190,12.068,19.172,-3.572
241,1437147226210,12.068,19.172,-3.572
242,1437147226230,12.068,19.172,-3.572
243,1437147226250,12.068,19.172,-3.572
244,1437147226271,12.068,19.172,-3.572
245,1437147226291,12.068,19.172,-3.572
246,1437147226312,12.068,19.172,-3.572
247,1437147226388,11.711,19.172,-3.572
248,1437147226390,11.711,19.172,-3.572
249,1437147226391,11.711,19.172,-3.572
250,1437147226392,11.711,19.172,-3.572
251,1437147226432,11.711,19.172,-3.572
252,1437147226433,11.711,19.172,-3.572
253,1437147226450,11.711,19.172,-3.572
254,1437147226471,11.711,19.172,-3.572
255,1437147226491,11.711,19.172,-3.572
256,1437147226517,11.711,19.172,-3.965
257,1437147226532,11.711,19.172,-3.965
258,1437147226553,11.711,19.172,-3.965
259,1437147226574,11.711,19.172,-3.965
260,1437147226591,11.711,19.172,-3.965
261,1437147226611,11.711,19.172,-3.965
262,1437147226632,11.711,19.172,-3.965
263,1437147226651,11.711,19.172,-3.965
264,1437147226674,11.711,19.172,-3.965
265,1437147226695,11.711,19.172,-3.965
266,1437147226716,11.402,19.172,-3.965
267,1437147226735,11.402,18.82,-3.965
268,1437147226753,11.402,18.82,-3.965
269,1437147226777,11.402,18.82,-3.965
270,1437147226793,11.102,18.82,-3.965
271,1437147226932,11.102,18.82,-3.965
272,1437147226933,11.102,18.82,-3.965
273,1437147226934,11.102,18.82,-3.66
274,1437147226935,11.102,18.82,-3.66
275,1437147226936,11.102,18.82,-3.66
276,1437147226937,11.102,18.82,-3.66
277,1437147226939,11.102,18.82,-3.66
278,1437147226979,11.102,18.82,-4.266
279,1437147226980,11.102,18.82,-4.266
280,1437147227156,11.102,18.82,-4.818
281,1437147227157,11.102,18.82,-4.818
282,1437147227158,11.524,18.82,-5.142
283,1437147227159,11.524,19.18,-5.142
284,1437147227160,11.524,19.18,-5.142
285,1437147227161,11.897,19.18,-5.142
286,1437147227162,11.897,19.18,-5.142
287,1437147227163,11.897,19.494,-5.142
288,1437147227164,11.897,19.494,-5.142
289,1437147227185,11.897,19.494,-5.142
290,1437147227191,11.897,19.494,-5.142
291,1437147227217,11.897,19.879,-5.142
292,1437147227232,11.897,19.879,-5.142
293,1437147227250,11.897,19.879,-5.142
294,1437147227270,11.897,19.879,-4.539
295,1437147227292,11.897,19.879,-4.539
296,1437147227310,11.897,19.879,-4.539
297,1437147227330,11.547,19.879,-4.539
298,1437147227350,11.547,19.879,-4.539
299,1437147227371,11.547,19.879,-4.539
300,1437147227390,11.547,19.879,-4.539
301,1437147227410,11.547,19.879,-4.539
302,1437147227430,11.547,19.879,-4.539
303,1437147227450,11.547,19.879,-4.539
304,1437147227470,11.547,19.879,-4.219
305,1437147227490,11.547,19.879,-4.219
306,1437147227510,11.547,19.879,-4.219
307,1437147227530,11.547,19.879,-4.219
308,1437147227550,11.547,19.879,-4.219
309,1437147227570,11.547,19.879,-4.219
310,1437147227592,11.547,19.879,-4.632
311,1437147227613,11.547,19.879,-4.632
312,1437147227633,11.547,19.879,-4.632
313,1437147227653,11.547,19.879,-4.632
314,1437147227672,11.547,19.879,-4.994
315,1437147227709,11.547,19.879,-4.994
316,1437147227711,11.547,19.879,-4.994
317,1437147227731,11.547,19.879,-4.994
318,1437147227751,11.547,19.879,-4.994
319,1437147227773,11.547,19.879,-4.994
320,1437147227792,11.547,19.879,-4.994
321,1437147227811,11.547,19.879,-4.685
322,1437147227832,11.547,19.879,-4.685
323,1437147227857,11.547,19.879,-4.685
324,1437147227874,11.547,19.879,-4.685
325,1437147227900,11.547,19.879,-4.685
326,1437147227914,11.547,19.879,-4.685
327,1437147227935,11.547,19.879,-4.685
328,1437147227955,11.547,19.879,-4.685
329,1437147227975,11.547,19.879,-4.685
330,1437147227993,11.547,19.879,-4.685
331,1437147228014,11.547,19.879,-4.685
332,1437147228036,11.547,19.879,-4.685
333,1437147228055,11.547,19.879,-5.172
334,1437147228075,11.547,19.879,-5.172
335,1437147228093,11.547,19.879,-5.172
336,1437147228118,11.547,19.879,-5.172
337,1437147228181,11.918,19.879,-5.172
338,1437147228182,11.918,19.879,-5.172
339,1437147228183,11.918,19.879,-5.525
340,1437147229565,11.918,19.879,-5.525
341,1437147229566,11.918,19.879,-5.525
342,1437147229567,11.918,19.879,-5.525
343,1437147229568,11.918,19.879,-5.525
344,1437147229569,11.918,19.879,-4.933
345,1437147229570,11.918,19.879,-4.933
346,1437147229571,11.918,19.879,-4.524
347,1437147229572,11.918,19.879,-4.524
348,1437147229573,11.581,19.879,-4.524
349,1437147229574,11.581,19.879,-4.524
350,1437147229575,11.581,19.879,-4.524
351,1437147229576,11.581,19.879,-4.524
352,1437147229577,11.268,19.879,-4.524
353,1437147229578,11.268,19.879,-4.524
354,1437147229579,11.268,19.879,-4.524
355,1437147229580,11.268,19.879,-4.524
356,1437147229581,11.268,19.879,-4.524
357,1437147229582,11.268,19.879,-4.524
358,1437147229583,11.268,19.879,-4.524
359,1437147229584,11.268,19.879,-4.524
360,1437147229585,11.268,19.879,-4.524
361,1437147229586,11.268,19.879,-4.524
362,1437147229587,11.268,19.879,-4.524
363,1437147229588,11.268,19.879,-4.524
364,1437147229589,11.268,19.879,-4.948
365,1437147229590,11.622,19.879,-4.948
366,1437147229591,11.622,19.879,-4.948
367,1437147229592,11.622,19.879,-4.948
368,1437147229593,11.622,19.879,-4.948
369,1437147229594,11.622,19.879,-4.948
370,1437147229595,11.622,19.879,-4.948
371,1437147229596,11.622,19.879,-4.948
372,1437147229597,11.622,19.879,-4.522
373,1437147229598,11.315,19.879,-4.522
374,1437147229599,11.315,19.879,-3.982
375,1437147229600,11.315,19.879,-3.982
376,1437147229601,11.0,19.879,-3.982
377,1437147229602,11.0,19.879,-3.982
378,1437147229603,11.0,19.879,-3.982
379,1437147229604,11.0,19.879,-3.982
380,1437147229605,11.0,19.879,-3.982
381,1437147229606,10.699,19.879,-3.982
382,1437147229607,10.699,19.879,-3.982
383,1437147229608,10.699,19.879,-3.982
384,1437147229609,10.699,19.879,-3.982
385,1437147229610,10.699,19.879,-3.982
386,1437147229611,10.699,19.879,-3.982
387,1437147229612,10.699,19.879,-4.492
388,1437147229613,10.699,19.879,-4.811
389,1437147229614,10.699,20.231,-4.811
390,1437147229615,10.699,20.231,-4.811
391,1437147229616,11.054,20.231,-4.811
392,1437147229617,11.054,20.231,-4.811
393,1437147229618,11.054,20.231,-4.811
394,1437147229619,11.054,20.231,-4.811
395,1437147229620,11.054,20.231,-4.811
396,1437147229621,11.054,20.231,-4.811
397,1437147229622,11.054,20.231,-4.811
398,1437147229623,11.054,20.231,-4.811
399,1437147229624,11.054,20.231,-4.811
400,1437147229625,11.054,20.231,-4.811
401,1437147229626,10.675,20.231,-4.455
402,1437147229627,10.675,20.231,-4.455
403,1437147229628,10.675,20.231,-4.455
404,1437147229629,10.372,20.231,-4.455
405,1437147229630,10.372,20.231,-4.455
406,1437147229631,10.372,20.231,-4.455
407,1437147229632,10.372,20.231,-4.121
408,1437147229633,10.372,20.231,-4.121
409,1437147229634,10.05,20.231,-4.121
410,1437147229635,10.05,20.231,-4.121
411,1437147229636,10.05,20.231,-4.121
412,1437147229637,10.05,20.231,-4.121
413,1437147229652,10.05,20.231,-4.121
414,1437147229672,10.05,20.231,-4.121
415,1437147229692,10.05,20.231,-4.121
416,1437147229712,10.05,20.231,-4.121
417,1437147229732,10.05,20.231,-4.121
418,1437147229752,10.397,20.231,-4.476
419,1437147229772,10.397,20.231,-4.476
420,1437147229792,10.397,20.231,-4.476
421,1437147229813,10.397,20.231,-4.476
422,1437147229836,10.397,20.231,-4.476
423,1437147229856,10.397,20.231,-4.476
424,1437147229876,10.397,20.231,-4.476
425,1437147229903,10.397,20.231,-4.476
426,1437147229919,10.397,20.231,-4.476
427,1437147229933,10.397,20.231,-4.476
428,1437147229954,10.397,20.231,-4.476
429,1437147229972,10.397,20.231,-4.476
430,1437147229993,10.397,20.231,-4.476
431,1437147230015,10.397,20.231,-4.161
432,1437147230033,10.397,20.231,-4.161
433,1437147230053,10.397,20.231,-4.161
434,1437147230073,10.397,20.231,-4.161
435,1437147230093,10.397,20.231,-4.161
436,1437147230113,10.397,20.231,-4.161
437,1437147230133,10.397,20.231,-4.161
438,1437147230157,10.397,20.231,-4.161
439,1437147230175,10.397,20.231,-4.161
440,1437147230197,10.397,20.231,-4.161
441,1437147230218,10.397,20.231,-4.161
442,1437147230238,10.397,20.231,-4.161
443,1437147230256,10.728,20.231,-4.161
444,1437147230278,10.728,20.231,-4.499
445,1437147230307,10.728,20.231,-4.499
446,1437147230314,10.728,20.231,-4.499
447,1437147230333,10.728,20.231,-4.499
448,1437147230353,10.728,20.231,-4.499
449,1437147230375,10.728,20.231,-4.499
450,1437147230395,10.728,20.231,-4.499
451,1437147230413,10.728,20.231,-4.499
452,1437147230434,10.728,20.231,-4.499
453,1437147230453,10.728,20.231,-4.499
454,1437147230477,10.728,20.231,-4.101
455,1437147230497,10.397,20.231,-4.101
456,1437147230514,10.397,19.847,-4.101
457,1437147230535,10.397,19.847,-4.101
458,1437147230558,10.397,19.847,-3.773
459,1437147230577,10.397,19.847,-3.773
460,1437147230598,10.067,19.847,-3.773
461,1437147230618,10.067,19.847,-3.773
462,1437147230636,10.067,19.847,-3.773
463,1437147230657,10.067,19.847,-3.773
464,1437147230677,10.067,19.847,-3.773
465,1437147230696,10.067,19.847,-3.773
466,1437147230720,10.067,19.847,-3.773
467,1437147230759,10.067,19.847,-3.773
468,1437147230760,10.067,19.847,-3.773
469,1437147230774,10.371,19.847,-3.773
470,1437147230794,10.371,19.847,-4.147
471,1437147230814,10.371,19.847,-4.147
472,1437147230836,10.688,19.847,-4.147
473,1437147230856,10.688,19.847,-4.147
474,1437147230874,10.688,19.847,-4.492
475,1437147230894,10.688,19.847,-4.492
476,1437147230914,10.688,19.847,-4.492
477,1437147230939,10.688,19.847,-4.492
478,1437147230957,10.688,19.847,-4.492
479,1437147230976,10.688,19.847,-4.492
480,1437147230998,10.688,19.847,-4.492
481,1437147231018,10.688,19.847,-4.066
482,1437147231038,10.688,19.847,-4.066
483,1437147231057,10.688,19.847,-4.066
484,1437147231078,10.688,19.847,-4.066
485,1437147231099,10.688,19.847,-4.066
486,1437147231118,10.688,19.847,-4.066
487,1437147231140,10.688,19.847,-3.762
488,1437147231156,10.688,19.847,-3.762
489,1437147231221,10.688,19.847,-3.762
490,1437147231222,10.688,19.847,-3.762
491,1437147231223,10.688,19.847,-3.762
492,1437147231242,11.006,19.847,-3.762
493,1437147231255,11.006,19.847,-3.762
494,1437147231275,11.006,19.847,-3.762
495,1437147231300,11.006,19.847,-3.762
496,1437147231316,11.372,19.847,-3.762
497,1437147231338,11.372,19.847,-3.762
498,1437147231363,11.372,20.191,-3.762
499,1437147231375,11.714,20.191,-4.136
500,1437147231396,11.714,20.191,-4.136
501,1437147231415,11.714,20.191,-4.136
502,1437147231435,11.714,20.191,-4.136
503,1437147231456,11.714,20.191,-4.136
504,1437147231477,11.714,20.191,-4.136
505,1437147231501,11.714,20.191,-4.136
506,1437147231522,11.714,20.191,-4.136
507,1437147231538,11.714,19.847,-4.136
508,1437147231555,11.714,19.847,-4.136
509,1437147231577,11.714,19.847,-4.136
510,1437147231596,11.714,19.847,-4.136
511,1437147231618,11.714,19.847,-4.136
512,1437147231636,11.402,19.847,-4.136
513,1437147231707,11.402,19.847,-3.805
514,1437147231710,11.402,19.494,-3.805
515,1437147231711,11.402,19.494,-3.805
516,1437147231739,11.402,19.494,-3.805
517,1437147231740,11.402,19.494,-3.805
518,1437147231768,11.402,19.494,-3.805
519,1437147231818,11.402,19.494,-3.805
