id,attr_time,attr_db
1,1436468770801,19.4862082073518
2,1436468771290,28.5588270903064
3,1436468771792,30.903786179756
4,1436468772265,17.0595247031602
5,1436468772645,12.9978372531424
6,1436468773861,17.1751620205334
7,1436468774322,59.9343640762705
8,1436468774896,43.8606169005609
9,1436468775362,58.7188634433951
10,1436468775713,24.4658061265963
11,1436468776106,32.977131952626
12,1436468776521,32.3500833251001
13,1436468777008,48.1128898926752
14,1436468777501,52.512163131132
15,1436468777999,12.5289926201554
16,1436468778518,19.7949852906559
17,1436468779060,15.2697025960842
18,1436468779542,20.0586139416176
19,1436468780057,16.4782253541617
20,1436468780557,15.1131666555136
21,1436468781032,16.3259055304771
22,1436468781522,19.6136122156777
23,1436468782008,27.8188951428318
24,1436468782512,41.7962592185344
25,1436468783006,23.2183583067425
26,1436468783493,37.0340236825649
27,1436468783974,61.1304113197943
28,1436468784469,47.1981083176694
29,1436468784973,50.009772668458
30,1436468785480,46.8145340335472
31,1436468785924,47.7948093046301
32,1436468786331,48.5728343217973
33,1436468786784,52.5284378951676
34,1436468787258,44.2840713898752
35,1436468787748,51.0854229368555
36,1436468788248,56.2603971673968
37,1436468788748,58.0464994477216
38,1436468789267,53.4737018302332
39,1436468789859,61.2537916350283
40,1436468790331,53.925428176972
41,1436468790770,58.4724106920922
42,1436468791232,68.412840798683
43,1436468791684,63.5623291965022
44,1436468792082,57.5976467743247
45,1436468792532,61.6365760432058
46,1436468793006,55.7691418883333
47,1436468793485,41.7279533257599
48,1436468793988,43.8061772319489
49,1436468794488,47.9669303142105
50,1436468794992,58.9373340633091
51,1436468795491,60.408012488684
52,1436468795953,62.9223312130509
53,1436468796396,63.3577130904201
54,1436468796899,60.7746117269455
55,1436468797430,59.6245313494489
56,1436468797872,63.2642996573584
57,1436468798309,62.4037853061845
58,1436468798813,59.4157186956895
59,1436468799255,58.3901776080496
60,1436468799719,60.8337624892777
61,1436468800308,47.1441142931239
62,1436468800802,63.0493714086261
63,1436468801320,62.9322642238314
64,1436468801798,54.7345770667184
65,1436468802280,66.0259110359627
66,1436468802777,64.2929526395666
67,1436468803264,59.4387640157419
68,1436468803760,68.8258358833903
69,1436468804260,60.2033445205662
70,1436468804752,58.8504161242345
71,1436468805286,77.1187967574531
72,1436468805746,62.3306276462646
73,1436468806245,56.914529135181
74,1436468806756,49.2152069036687
75,1436468807231,60.1466994005144
76,1436468807737,72.6482592516149
77,1436468808243,66.687610433317
78,1436468808749,61.2034354021851
79,1436468809246,59.2844626643687
80,1436468809729,43.4403122381966
81,1436468810290,52.062623028052
82,1436468810729,54.7513520348466
83,1436468811140,49.0385939778497
84,1436468811635,51.1350308125749
85,1436468812155,59.1493756723117
86,1436468812649,55.7988903537021
87,1436468813156,43.4125927144478
88,1436468813633,62.5237065115906
89,1436468814152,52.7591813941713
90,1436468814634,42.3425016852175
91,1436468815130,50.4468664708271
92,1436468815504,53.8108183798451
93,1436468815861,52.2995927960853
94,1436468816304,58.1999693838559
95,1436468816790,49.5442996463305
96,1436468817283,52.3646121435179
97,1436468817773,48.6691934060811
98,1436468818257,45.590928272051
99,1436468818584,56.8788974296709
100,1436468819007,53.2455406857387
101,1436468819449,69.9791382084504
102,1436468819943,56.9618596574272
103,1436468820453,55.9171220275159
104,1436468820883,48.6845300697148
105,1436468821321,58.8175248137626
106,1436468821805,44.6784275204598
107,1436468822313,58.8414647248871
108,1436468822802,46.0333645575118
109,1436468823298,56.556178286181
110,1436468823780,41.6901587175574
111,1436468824274,57.4815602523085
112,1436468824777,56.9756616675379
113,1436468825275,57.4328052928897
114,1436468825764,52.8188986797353
115,1436468826258,44.1117529834175
116,1436468826707,39.5951412758456
117,1436468827087,45.2348352910106
118,1436468827512,45.6589467432992
119,1436468827964,53.0924526564536
120,1436468828471,46.5567717593435
121,1436468828969,40.930353896513
122,1436468829475,46.2384017270214
123,1436468829952,58.1437429614744
124,1436468830448,53.6458824836782
125,1436468830859,43.3732059567531
126,1436468831325,48.7995018410352
127,1436468831816,48.8861012271473
128,1436468832294,64.2491310155734
129,1436468832794,58.3532148619892
130,1436468833278,50.4566160875425
131,1436468833803,48.7059317811675
132,1436468834280,45.7809486708229
133,1436468834775,52.9458150167395
134,1436468835276,60.0757226967882
135,1436468835791,65.0301457904613
136,1436468836298,61.9076554125162
137,1436468836685,56.3890112054206
138,1436468837105,58.7703605470561
139,1436468837536,70.9105191723376
140,1436468837999,53.5401183851435
141,1436468838530,65.2870588898734
142,1436468839219,61.3442313389847
143,1436468839585,51.2198655184316
144,1436468839943,54.2919302940458
145,1436468840405,55.6305830708618
146,1436468840971,60.2216902007028
147,1436468841463,59.0986624072015
148,1436468841966,53.1729937879076
149,1436468842474,62.1064335002277
150,1436468842983,55.5201222054243
151,1436468843496,45.3908306500818
152,1436468843969,54.9407150171069
153,1436468844470,52.5141158696205
154,1436468844992,46.0577611951107
155,1436468845407,48.7117434469487
156,1436468845745,52.2748503745221
157,1436468846202,55.8676853931226
158,1436468846678,57.0296364562222
159,1436468847194,38.82321623455
160,1436468847685,48.1859126434261
161,1436468848184,53.3011339683982
162,1436468848665,49.4341558464205
163,1436468849156,59.1085408452785
164,1436468849639,54.8436066880298
165,1436468850135,38.5858414263344
166,1436468850664,49.1870687164917
167,1436468851150,44.0562717605875
168,1436468851642,33.5249196592239
169,1436468852114,43.8714536263319
170,1436468852517,37.736459194561
171,1436468852959,38.0527110608743
172,1436468853449,55.2249858557185
173,1436468853942,51.3093590092872
174,1436468854444,38.1288086468777
175,1436468854942,54.3770174145748
176,1436468855483,51.2002049303672
177,1436468855947,55.5036985353139
178,1436468856425,53.3911831103499
179,1436468856922,43.0938014928559
180,1436468857396,56.058857592408
181,1436468857887,43.1522726963898
182,1436468858360,52.2902687313617
183,1436468858859,44.3479027264835
184,1436468859343,58.0669584830776
185,1436468859816,52.2992071695254
186,1436468860279,49.2671874211575
187,1436468860798,56.4244020874829
188,1436468861241,47.0657515883019
189,1436468861754,55.9428975759993
190,1436468862241,46.3623152276258
191,1436468862743,45.322571727128
192,1436468863218,57.0849286163669
193,1436468863647,58.5381844173223
194,1436468864129,46.9564428950641
195,1436468864609,58.6451436396775
196,1436468865087,56.1585521698845
197,1436468865563,54.7482056840788
198,1436468866075,45.2260676365731
199,1436468866565,58.651910349253
200,1436468867035,45.9555887107766
201,1436468867518,49.0969767679913
202,1436468867989,47.276081531286
203,1436468868472,45.8014478442837
204,1436468869040,45.6634379259762
205,1436468869505,58.1399257507087
206,1436468869978,40.2480724600611
207,1436468870442,40.0840158609715
208,1436468870901,57.9858112213035
209,1436468871356,43.9879043100536
210,1436468871803,60.5000065010902
211,1436468872292,54.7008174601226
212,1436468872803,44.2931069593815
213,1436468873283,58.2536865517374
214,1436468873767,46.6908755524301
215,1436468874252,64.8078856703903
216,1436468874759,54.4736324295254
217,1436468875266,51.8388258709336
218,1436468875638,57.4351749250839
219,1436468876058,49.4582434010705
220,1436468876496,56.6409290204055
221,1436468876995,57.7034372907905
222,1436468877508,39.0735046655794
223,1436468878001,44.6968633029319
224,1436468878485,45.4511091151064
225,1436468878964,55.8469679237573
226,1436468879430,49.3828443135581
227,1436468879824,34.8935072154892
228,1436468880291,54.5470771666716
229,1436468880833,49.7310439837069
230,1436468881324,44.1685579460592
231,1436468881801,47.2919778667851
232,1436468882242,51.7274849122353
233,1436468882600,43.7211061191885
234,1436468883046,59.6997385676671
235,1436468883533,51.2904795788679
236,1436468884024,53.5242931026626
237,1436468884513,44.7677764948298
238,1436468885008,44.4731990092681
239,1436468885494,48.0165382381992
240,1436468886061,51.3975676305531
241,1436468886555,45.6106599222063
242,1436468887052,58.950822617087
243,1436468887441,56.2281728136259
244,1436468887833,56.9855866366251
245,1436468888289,51.3824812679901
246,1436468888777,58.6834688593579
247,1436468889264,55.8379227839711
248,1436468889748,59.1482933714563
249,1436468890242,59.4784227139779
250,1436468890728,58.2477584946082
251,1436468891243,54.820825169052
252,1436468891747,45.8763665458984
253,1436468892232,58.8161896114838
254,1436468892660,66.1876193102576
255,1436468893113,60.2005187091532
256,1436468893608,58.0340220835806
257,1436468894118,49.8928844127662
258,1436468894619,59.4670350642605
259,1436468895174,53.3704864650917
260,1436468895679,59.113523758354
261,1436468896182,65.1768656554743
262,1436468896684,47.7533687309583
263,1436468897569,58.8597434132721
264,1436468897915,46.1223124203411
265,1436468898363,53.316530044397
266,1436468898809,58.3515739367153
267,1436468899226,46.1391879653903
268,1436468899691,59.3518245590131
269,1436468900305,50.331186291081
270,1436468900663,57.2874201484341
271,1436468901103,48.465977224662
272,1436468901531,58.9650993318001
273,1436468902000,59.6379900150565
274,1436468902487,45.2665102900397
275,1436468902972,53.1624743885305
276,1436468903447,46.4704654762714
277,1436468903937,65.2220463921766
278,1436468904419,47.62854152616
279,1436468904994,60.3980136310485
280,1436468905483,56.8512263990633
281,1436468905985,56.1089945787751
282,1436468906469,51.8292449333855
283,1436468906957,58.5204128597061
284,1436468907421,61.1252536080132
285,1436468907859,51.0130152301757
286,1436468908281,46.1213337424356
287,1436468908761,53.3587222083216
288,1436468909262,42.3841673510186
289,1436468909804,58.4884914066814
290,1436468910271,38.5776042767164
291,1436468910744,52.955459235044
292,1436468911238,61.7968139340024
293,1436468911724,46.4637821624333
294,1436468912204,60.2581526132893
295,1436468912698,55.0339268889455
296,1436468913167,57.474169854427
297,1436468913545,71.1803572784174
298,1436468913966,55.4895588690036
299,1436468914434,61.3042326345933
300,1436468914962,45.1989372101478
301,1436468915448,61.6434614723558
302,1436468915941,62.7693286063351
303,1436468916433,44.2204127645053
304,1436468916919,67.698376582879
305,1436468917420,48.0192475816876
306,1436468917896,60.7693937707012
307,1436468918335,39.4431993031757
308,1436468918766,59.3355852798156
309,1436468919266,58.5242257310531
310,1436468919763,46.6587912650432
311,1436468920332,61.3816905041906
312,1436468920786,53.3513611950995
313,1436468921202,51.3413677958831
314,1436468921632,51.2700776993358
315,1436468922119,66.1813314321695
316,1436468922607,51.5389544352726
317,1436468923069,44.6346403860471
318,1436468923559,51.6169977164029
319,1436468924095,46.0893640715215
320,1436468924589,58.7106845024507
321,1436468925132,50.9251024343811
322,1436468925625,55.3721061176798
323,1436468926101,47.8040852347983
324,1436468926589,58.6683312184559
325,1436468927095,46.4414134999928
326,1436468927581,55.9482469903777
327,1436468928071,42.4440410052662
328,1436468928574,56.5308615111242
329,1436468929076,58.7324031159287
330,1436468929470,60.8269761453734
331,1436468929898,51.086702975987
332,1436468930361,62.5220363390839
333,1436468930822,55.1025051340562
334,1436468931295,45.5804638364817
335,1436468931824,63.6446486664174
336,1436468932293,53.083060129982
337,1436468932632,56.6272121820211
338,1436468933066,47.4264152673135
339,1436468933550,47.5102033498374
340,1436468934046,42.3289317692349
341,1436468934536,59.8542122598184
342,1436468935079,47.4724544388366
343,1436468935551,62.3142127552912
344,1436468935956,46.2481309145486
345,1436468936367,46.1582743164174
346,1436468936827,57.26669167871
347,1436468937323,38.9702080941192
348,1436468937834,59.0859707849049
349,1436468938340,58.0341795128191
350,1436468938821,65.8893245416536
351,1436468939256,47.8402448401215
352,1436468939681,39.7905733052899
353,1436468940136,53.7602612097956
354,1436468940625,42.2517629336346
355,1436468940982,48.1588677721178
356,1436468941388,69.4382782154909
357,1436468941854,44.0378952598305
358,1436468942344,53.5672345264624
359,1436468943695,50.9932740093414
360,1436468944136,50.3748625259748
361,1436468944634,53.1773984210009
362,1436468945175,48.0390914141148
363,1436468945669,54.1143823107142
364,1436468946145,48.4097503784223
365,1436468946604,54.6273748474383
366,1436468947103,46.1024144329251
367,1436468947603,51.0758506937867
368,1436468948115,50.8331169813143
369,1436468948608,62.5365291581317
370,1436468949057,42.5929015219027
371,1436468949448,60.2307403668222
372,1436468949863,54.2430317025908
373,1436468950334,58.0866766746594
374,1436468950796,59.1699927951398
375,1436468951334,51.3992618864913
376,1436468951823,70.4356546048312
377,1436468952322,46.4077190987772
378,1436468952770,53.7788083971549
379,1436468953275,52.2312528510751
380,1436468953770,59.053928445477
381,1436468954283,54.1752632118513
382,1436468954787,66.6589270427008
383,1436468955255,59.3957344866941
384,1436468955683,45.4559605592085
385,1436468956148,56.0645700713458
386,1436468956640,50.1014432929432
387,1436468957120,61.518977672704
388,1436468958873,43.0747354005393
389,1436468959304,43.0373596629161
390,1436468959747,47.9741515279109
391,1436468960266,64.5430137585359
392,1436468960769,51.1750629565278
393,1436468961207,58.4438131225467
394,1436468961670,64.2529926692767
395,1436468962164,52.4869347639065
396,1436468962646,68.2412281154071
397,1436468963117,48.6973066877232
398,1436468963494,53.8820273169072
399,1436468963917,58.8561167953969
400,1436468964397,60.8567527085405
401,1436468964886,59.2879863751293
402,1436468965399,55.6645117514571
403,1436468965881,61.0879357231902
404,1436468966389,53.7375283310637
405,1436468966883,52.9569766620488
406,1436468967385,51.1799292277152
407,1436468967894,55.1182183961023
408,1436468968394,48.584089759682
409,1436468968883,59.1818661772459
410,1436468969404,56.4532457322296
411,1436468969851,58.2472194978363
412,1436468970337,59.0471752976687
413,1436468970823,48.0127086011991
414,1436468971303,63.0865328624187
415,1436468971798,43.7876508010023
416,1436468972263,56.1989846450899
417,1436468972744,41.9262108453222
418,1436468973227,56.2591269102528
419,1436468973604,46.0770523300957
420,1436468974016,51.4605070961033
421,1436468974475,52.5180079028465
422,1436468974976,48.4908326980694
423,1436468975492,49.4733131360298
424,1436468975997,43.0522992419101
425,1436468976492,64.9158869253997
426,1436468977035,61.8846518153768
427,1436468977538,58.2230601942632
428,1436468978042,58.9132590638318
429,1436468978549,43.3221354565851
430,1436468979032,61.9355138231936
431,1436468979523,50.8064825918234
432,1436468979983,55.078916499793
433,1436468981763,43.5736841605323
434,1436468982181,53.8590864628966
435,1436468982644,45.6152904772815
436,1436468983100,40.5207031552659
437,1436468983573,60.9427627904198
438,1436468984063,63.1801504766911
439,1436468984570,46.3512889728448
440,1436468985015,50.8391834453165
441,1436468985514,54.5982898875434
442,1436468986006,49.9577472356604
443,1436468986494,59.4697686604241
444,1436468987003,44.8737465637995
445,1436468987452,47.984571802078
446,1436468987902,46.8599247727445
447,1436468988389,52.324514368093
448,1436468988865,48.1312730603379
449,1436468989375,57.0722099436995
450,1436468989863,46.5976189052594
451,1436468990317,56.9829343744024
452,1436468990708,57.3618202121433
453,1436468991139,58.1290833397414
454,1436468991633,60.9299328807901
455,1436468992152,51.0108993978616
456,1436468992633,60.8391771158349
457,1436468993214,36.6342268601385
458,1436468994388,54.8272586268951
459,1436468994840,55.0366340954795
460,1436468995328,55.1466303283367
461,1436468995857,60.623122872723
462,1436468996352,50.559778110304
463,1436468996850,42.7388503382927
464,1436468997352,59.1232510922111
465,1436468997878,53.2865932782551
466,1436468998379,60.9728605323519
467,1436468998884,51.2818297061943
468,1436468999382,48.1123441446687
469,1436468999893,69.1327660588479
470,1436469000372,43.8378352784211
471,1436469000902,55.8192506305813
472,1436469001329,48.1164522816865
473,1436469001669,57.5199023337009
474,1436469002106,47.8880364733769
475,1436469002572,53.8277934834958
476,1436469003069,47.0583859160783
477,1436469003555,66.1334427431324
478,1436469004041,49.1352557626664
479,1436469004513,54.0093753068281
480,1436469005099,55.1310481686481
481,1436469005473,44.4599173667413
482,1436469005871,52.0107171703926
483,1436469006335,45.0436212613116
484,1436469006804,54.1329374136745
485,1436469007317,57.2255548867637
486,1436469007828,49.6507690797312
487,1436469008342,49.5895268819487
488,1436469008846,59.0931165363966
489,1436469009322,53.8482889381276
490,1436469009822,61.1228336942436
491,1436469010330,53.7729701443745
492,1436469010745,44.8432530984946
493,1436469011205,60.7423378685458
494,1436469011691,48.3639255359775
495,1436469012184,50.6700235503631
496,1436469012681,49.893456341827
497,1436469013211,57.603204186775
498,1436469013714,42.8594158491633
499,1436469014238,67.9417640913807
500,1436469014834,48.4209815524926
501,1436469015337,59.6281858444091
502,1436469015811,58.8451404406213
503,1436469016311,51.2739034197747
504,1436469016814,64.2579953990229
505,1436469017303,60.0957921029878
506,1436469017689,61.5774513882911
507,1436469018162,55.2978766404062
508,1436469018651,68.3015131843456
509,1436469019101,42.6327114376395
510,1436469019505,50.6966733202156
511,1436469019853,50.4754230268569
512,1436469020193,49.0699698422111
513,1436469020539,55.2465539737575
514,1436469020886,60.4506151848275
515,1436469021231,44.204867152396
516,1436469021573,61.7477390288253
517,1436469021909,52.704524881527
518,1436469022264,49.2871880953936
519,1436469022627,54.8169847305018
520,1436469023001,60.7822861076751
521,1436469023356,51.8451395471615
522,1436469023768,57.0514967028268
523,1436469024259,53.7014004929008
524,1436469024661,60.1078207082845
525,1436469025023,63.1037878705325
526,1436469025366,44.8569200270411
527,1436469025731,53.3449715830502
528,1436469026122,70.1546078913802
529,1436469026459,41.9911402310667
530,1436469026792,62.871728490639
531,1436469027216,55.6006758721546
532,1436469027611,51.8699635140773
533,1436469027995,60.5651399110328
534,1436469028413,46.7873180540674
535,1436469028868,59.1655508867745
536,1436469029304,58.2861879690468
537,1436469029659,54.9285496338155
538,1436469029994,48.6047194902644
539,1436469030426,42.390268405477
540,1436469030874,55.890625476903
541,1436469031307,41.4685310976309
542,1436469031671,61.477865075648
543,1436469032098,57.0063212765721
544,1436469032559,54.294755769057
545,1436469033051,58.3955932934574
546,1436469033546,52.0666531149454
547,1436469034041,68.3487956331492
548,1436469034526,48.3965234869269
549,1436469035113,68.4291117663858
550,1436469035620,47.0888811776071
551,1436469036072,58.9803496076613
552,1436469036483,52.4804282597924
553,1436469036851,49.1098253453086
554,1436469037300,60.8407042228518
555,1436469037775,53.2226959306441
556,1436469038251,54.686593754191
557,1436469038732,65.769236038085
558,1436469039221,53.1937845225409
559,1436469039713,60.5276457127052
560,1436469040273,43.7274316136804
561,1436469040757,58.2906826855312
562,1436469041273,48.724638596566
563,1436469041731,54.6385629222987
564,1436469042108,59.0307855353038
565,1436469042480,51.9621487014036
566,1436469042927,57.0151887643196
567,1436469043418,57.122780507727
568,1436469043892,46.9261678277376
569,1436469044375,61.2864624728746
570,1436469044867,45.7544556024963
571,1436469045433,56.7032219522417
572,1436469045845,55.0208100261938
573,1436469046322,60.2098006826756
574,1436469046801,66.9711797338787
575,1436469047302,51.9557732009057
