id,attr_time,attr_db
1,1436468771320,49.0621462587571
2,1436468772012,25.1196845387944
3,1436468772720,30.6841274019496
4,1436468773442,35.6094774071949
5,1436468774170,17.5185459686472
6,1436468774916,24.0103846919329
7,1436468775685,27.0804917677142
8,1436468776360,20.4815313778396
9,1436468777088,21.2380627438258
10,1436468777813,26.5032015167714
11,1436468778578,50.0576592117555
12,1436468779308,24.7504122508095
13,1436468780046,25.2104596630428
14,1436468780917,55.1724962587581
15,1436468781632,43.0220213384921
16,1436468782319,50.9522894441828
17,1436468782964,45.5618983803129
18,1436468783759,34.0313450794228
19,1436468784529,62.7283955800415
20,1436468785282,56.2081537232801
21,1436468786096,55.7190085540529
22,1436468786864,69.6086118047674
23,1436468787664,60.5391904969504
24,1436468788392,60.9412348699779
25,1436468789117,44.6318730898503
26,1436468789855,50.8628818945806
27,1436468790605,49.696308358252
28,1436468791339,63.2148656938904
29,1436468792068,56.9757816531984
30,1436468792773,66.6505999492554
31,1436468793427,58.6774963712533
32,1436468794162,65.5923363852974
33,1436468794899,64.6895104281155
34,1436468795619,63.9283940014229
35,1436468796301,50.3505880426011
36,1436468797048,61.4200100728123
37,1436468797778,58.9843554993949
38,1436468798539,63.8697275360982
39,1436468799276,60.103609833466
40,1436468800040,53.4947426446889
41,1436468800761,63.1660036688974
42,1436468801541,72.752258163502
43,1436468802265,41.4829609103692
44,1436468802985,60.0838978587487
45,1436468803727,50.3923269092748
46,1436468804483,61.7712011440046
47,1436468805203,55.3321968391461
48,1436468805946,36.3310018888427
49,1436468806717,44.4668158808318
50,1436468807454,54.1616644774222
51,1436468808175,40.1475111352454
52,1436468808908,55.2836980860382
53,1436468809655,57.1766515455789
54,1436468810415,41.242624195569
55,1436468811217,37.0888398209825
56,1436468811973,39.6992033727666
57,1436468812742,37.6550191605447
58,1436468813402,40.1709485715441
59,1436468814142,47.1805401979844
60,1436468814898,39.1672792068118
61,1436468815654,67.6456656664008
62,1436468816333,68.4943973274208
63,1436468817079,30.4935979787149
64,1436468817832,42.5752072561134
65,1436468818566,43.50656901722
66,1436468819293,55.3861860613973
67,1436468820012,35.6215334215181
68,1436468820744,47.9872094031244
69,1436468821493,42.0343814027298
70,1436468822220,34.1786461867782
71,1436468822928,39.7517863356254
72,1436468823595,54.5183261477134
73,1436468824318,39.0767722694932
74,1436468825032,33.3577891820735
75,1436468825759,34.7646400462721
76,1436468826525,40.8865211264031
77,1436468827217,43.8159835055543
78,1436468827815,41.2296834762817
79,1436468828495,60.1149413670597
80,1436468829216,25.6339431126434
81,1436468829954,42.3315935047427
82,1436468830682,33.0717707967062
83,1436468831423,43.9534367616451
84,1436468832099,74.5287487620391
85,1436468832741,59.6106653674585
86,1436468833441,43.0605937020309
87,1436468834129,45.3332260312492
88,1436468834865,54.948936604509
89,1436468835619,34.412037729824
90,1436468836368,48.0418330408617
91,1436468837101,52.7751484316986
92,1436468837895,69.8002035246593
93,1436468838622,58.508557931692
94,1436468839389,44.4549558740642
95,1436468840111,42.4444525290105
96,1436468840829,42.4380363309414
97,1436468841624,42.8760504920514
98,1436468842407,44.2733884675713
99,1436468843088,43.7793251818321
100,1436468843808,40.2854916122134
101,1436468844568,49.8992668769226
102,1436468845338,46.4852447386107
103,1436468846062,36.0416615341979
104,1436468846790,33.876641041343
105,1436468847527,28.7731810743367
106,1436468848140,32.1956343636876
107,1436468848903,43.6048481391427
108,1436468849636,33.6786791531665
109,1436468850410,38.0083115182231
110,1436468851134,29.3331780071096
111,1436468851841,20.5696149388687
112,1436468852584,42.1414329717132
113,1436468853275,38.9136938442127
114,1436468853988,27.9659565856602
115,1436468854711,46.4959098664443
116,1436468855443,65.5220898682313
117,1436468856151,45.1825253388815
118,1436468856884,57.7331787495151
119,1436468857623,45.4295441003115
120,1436468858344,39.9504307663999
121,1436468859056,47.7259302763717
122,1436468859905,52.964781562006
123,1436468860659,54.6635350774379
124,1436468861400,40.909958994708
125,1436468862130,47.0312256532845
126,1436468862868,44.4072093551275
127,1436468863635,46.3807388934286
128,1436468864375,36.1040535764499
129,1436468865101,34.9052998519137
130,1436468865855,42.5998023511512
131,1436468866626,36.1769614900366
132,1436468867473,41.2764472225467
133,1436468868194,34.9286243102631
134,1436468868932,32.1570067828036
135,1436468869657,43.578034071052
136,1436468870400,36.613487493149
137,1436468871231,38.0629415752626
138,1436468871904,39.4695180182895
139,1436468872599,42.4271061275606
140,1436468873297,57.3233023388541
141,1436468874004,46.0181990808893
142,1436468874730,38.7767888771602
143,1436468875476,27.977692616554
144,1436468876205,35.9446643914806
145,1436468876921,40.7967664157599
146,1436468877675,34.796117481328
147,1436468878407,40.3976332499722
148,1436468879142,35.4078962014473
149,1436468879881,54.0009417803057
150,1436468880666,29.8956685414552
151,1436468881396,46.6462103252633
152,1436468882126,44.8584992869545
153,1436468882836,50.6710610723128
154,1436468883532,52.7802369519865
155,1436468884261,38.152963725319
156,1436468884984,58.9660426392489
157,1436468885750,58.8583489208328
158,1436468886491,62.3125402772208
159,1436468887225,54.0351558189229
160,1436468887972,45.4185803988829
161,1436468888733,60.9479854630728
162,1436468889341,64.2537830163111
163,1436468890010,46.8967863892317
164,1436468890819,65.5076616932867
165,1436468891559,39.2354853942226
166,1436468892282,39.6118612423955
167,1436468893240,62.0670318161722
168,1436468893922,43.5156139422307
169,1436468894657,41.503662814527
170,1436468895308,42.2824094496198
171,1436468896693,42.7109050946552
172,1436468897383,44.658595396025
173,1436468897977,47.8738821726809
174,1436468898691,44.4222646123376
175,1436468899433,43.3302851641667
176,1436468900253,40.0617638494278
177,1436468900994,66.057535276168
178,1436468901723,62.7966167650997
179,1436468902829,63.4168316258502
180,1436468903444,58.454796127961
181,1436468904094,46.4777600174325
182,1436468904842,34.6055684101101
183,1436468905587,32.9967725706185
184,1436468906331,31.8838994654925
185,1436468907063,31.7540566220199
186,1436468907857,64.9921397435941
187,1436468908659,50.5106808904557
188,1436468909368,43.1125148421501
189,1436468910019,46.4809908788447
190,1436468911966,47.0689277516267
191,1436468912654,46.7800622040605
192,1436468913357,39.6525636518487
193,1436468914018,37.3303259874451
194,1436468914704,34.3354662660879
195,1436468915511,42.447091700905
196,1436468916228,36.6111692058327
197,1436468916953,33.9920214667213
198,1436468917690,41.4554419472273
199,1436468918417,33.704279617071
200,1436468919129,39.2388822499734
201,1436468919875,41.3374776208905
202,1436468920608,32.2663232671111
203,1436468921347,38.3425526633556
204,1436468922076,55.1422551592262
205,1436468922808,35.518268069787
206,1436468923536,41.3052628912809
207,1436468924273,43.5827509820594
208,1436468924984,41.2483219734523
209,1436468925681,63.7276379872427
210,1436468926405,53.394813337143
211,1436468927123,33.7979109768382
212,1436468927840,36.4157469339393
213,1436468928574,40.4133787893209
214,1436468929304,28.1411665661426
215,1436468930027,39.0594419679315
216,1436468930761,41.2450630767342
217,1436468931501,49.9388053109985
218,1436468932229,43.9692127743416
219,1436468934274,44.0673922423735
220,1436468934978,33.4031500110761
221,1436468935679,44.387126575749
222,1436468936393,43.396334281797
223,1436468937066,47.1319054767543
224,1436468937803,38.2987324603611
225,1436468938552,38.3614409576382
226,1436468939283,41.3861722023365
227,1436468940016,52.589453821933
228,1436468940735,33.907232906225
229,1436468941472,34.2951520918878
230,1436468942164,33.7928279746756
231,1436468942860,37.2420984347928
232,1436468943615,34.0758118979521
233,1436468944327,47.186109667217
234,1436468945064,35.9397371927665
235,1436468945792,44.3154497341478
236,1436468947199,35.3515383849032
237,1436468947945,47.938576976961
238,1436468948671,48.9045840347121
239,1436468949416,56.0221873924802
240,1436468950148,54.3265695459251
241,1436468950873,47.6765879145647
242,1436468951596,49.2759389353298
243,1436468952338,44.2998884636458
244,1436468953063,46.2352657647255
245,1436468953760,45.558121008084
246,1436468954430,36.3893388133851
247,1436468955170,41.1207795140318
248,1436468955902,45.1776925446819
249,1436468956620,43.2916250209555
250,1436468957356,44.7364091389294
251,1436468958036,43.3828237945677
252,1436468958760,49.2494420725385
253,1436468959505,40.4175370185749
254,1436468960233,43.1140112322376
255,1436468960933,66.5272025141252
256,1436468961676,56.9544113675358
257,1436468962412,61.547421905058
258,1436468963147,57.6783123510246
259,1436468963887,61.9527423567119
260,1436468964697,38.4403597113623
261,1436468965435,38.5216388103734
262,1436468966151,55.5641099356113
263,1436468966875,39.0830035072211
264,1436468967581,45.1137412575822
265,1436468968281,36.312026051391
266,1436468969022,39.7592252307263
267,1436468969703,51.312903941161
268,1436468970428,52.3457731584478
269,1436468971305,34.2128588019792
270,1436468972042,36.5045812763786
271,1436468972778,41.4567869914434
272,1436468973500,37.9749901151047
273,1436468974177,44.0776148805227
274,1436468974923,52.8168474595253
275,1436468975651,46.261960158254
276,1436468976352,40.3581033283229
277,1436468977054,45.1197184035876
278,1436468977700,46.9977449263252
279,1436468978414,38.409923784112
280,1436468979137,45.9484349074637
281,1436468979869,59.3108248622778
282,1436468980596,32.8074132749916
283,1436468981323,30.7734505146473
284,1436468982048,33.0271494907242
285,1436468982754,33.4626328416852
286,1436468983450,45.1466907543183
287,1436468984187,40.0325966055536
288,1436468984934,40.0214440794827
289,1436468985650,33.4772553609599
290,1436468986386,39.5269421643551
291,1436468987108,36.9591141717029
292,1436468987857,44.2022861958768
293,1436468988572,42.5470661638557
294,1436468989237,32.4445054413983
295,1436468989981,44.1929095823159
296,1436468990698,39.1404459380445
297,1436468991424,35.4605660328123
298,1436468992138,46.735280274633
299,1436468992881,37.2834945927852
300,1436468993619,46.6210834221621
301,1436468994266,40.7151012873796
302,1436468994981,36.4530580827229
303,1436468995719,33.6449876619131
304,1436468996453,37.2870162898814
305,1436468997179,36.8466714187781
306,1436468997920,44.0805303615208
307,1436468998610,54.3226175121772
308,1436468999346,48.8249601876624
309,1436469000068,49.4367374964849
310,1436469000816,36.0577437779462
311,1436469001589,40.3212352612925
312,1436469002304,41.7954009603823
313,1436469003035,38.3588677097713
314,1436469003775,35.1869936541164
315,1436469004507,49.9870456514668
316,1436469005237,45.3721260324071
317,1436469005969,48.5479130227922
318,1436469006702,47.9530517794452
319,1436469007437,35.6638574558502
320,1436469008163,42.440657253604
321,1436469008905,41.5338490721548
322,1436469009565,42.4678228275813
323,1436469010289,44.1584358265567
324,1436469011003,53.9575547623453
325,1436469011713,37.6506772639044
326,1436469012472,51.3712522305331
327,1436469013190,39.621535276801
328,1436469013841,41.3433979207403
329,1436469014433,41.847101097219
330,1436469015092,51.2672461275791
331,1436469015764,42.8252214425132
332,1436469016406,53.1569559696312
333,1436469017092,41.6079020773282
334,1436469017845,37.5375227244781
335,1436469018589,41.2956570428424
336,1436469019303,34.9911216986876
337,1436469019984,40.3873883621898
338,1436469020674,58.4912059325066
339,1436469021410,44.3710359830324
340,1436469022144,42.0181619123003
341,1436469022886,40.8930335502998
342,1436469023653,45.2105693798467
343,1436469024261,40.2054802000293
344,1436469024952,37.2797424305482
345,1436469025770,39.5473973813098
346,1436469026508,39.5097364732752
347,1436469027238,43.9101475380715
348,1436469027976,35.2227026751888
349,1436469028745,47.6645543985546
350,1436469029472,41.4520224620745
351,1436469030172,45.9805466254295
352,1436469030950,41.1661514009428
353,1436469031682,40.0376925186504
354,1436469032424,39.1654882376373
355,1436469033146,34.9520787143358
356,1436469033826,44.3916626064613
357,1436469034503,36.609411193127
358,1436469035186,42.5300111741896
359,1436469035897,44.3245748037507
360,1436469036637,38.5402073907836
361,1436469037358,42.0723226645165
362,1436469038096,40.3561806068706
363,1436469038840,38.1810890992543
364,1436469039558,39.1245773971498
365,1436469040223,42.9731153715242
366,1436469040907,39.5307987354675
367,1436469041675,39.1674965081312
368,1436469042395,48.3343143430954
369,1436469043113,45.2098114836865
370,1436469043813,42.6184197072518
371,1436469044535,37.9981574512969
372,1436469045335,38.9721609854979
373,1436469046050,45.0565691307369
374,1436469046791,45.5599419063241
375,1436469047540,41.3255490109911
376,1436469048285,41.4081449733495
377,1436469049016,38.5722957079306
378,1436469049747,38.9876510801947
379,1436469050431,45.4661617629731
380,1436469051143,46.2306209355506
381,1436469051889,42.8190050440822
382,1436469052610,36.8244727467306
383,1436469053365,39.2121478970571
384,1436469054113,43.5759601903553
385,1436469054789,40.7726032048023
386,1436469055537,40.7783475517952
387,1436469056268,41.6572396672699
388,1436469056999,40.7100266674055
389,1436469057738,38.7246541894331
390,1436469058487,42.7613508560592
391,1436469059191,44.2208247137424
392,1436469059922,35.6936216374967
393,1436469060640,45.0804314587779
394,1436469061307,38.4280884863194
395,1436469061962,40.8624587140309
396,1436469062699,39.1450591194162
397,1436469063454,45.4554510166949
398,1436469064204,54.1632098313043
399,1436469064920,41.0382425872903
400,1436469065628,43.4926511711866
401,1436469066355,45.2392848440376
402,1436469067095,42.150723511134
403,1436469067845,41.9365697358779
404,1436469068567,40.9233924564557
405,1436469069322,40.9619492099266
406,1436469070050,46.5142420079593
407,1436469070784,43.8860849720612
408,1436469071467,41.1178629365301
409,1436469072146,48.0594048005628
410,1436469072889,52.5618240560744
411,1436469073596,44.3175882321046
412,1436469074296,37.34723880808
413,1436469074920,45.3975317431128
414,1436469075594,37.6998973766869
415,1436469076342,38.8552098313748
416,1436469077093,41.7234120988168
417,1436469077841,41.4454788626562
418,1436469078671,40.5840696539006
419,1436469079357,41.1142805293082
420,1436469080087,40.3993815221592
421,1436469080816,46.207565794055
422,1436469081543,41.6051809230967
423,1436469082275,44.5906656745423
424,1436469083015,46.5865491189376
425,1436469083746,40.6131836733589
426,1436469084385,42.4756909019789
427,1436469085065,44.6745055107366
428,1436469085774,39.5735006021335
429,1436469086493,57.3785858883381
430,1436469087203,43.2911412708884
431,1436469087956,40.076389924444
432,1436469088696,44.4276906375154
433,1436469089429,40.027197815938
434,1436469090153,48.6355318807548
435,1436469090915,43.9160215908977
436,1436469091681,44.697226750134
437,1436469092398,41.9258235937541
438,1436469093152,42.4439200741546
439,1436469093901,45.1772800485673
440,1436469094611,58.2285662993086
441,1436469095294,44.9774912907564
442,1436469096046,41.5406096901483
443,1436469096745,62.7308290085936
444,1436469097424,66.5036443342918
445,1436469098160,50.9254190166863
446,1436469098834,67.5185530344629
447,1436469099507,51.077634507794
448,1436469100888,68.7063242829776
449,1436469101622,70.6603060932992
450,1436469102333,42.6876017111847
451,1436469103074,64.6342223057434
452,1436469103744,39.5382591753518
453,1436469104485,36.6056360615571
454,1436469105202,46.6874955467312
455,1436469105964,61.4054865577719
456,1436469106688,39.5800255758996
457,1436469107388,38.667371602991
458,1436469108061,38.5927395507338
459,1436469108805,38.8645521973344
460,1436469109558,47.2410914519832
461,1436469110295,61.8571766571189
462,1436469111032,62.6864801154745
463,1436469111776,40.1357387033618
464,1436469112508,37.4898326823128
465,1436469113198,38.8466399428521
466,1436469113815,72.2427138048754
467,1436469114498,54.4199693997697
468,1436469115174,68.9466689309685
469,1436469115883,43.3896200028416
470,1436469116682,41.0639389779619
471,1436469117407,75.7493322030421
472,1436469118134,67.3352478494311
473,1436469118837,66.6180723305398
474,1436469119844,48.777621621454
475,1436469120585,41.5515684323119
476,1436469121325,35.8121183082125
477,1436469122066,39.3719122083688
478,1436469122799,57.7796483680363
479,1436469123520,44.7888034882182
480,1436469124264,38.4572030362535
481,1436469124941,45.4203457351316
482,1436469125694,62.9336695091569
483,1436469126440,62.7557515349965
484,1436469127176,46.1760173573431
485,1436469127919,39.2022603671108
486,1436469128667,39.2125677779068
487,1436469129358,49.2220176895653
488,1436469130089,32.6828668940241
489,1436469130834,38.7741992414084
490,1436469131614,44.6942155999364
491,1436469132353,46.103407423628
492,1436469133107,51.7565484523331
493,1436469133837,34.146284580497
494,1436469134541,40.7678878422111
495,1436469135123,37.5293816220135
496,1436469135801,37.1232654421339
497,1436469136511,39.8575040525119
498,1436469137229,33.5090023217938
499,1436469138002,32.2191619299913
500,1436469138617,38.9439808434424
501,1436469139338,34.1734116857824
502,1436469140065,38.1373020356849
503,1436469140803,31.7406104909847
504,1436469141546,43.6829724958478
505,1436469142296,40.1777875153021
506,1436469143036,38.2085016272982
507,1436469143767,42.0401577219979
508,1436469144511,42.5813942393314
509,1436469145233,30.6339548280627
510,1436469145933,35.5215197481669
511,1436469146560,38.0979175002128
512,1436469147250,38.3324999747461
513,1436469147989,37.4106156358547
514,1436469148702,38.125495985337
515,1436469149875,40.5416901554078
516,1436469150605,41.3855888977058
517,1436469151384,39.6109737891627
518,1436469152114,35.4874710413726
519,1436469152857,37.2285417038666
520,1436469153590,39.948780864717
521,1436469154316,39.2858789263521
522,1436469155061,32.4516800744273
523,1436469155764,53.3068656095734
524,1436469156407,41.970699354469
525,1436469157118,41.6200481322494
526,1436469157887,41.0152453085781
527,1436469158642,28.8147289633831
528,1436469159367,41.1635216749835
529,1436469160102,34.2708424194046
530,1436469160827,47.5826570923902
531,1436469161555,34.2798198085779
532,1436469162275,40.163155003164
533,1436469163009,30.976544916762
534,1436469163747,47.575744022022
535,1436469164465,33.9984343607331
536,1436469165198,31.3753966969191
537,1436469165881,37.9036911976715
538,1436469167214,43.3431097357034
539,1436469167938,48.1201303873536
540,1436469168672,31.7861739236437
541,1436469169419,31.7198279577653
542,1436469170078,36.920254496929
543,1436469170791,45.672810805059
544,1436469171514,44.7496019406811
545,1436469172235,42.1001504407916
546,1436469172920,38.0502104962094
547,1436469173582,31.8619005483187
548,1436469174294,37.002570303328
549,1436469174985,34.9010788599368
550,1436469175581,35.3230456550329
551,1436469176208,37.6046712738961
552,1436469177009,46.5154224718882
553,1436469177774,38.6813342962435
554,1436469178559,32.9694334703572
555,1436469179289,40.5559435177262
556,1436469179989,36.6898735067017
557,1436469180687,40.1518613874338
558,1436469181414,63.7656082565369
559,1436469182135,47.0222656736277
560,1436469182858,64.8742391882916
561,1436469183606,47.5342731271401
562,1436469184340,56.4167303649204
563,1436469185077,37.4294240396926
564,1436469185809,49.8011262177987
565,1436469186534,47.2233233965368
566,1436469187211,44.7774988784066
567,1436469187944,67.0744001592197
568,1436469188659,63.584209374603
569,1436469189396,37.4574565248836
570,1436469190117,49.7256109933844
571,1436469190870,40.9203484005465
572,1436469191628,52.274659535133
573,1436469192340,54.8736912707036
574,1436469193084,42.9477233769012
575,1436469193815,42.072303602481
