id,attr_time,attr_db
1,1436983160453,17.6341667907523
2,1436983161174,38.3549548785635
3,1436983161858,36.95011152386
4,1436983162598,26.1006608672666
5,1436983163324,20.5670862410983
6,1436983164046,37.6945138706981
7,1436983164847,47.5393749760546
8,1436983165522,36.2559734641953
9,1436983166204,25.0378354957858
10,1436983166939,17.6542247133526
11,1436983167682,12.3827087220842
12,1436983168437,34.1109482638301
13,1436983169171,46.9730446292898
14,1436983169979,13.3047743624681
15,1436983170702,9.990543680838
16,1436983171421,54.528612227884
17,1436983172105,26.6730088270162
18,1436983172774,34.711022893003
19,1436983173496,16.0810611287421
20,1436983174302,41.1088580132788
21,1436983175024,40.425239620799
22,1436983175739,45.902298444096
23,1436983176382,52.2839126601288
24,1436983177114,40.2791518743285
25,1436983177855,53.6502493250199
26,1436983178590,46.1379006466181
27,1436983179400,19.9002115887994
28,1436983180130,41.9537037752622
29,1436983180881,54.3880145381263
30,1436983181594,12.280627638441
31,1436983182284,52.6902593518123
32,1436983183009,14.3541447863923
33,1436983183746,37.6801392085705
34,1436983184483,48.9420679105286
35,1436983185245,42.6986654462787
36,1436983185978,39.3761275254513
37,1436983186763,53.1885546557085
38,1436983187425,48.9712291327313
39,1436983188160,51.203335243793
40,1436983188906,11.3816729859
41,1436983189645,36.4344985869745
42,1436983190377,11.024653915186
43,1436983191113,34.548990854939
44,1436983191836,16.4199502210112
45,1436983192553,44.2328965794842
46,1436983193231,47.6403601172636
47,1436983193977,37.8370887186216
48,1436983194719,23.9076212057224
49,1436983195454,8.42194513654131
50,1436983196178,9.96642709385824
51,1436983196814,24.5078075363874
52,1436983197575,9.61594019418759
53,1436983198314,7.03287297338605
54,1436983199066,6.10464458438911
55,1436983199800,8.26820856321549
56,1436983200547,41.7976230701973
57,1436983201273,44.9002444267944
58,1436983202008,10.2363115861357
59,1436983202732,43.5806148977408
60,1436983203371,20.5139440279953
61,1436983204055,20.1048739194667
62,1436983204713,44.7750244729578
63,1436983205366,45.3088122507885
64,1436983206016,54.192483650849
65,1436983206671,41.563865316957
66,1436983207403,36.0745530387201
67,1436983208164,42.3138446474067
68,1436983208906,51.8770232861573
69,1436983209575,15.8936479200494
70,1436983210213,34.1105641540163
71,1436983210883,55.7159738670094
72,1436983211646,32.5077680179885
73,1436983212373,27.6269008667238
74,1436983213090,46.1662043366675
75,1436983213761,16.9222757106994
76,1436983214556,52.4821667589091
77,1436983215313,45.1305230707802
78,1436983216020,11.1890312298234
79,1436983216752,12.5070317359364
80,1436983217406,19.6088859592978
81,1436983218133,26.1402972744503
82,1436983218876,18.3849742332863
83,1436983219659,7.65458012738888
84,1436983220399,18.6400583337887
85,1436983221129,10.3259657944251
86,1436983221869,34.2192393762586
87,1436983222607,43.5510995992622
88,1436983223284,47.382540155106
89,1436983223968,52.2746230420843
90,1436983224704,35.8808760961764
91,1436983225448,14.3741957107539
92,1436983226153,50.0531179567846
93,1436983226802,49.275147079666
94,1436983227563,23.5750480537249
95,1436983228295,41.0427733598743
96,1436983229026,40.8443206059439
97,1436983229762,12.2948523114736
98,1436983230497,45.5567624058972
99,1436983231226,18.4044594034004
100,1436983231916,16.4459537387737
101,1436983232644,28.3133540190868
102,1436983233354,27.2609379315478
103,1436983234002,45.8087625268572
104,1436983234743,8.05907059785927
105,1436983235475,31.6218833780024
106,1436983236252,6.66096997215573
107,1436983236934,11.3790369040473
108,1436983237520,40.8242308752372
109,1436983238193,13.5990359655125
110,1436983238930,7.79643929060979
111,1436983239724,22.2399200609435
112,1436983240519,43.2480990972816
113,1436983241247,30.459695289485
114,1436983241978,45.7880313586315
115,1436983243083,47.7956657811313
116,1436983243665,44.7689507556036
117,1436983244368,40.9840727964173
118,1436983245103,41.646451625535
119,1436983245819,38.5725096545394
120,1436983246597,40.5825650437077
121,1436983247319,33.6383077598362
122,1436983247996,21.7308785500391
123,1436983248718,43.987481804602
124,1436983249528,30.8793622559008
125,1436983250255,29.4752991848301
126,1436983250986,19.4046261183655
127,1436983251723,15.1154350124298
128,1436983252455,10.9987447587655
129,1436983253203,32.7463184617278
130,1436983253903,55.9809252591711
131,1436983254591,36.8018849466247
132,1436983255429,48.279618039704
133,1436983256167,40.9722890075853
134,1436983256912,29.9982011371789
135,1436983257639,25.0888958898318
136,1436983258366,44.1580728267494
137,1436983259092,17.675282520965
138,1436983259793,16.7883157483556
139,1436983260571,54.7992937679092
140,1436983261256,27.5091452365288
141,1436983261983,36.1025029163976
142,1436983262716,34.0526440970561
143,1436983263460,54.7415654983636
144,1436983264186,42.3765423618284
145,1436983264839,29.2730851713283
146,1436983265651,41.6870467702739
147,1436983266366,20.5365448799814
148,1436983267084,33.5183934523323
149,1436983267758,23.6673127558647
150,1436983268444,35.6011446844429
151,1436983269104,41.3750745890426
152,1436983269854,20.399654905157
153,1436983270586,54.6672650312047
154,1436983271328,51.8395593522422
155,1436983272057,35.9128117299426
156,1436983272796,16.5417342082334
157,1436983273523,40.1812063250769
158,1436983274254,14.2683562102087
159,1436983274914,33.1494489439834
160,1436983275732,31.105523370696
161,1436983276471,31.477806265046
162,1436983277307,21.0897542589518
163,1436983277894,46.1454259850679
164,1436983278573,33.8542787763036
165,1436983279297,21.3519946671118
166,1436983280029,25.5247035811081
167,1436983280835,30.8417605100109
168,1436983281595,11.9344978462062
169,1436983282299,35.5146215755006
170,1436983283052,18.214943800875
171,1436983283779,13.9422951516661
172,1436983284442,13.8095296813286
173,1436983285162,13.6533264516484
174,1436983285878,29.7418809621004
175,1436983286629,32.9063938046421
176,1436983287373,23.1042252424277
177,1436983288040,17.1949023260065
178,1436983288765,17.6210347688206
179,1436983289491,28.6830754786922
180,1436983290269,20.1503834995556
181,1436983291005,16.1453007012599
182,1436983291788,18.8938092528812
183,1436983292515,15.2642367165344
184,1436983293239,16.8794018391384
185,1436983293981,20.6588192381138
186,1436983294739,32.3715639217779
187,1436983295491,57.7503879840792
188,1436983296253,41.4707489924686
189,1436983296999,47.0378188734998
190,1436983297705,42.4073805178788
191,1436983298373,18.5381888749206
192,1436983299075,24.2800682700414
193,1436983299773,37.2478130284571
194,1436983300448,39.2456659729667
195,1436983302229,50.1159168241149
196,1436983302981,23.375608985398
197,1436983303712,48.7164704738446
198,1436983304433,59.0473107611013
199,1436983305146,54.3945531399743
200,1436983305845,24.1578031890635
201,1436983306592,57.5510795790274
202,1436983307399,41.9920505826023
203,1436983308087,41.0846196664276
204,1436983308691,39.9926269556558
205,1436983309417,41.9150381719855
206,1436983310122,24.4111389763454
207,1436983310856,45.8804952036472
208,1436983312357,39.1402883050887
209,1436983313098,20.4717827728285
210,1436983313826,45.74657869943
211,1436983314563,43.0820322937795
212,1436983315282,44.3445592843574
213,1436983315920,45.9088883646081
214,1436983316654,24.6290682416303
215,1436983317370,41.0432124119736
216,1436983318087,39.9948645114555
217,1436983318806,44.5470745215851
218,1436983319515,43.2416722116287
219,1436983320180,21.4239196964673
220,1436983320983,51.5955572160834
221,1436983321706,38.8390050881694
222,1436983322445,47.0685225584059
223,1436983323201,31.6685770316785
224,1436983323938,38.8984838598463
225,1436983324665,30.1488741713388
226,1436983325387,46.510203100625
227,1436983325980,23.1986066563558
228,1436983327005,56.5437494426859
229,1436983327719,43.9059701134021
230,1436983328441,38.8699950543942
231,1436983329187,44.958844573069
232,1436983329904,44.212736579693
233,1436983330626,24.3350407322869
234,1436983331374,30.0017298216915
235,1436983332116,51.3688916889067
236,1436983332871,59.5732169437549
237,1436983333599,21.3120434303565
238,1436983334331,37.3764524529654
239,1436983334985,55.0397058801887
240,1436983336299,41.8769962212828
241,1436983337033,36.816996693299
242,1436983337753,35.1259636122413
243,1436983338374,48.20488526402
244,1436983339066,40.6107851022264
245,1436983339792,44.502197220905
246,1436983340553,33.8845757018675
247,1436983341293,49.7443089057543
248,1436983342033,58.7615319060648
249,1436983342774,50.5896593133684
250,1436983343520,27.9599130011728
251,1436983344252,18.3999625740897
252,1436983344967,19.8247487221239
253,1436983345690,9.54385436674683
254,1436983346353,12.5527014187555
255,1436983347047,47.4528992148242
256,1436983347778,41.8256266621448
257,1436983348525,53.3305183660586
258,1436983349284,40.1403087017583
259,1436983350001,40.9608969397206
260,1436983350740,36.0023469612233
261,1436983351583,26.7520361851377
262,1436983352244,18.7056542701429
263,1436983352923,37.6552598273906
264,1436983353686,40.3973673439629
265,1436983354411,59.8819678065836
266,1436983355146,42.6885785703399
267,1436983355888,29.4280368715791
268,1436983356508,40.6248632320282
269,1436983357157,45.5306609592587
270,1436983357855,25.9168170228506
271,1436983358611,28.9703506091195
272,1436983359372,27.0898856639815
273,1436983360075,33.1650061889982
274,1436983360802,32.2403178656406
275,1436983361548,40.7573307188157
276,1436983362275,46.7958653892202
277,1436983363028,40.1749061105022
278,1436983363768,23.6263022719712
279,1436983364527,35.0274035770093
280,1436983365256,38.5461684368039
281,1436983365971,42.494492627736
282,1436983366696,66.4129911155576
283,1436983367429,44.2913209193368
284,1436983368139,45.0771290778069
285,1436983368728,45.1629488318156
286,1436983369391,38.3023640197896
287,1436983370062,32.5096407025141
288,1436983370752,49.4028276993708
289,1436983371467,48.4470636971201
290,1436983372198,50.2696604948298
291,1436983372957,58.2888334691849
292,1436983373752,39.8826233968895
293,1436983374498,41.5129770750613
294,1436983375224,34.108920500728
295,1436983375948,36.5389463944718
296,1436983376648,34.8547399861502
297,1436983377281,37.3444294925753
298,1436983378009,44.9025357297555
299,1436983378749,46.1206918462541
300,1436983379374,43.8677220158275
301,1436983380066,45.4791561398844
302,1436983380835,52.9803990869872
303,1436983381561,43.5604216274235
304,1436983382324,35.7068872978634
305,1436983383073,35.5404619973916
306,1436983383799,54.0052232358767
307,1436983384531,46.2010696399239
308,1436983385269,27.3434280576159
309,1436983386007,32.4024184627341
310,1436983386730,38.3908737976257
311,1436983387365,37.9779400245263
312,1436983388048,37.8226836805876
313,1436983388777,36.1121802415017
314,1436983389502,29.2522408521436
315,1436983390306,44.4471714485845
316,1436983391017,33.0112880418647
317,1436983391741,7.23588751378935
318,1436983392481,56.8567207150514
319,1436983393228,38.0015668124972
320,1436983393993,34.448353423502
321,1436983394726,39.6760837166542
322,1436983395481,15.0053726555207
323,1436983396207,35.8615638565419
324,1436983396883,37.8513277355057
325,1436983397546,49.1052268486148
326,1436983398295,35.507697017277
327,1436983399019,35.5996387544857
328,1436983399621,53.819494336933
329,1436983400310,50.3139063558795
330,1436983400990,50.1403698690131
331,1436983401659,20.8383721527422
332,1436983402398,33.2981911710011
333,1436983403140,58.2725495933753
334,1436983403872,7.69906671622236
335,1436983404610,26.6448359312126
336,1436983405346,42.5971730953479
337,1436983406071,42.1000823135086
338,1436983406809,14.90678704119
339,1436983407519,35.5895240928225
340,1436983408257,31.5858611011648
341,1436983408982,6.78726009266839
342,1436983409726,53.9276114902851
343,1436983410449,46.1545690817656
344,1436983411098,52.9605423667416
345,1436983411776,35.4263846571453
346,1436983412506,61.4938033498412
347,1436983413230,18.3539517836278
348,1436983413965,59.8045965232931
349,1436983414696,55.2522115604342
350,1436983415433,45.8478263809925
351,1436983416178,44.0971496394206
352,1436983416928,40.8421334286918
353,1436983417626,40.2142398219558
354,1436983418397,40.4570934748595
355,1436983419134,56.3051629377476
356,1436983419864,33.4203776926127
357,1436983420674,30.8392683385773
358,1436983421382,38.879688249469
359,1436983421983,47.0400664858234
360,1436983422692,44.1952772106181
361,1436983423422,48.9080279980429
362,1436983424161,55.9803189531426
363,1436983424872,43.8034990136827
364,1436983425605,49.0751681193322
365,1436983426336,11.0305468405697
366,1436983427074,43.8114439873507
367,1436983427798,13.943053834401
368,1436983428428,7.23557280194171
369,1436983429102,7.39889468759369
370,1436983429821,6.53492059272204
371,1436983430608,44.8909121227944
372,1436983431383,37.8179859500859
373,1436983432129,15.8237987497281
374,1436983432862,7.03301045076654
375,1436983433585,52.6345115726981
376,1436983434321,37.398008091467
377,1436983435042,35.7000353642791
378,1436983435844,23.8606720519149
379,1436983436580,33.0773984159493
380,1436983437305,41.4675762737149
381,1436983438029,44.4089897460123
382,1436983438663,37.9859798816826
383,1436983439399,29.3933288184039
384,1436983440176,34.9167947832611
385,1436983440893,43.2847178046268
386,1436983441644,29.7010929472789
387,1436983442478,42.2294495193197
388,1436983443211,37.9413750621669
389,1436983443885,48.3869902808106
390,1436983444637,10.1193264386595
391,1436983445368,42.8250015098758
392,1436983446124,39.7440043252319
393,1436983446857,30.1560086292318
394,1436983447561,39.6109225455123
395,1436983448283,41.3801959453087
396,1436983448924,9.60921378799637
397,1436983449664,62.7987123363771
398,1436983450393,44.8742795450045
399,1436983451160,55.1382528561628
400,1436983451875,40.2567959592552
401,1436983452582,22.4834124666099
402,1436983453304,34.6325399939141
403,1436983454037,52.0022078605027
404,1436983454802,7.9656698399044
405,1436983455542,57.8591200964809
406,1436983456264,50.8964746137607
407,1436983456998,28.6186724725429
408,1436983457735,39.8308981523777
409,1436983458425,51.828951801285
410,1436983459097,11.5386891467845
411,1436983459802,39.6336396664738
412,1436983460392,46.5382144897235
413,1436983461060,47.1781327375918
414,1436983461708,52.1111481546317
415,1436983462449,52.3819457333414
416,1436983463193,37.1625251998106
417,1436983463934,64.3185613621423
418,1436983464658,52.6588103928183
419,1436983465443,60.1363986412544
420,1436983466182,40.6037442675151
421,1436983466916,48.0619384097611
422,1436983467636,35.0325497790875
423,1436983468344,40.5067029703107
424,1436983468978,38.9294962508932
425,1436983469662,28.7229573778766
426,1436983470459,40.6381292236047
427,1436983471199,20.3687538968781
428,1436983471942,42.2773876603783
429,1436983472692,39.8529239307343
430,1436983473426,47.7030238306275
431,1436983474213,26.606114824716
432,1436983474950,24.5485196354613
433,1436983475673,8.03330492084354
434,1436983476396,39.9072357241851
435,1436983477143,27.811541218068
436,1436983477878,41.716731106093
437,1436983478648,45.4294105561202
438,1436983479359,48.2612153488565
439,1436983480052,36.9993589427424
440,1436983480727,39.2120801840885
441,1436983481452,20.8807706657862
442,1436983482202,20.6216789953277
443,1436983482928,34.7706637381737
444,1436983483661,56.3983633046087
445,1436983484437,41.2714394931374
446,1436983485183,36.0718746856316
447,1436983485903,42.9225061108417
448,1436983486644,32.2732796698529
449,1436983487362,53.0353896308792
450,1436983488090,43.3177235088807
451,1436983488827,13.0234065669798
452,1436983489522,7.30549712492398
453,1436983490206,5.72848783460217
454,1436983490908,9.01472150381124
455,1436983491591,34.5638808336138
456,1436983492324,46.4929855474726
457,1436983493068,28.4234908629345
458,1436983493818,43.2043605207432
459,1436983494522,44.1554748717979
460,1436983495314,12.9600743489429
461,1436983496061,40.5267666411742
462,1436983496804,42.3127373788041
463,1436983497524,38.8601049771551
464,1436983498243,37.7757946482594
465,1436983498969,26.7658610981058
466,1436983499577,44.8261487969338
467,1436983500265,20.219595391271
468,1436983500990,40.8171682321736
469,1436983501711,50.051397702893
470,1436983502441,39.1566527908414
471,1436983503169,28.7060399051816
472,1436983503773,37.4347271101379
473,1436983504422,50.2781832204988
474,1436983505071,27.8774517420901
475,1436983506615,67.9720337832133
476,1436983507344,30.7411769641568
477,1436983508072,17.2539397535687
478,1436983508821,18.1580070267048
479,1436983509552,58.8555630939023
480,1436983510255,38.0960447155814
481,1436983510890,49.4531301646103
482,1436983511598,35.9497216403743
483,1436983512350,53.0898956817012
484,1436983513085,32.0792798513047
485,1436983513809,23.5365024145049
486,1436983514520,33.8274285277491
487,1436983515238,31.2812473675126
488,1436983515985,39.7702060308816
489,1436983516738,56.6395074427337
490,1436983517465,19.3438174185079
491,1436983518206,28.2528980967155
492,1436983518899,19.1555085202904
493,1436983520794,21.5773669485117
494,1436983521523,49.5044513724841
495,1436983522317,30.1722017723836
496,1436983523053,30.0749858301271
497,1436983523777,41.9102116256331
498,1436983524500,37.2424626651638
499,1436983525250,26.0379565832675
500,1436983525983,24.1279424877789
501,1436983526711,30.0556212117617
502,1436983527466,51.3206435928565
503,1436983528219,26.5973190034034
504,1436983528954,59.713652583689
505,1436983529688,43.2389827779569
506,1436983530451,34.8909573343777
507,1436983531136,52.1564272330647
508,1436983531852,19.3924598772211
509,1436983532599,16.1673539789954
510,1436983533337,58.4151300069221
511,1436983534052,39.9664126680677
512,1436983534665,15.4841377194419
513,1436983535389,44.7729240070338
514,1436983536133,56.2078373921599
515,1436983536868,34.8053689986362
516,1436983537616,49.4018740923739
517,1436983538352,15.8481451213334
518,1436983539080,18.1052997635207
519,1436983539913,19.0489648142918
520,1436983540700,42.1528415560817
521,1436983541366,47.0139265921072
522,1436983542053,56.1103247784083
523,1436983543798,48.8821136166829
524,1436983544522,16.8722555954098
525,1436983545260,49.0201721050781
526,1436983545978,44.4075199889587
527,1436983546714,21.6773681909785
528,1436983547436,51.2816300830496
529,1436983548181,24.5289111983345
530,1436983548916,20.3282645739987
531,1436983549684,46.7643412691234
532,1436983550384,57.2836695052807
533,1436983551026,57.829731904994
534,1436983551705,55.2766918657423
535,1436983552433,55.0754059951789
536,1436983553191,43.9060618682122
537,1436983553904,46.9899726079733
538,1436983554528,38.9575474937833
539,1436983555180,37.8316054719743
540,1436983556606,44.0129795071137
541,1436983557281,41.1037805508534
542,1436983558002,62.3732538984189
543,1436983558737,47.5938165169528
544,1436983559471,63.5007164587421
545,1436983560251,27.4566416255488
546,1436983560889,48.4939677043002
547,1436983561576,61.6517688142774
548,1436983562321,22.1117519051306
549,1436983563062,15.3918827902124
550,1436983563774,27.774665075385
551,1436983564520,22.0478878311089
552,1436983565204,24.692850249694
553,1436983565915,38.6596283968805
554,1436983566640,57.7730151336985
555,1436983567381,57.5735367182828
556,1436983568125,57.9669004966634
557,1436983568867,27.224574706232
558,1436983569588,15.906859548618
559,1436983570320,45.8118926673166
560,1436983571050,31.8573660004838
561,1436983571696,40.1459377875845
562,1436983572448,34.3602391265675
563,1436983573174,45.6640909670927
564,1436983573913,50.2294797330407
565,1436983574652,45.1277344770462
566,1436983575409,54.5386739640796
567,1436983576339,12.7306927945475
568,1436983577002,10.4409692943176
569,1436983577763,32.411444174076
570,1436983578512,17.2251417950845
571,1436983579249,19.451264025652
572,1436983579987,7.50139096903752
573,1436983580651,8.34365416407922
574,1436983581292,8.05769632817415
575,1436983582004,10.6364717648176
