id,attr_time,attr_db
1,1436983160070,20.114912349033
2,1436983160727,22.2925929859742
3,1436983161407,53.5459128318026
4,1436983162143,22.2996578568313
5,1436983162811,48.5636685720386
6,1436983163545,37.8470925865189
7,1436983164307,15.663203552431
8,1436983165069,49.8185395850411
9,1436983165865,54.4019698910274
10,1436983166565,16.1085955213892
11,1436983167280,13.5160863409889
12,1436983168060,56.6418770763051
13,1436983168781,33.2110992115112
14,1436983169462,15.6613671096912
15,1436983170155,13.6950741198314
16,1436983170866,51.476392155536
17,1436983171559,60.9801774527511
18,1436983172296,13.608205057169
19,1436983173035,59.8145171493672
20,1436983173765,66.4314400387823
21,1436983174504,57.8916911768806
22,1436983175254,52.9723423270168
23,1436983175934,43.9677707300331
24,1436983176645,39.3898787557414
25,1436983177381,33.6057261853315
26,1436983178109,36.254643990577
27,1436983178923,50.0109050060562
28,1436983179655,38.8654862418882
29,1436983180402,44.2920118585505
30,1436983181102,45.5153361404707
31,1436983181854,39.3395121660973
32,1436983182583,50.1498321813061
33,1436983183304,57.2377890164135
34,1436983184141,37.8639281522818
35,1436983184881,44.5910520729813
36,1436983185597,11.073399464542
37,1436983186265,51.0348223389333
38,1436983187024,24.0797687519719
39,1436983187735,42.8052299279812
40,1436983188472,57.5122654552126
41,1436983189183,31.6980521235536
42,1436983189922,47.5561979898472
43,1436983190637,16.9493940466986
44,1436983191368,25.126209093936
45,1436983192009,9.38341980229843
46,1436983192734,8.14906452598055
47,1436983193509,7.69024855339586
48,1436983194248,14.0592735411739
49,1436983195012,8.16627030208178
50,1436983195741,8.50668619540641
51,1436983196474,8.80576329240234
52,1436983197229,49.8898125768041
53,1436983197943,49.0472689903789
54,1436983198684,14.7924626133094
55,1436983199413,49.4347914488235
56,1436983200143,17.0791487373694
57,1436983200923,41.7717934375567
58,1436983201515,40.6300067547327
59,1436983202218,49.5648586494862
60,1436983202968,53.7899764766884
61,1436983203692,30.2600404853523
62,1436983204440,12.22380202485
63,1436983205185,44.6366393600344
64,1436983205849,51.1957187319219
65,1436983206483,49.8711658202525
66,1436983207155,41.5808024143762
67,1436983207905,29.4968664564004
68,1436983208655,12.7259565795655
69,1436983209340,26.7914782817289
70,1436983210064,37.489126999194
71,1436983210805,51.4763501961272
72,1436983211558,36.7824340922687
73,1436983212288,37.034935584833
74,1436983212977,48.9900921137676
75,1436983213747,46.6509792155339
76,1436983214459,51.855561127353
77,1436983215196,47.7250708461845
78,1436983216026,14.3852763504186
79,1436983216756,40.1101318311658
80,1436983217487,50.1575239661742
81,1436983218238,32.8132925380141
82,1436983218994,39.1275992635841
83,1436983219713,53.4432374630164
84,1436983220438,27.5951510851199
85,1436983221182,48.9745584662332
86,1436983221914,15.0892087598965
87,1436983222647,46.8540774633745
88,1436983223439,42.3992591475428
89,1436983224146,66.156224206229
90,1436983224805,61.0944809788557
91,1436983225499,46.7515889425138
92,1436983226203,18.5682946726534
93,1436983226881,28.6785737257199
94,1436983227510,18.4377011920995
95,1436983228196,28.4586877079205
96,1436983228926,27.4985319647204
97,1436983230922,21.8920827629399
98,1436983231665,10.6654960033109
99,1436983232397,11.4625656967406
100,1436983233122,13.2827960789304
101,1436983233899,34.5449960710367
102,1436983234630,40.9441881698867
103,1436983235402,8.31915234349309
104,1436983236126,5.74889585142548
105,1436983236819,14.148322329713
106,1436983237544,34.9151711672258
107,1436983238240,33.4933733831446
108,1436983239022,32.4251839372586
109,1436983239743,47.7140435251366
110,1436983241775,47.2364840648606
111,1436983242484,37.7023085053842
112,1436983243198,33.4336852547504
113,1436983243970,29.0345200110933
114,1436983244708,11.2053946518845
115,1436983245442,51.5730304347555
116,1436983246213,46.3600662283691
117,1436983246829,38.1257730045994
118,1436983247518,26.5120185147068
119,1436983248232,30.1267663962273
120,1436983248977,15.4839937557127
121,1436983249705,46.3393473624468
122,1436983250426,56.6703293213938
123,1436983251171,46.3692800927111
124,1436983251919,41.1915580248771
125,1436983252646,32.9592536755894
126,1436983253379,40.1011589841446
127,1436983254142,44.5667447676767
128,1436983254775,38.1089759333397
129,1436983256279,36.1296085232369
130,1436983257012,68.5829090870068
131,1436983257737,58.2639134593602
132,1436983258454,24.5891614943629
133,1436983259172,47.5824422784842
134,1436983259896,47.8403134599598
135,1436983260613,35.3607205015333
136,1436983261372,42.2770086379934
137,1436983262115,47.5038240300761
138,1436983262845,20.4875270574213
139,1436983263577,14.2867948240836
140,1436983264294,32.9330866097877
141,1436983265981,44.6550728532517
142,1436983266644,20.4984660059943
143,1436983267383,50.4547392096363
144,1436983268153,49.9180700659057
145,1436983268749,25.8889136912668
146,1436983269416,16.1064151981604
147,1436983270166,47.5172939503176
148,1436983270927,15.2530900538693
149,1436983271668,16.5648955877101
150,1436983272411,31.2507600373594
151,1436983273143,44.8398709791411
152,1436983273884,22.0739396613038
153,1436983274647,50.0085442752826
154,1436983275403,36.8967096069762
155,1436983276169,22.4407896943739
156,1436983276848,15.4875045029531
157,1436983277703,19.5346503037967
158,1436983278355,16.541495548373
159,1436983279075,25.9955437251518
160,1436983279854,26.8080998218365
161,1436983280573,19.172979322974
162,1436983281291,17.1419037592501
163,1436983282052,16.2470043988295
164,1436983282859,50.0944669232643
165,1436983283603,29.2549439657601
166,1436983284306,27.6821386044977
167,1436983285032,24.123577866923
168,1436983285777,22.7933899211975
169,1436983286505,37.0419718898807
170,1436983287218,22.3158595133724
171,1436983287939,24.1317645150908
172,1436983288620,15.1638327428162
173,1436983289275,18.2486589968754
174,1436983290007,15.3860763864065
175,1436983290792,22.3788131865644
176,1436983291526,29.3533624066575
177,1436983292309,58.3091625165599
178,1436983293031,38.6210829293875
179,1436983293863,50.9915737762172
180,1436983294575,53.6568590353657
181,1436983295305,42.1410233602692
182,1436983296053,42.4456970569554
183,1436983296793,20.8635148476961
184,1436983297530,39.7180109182967
185,1436983298297,59.9436456139959
186,1436983299067,63.6473539484819
187,1436983299775,27.6610055768866
188,1436983300484,52.0828903740979
189,1436983301197,60.6535427989711
190,1436983301894,61.1903898236288
191,1436983302456,17.9169219169328
192,1436983303154,65.8297977032924
193,1436983303963,37.0439209984449
194,1436983304676,54.4887254511754
195,1436983305405,34.2014585725485
196,1436983306155,48.1817548447749
197,1436983306859,36.4708149362396
198,1436983307547,59.6961196636779
199,1436983308305,38.5997627029357
200,1436983309058,53.8444451347315
201,1436983309708,57.4567061808463
202,1436983310365,63.2962390358168
203,1436983311027,44.2278247948906
204,1436983311712,47.1532771339331
205,1436983312452,40.3095250407459
206,1436983313133,51.7300313314101
207,1436983313805,46.9096411626546
208,1436983314534,40.1128789090786
209,1436983315266,51.9989736596354
210,1436983315997,41.3705308824265
211,1436983316644,54.4779102003099
212,1436983317295,51.5569035790949
213,1436983317930,47.4594355838211
214,1436983318621,44.387761481631
215,1436983319360,59.8308757186948
216,1436983320132,54.0526859412371
217,1436983320853,58.2036596493612
218,1436983321560,52.4416871289493
219,1436983322291,38.9887642822613
220,1436983323027,13.794315505416
221,1436983323747,67.6178539151752
222,1436983324426,53.2506108441424
223,1436983325160,40.4732305463357
224,1436983325783,50.055733758031
225,1436983326519,41.3882864751832
226,1436983327262,12.6983778761715
227,1436983327992,43.7911237771851
228,1436983328753,53.9618411507059
229,1436983329483,59.1273948812959
230,1436983330082,40.0351198602384
231,1436983330762,15.8708562953755
232,1436983331509,47.6272505099842
233,1436983332252,52.1440750475517
234,1436983332983,14.9372391965065
235,1436983333772,40.09449777025
236,1436983334502,47.4767418176158
237,1436983335227,44.9137214279678
238,1436983335953,19.6966482165103
239,1436983336608,48.3007075361652
240,1436983337331,29.2125602418823
241,1436983338084,58.4063537145572
242,1436983338899,65.4393077424723
243,1436983339635,58.3530734572947
244,1436983340368,43.7730794313002
245,1436983341116,22.4207306306226
246,1436983341867,29.9608015949384
247,1436983342592,9.96197276682008
248,1436983343317,41.8832760491068
249,1436983344072,40.2397567385924
250,1436983344932,34.9467768302175
251,1436983345675,60.5900175653623
252,1436983346418,31.2059080183571
253,1436983347156,41.5683273283275
254,1436983347794,34.2874860102865
255,1436983348494,45.5193469045048
256,1436983349237,48.8347250729168
257,1436983350031,28.8858993374693
258,1436983350787,53.4103280546745
259,1436983351507,70.1992326126521
260,1436983352218,45.5820311271224
261,1436983352875,47.9216941754372
262,1436983353642,56.0631010481001
263,1436983354415,60.4190672667291
264,1436983355153,61.899762416204
265,1436983355885,45.5193946118607
266,1436983356605,63.6677934656964
267,1436983357344,59.860229327105
268,1436983358053,34.7388652129538
269,1436983358720,53.5903846485338
270,1436983359564,60.0730182009005
271,1436983360286,24.2595530342194
272,1436983361048,57.0631564379047
273,1436983361772,50.4265758698354
274,1436983362495,43.4317676162961
275,1436983363241,73.6204312915625
276,1436983364051,54.6988930140704
277,1436983364771,19.0655532168416
278,1436983365516,56.4214663378888
279,1436983366256,64.3317838344093
280,1436983366987,57.1364660649386
281,1436983367717,49.050645708896
282,1436983368401,60.0069339618479
283,1436983369061,56.2282266624317
284,1436983369798,55.6861660926756
285,1436983370477,48.9028145266049
286,1436983371162,42.8007319129956
287,1436983371888,46.749600661514
288,1436983372597,57.6269589386592
289,1436983373326,57.9509084897797
290,1436983374103,43.0642834242722
291,1436983374824,45.6214828313996
292,1436983375560,58.4699776521647
293,1436983376266,61.3871864960531
294,1436983377001,34.3371951799407
295,1436983377715,18.0261784519902
296,1436983378455,25.7473972343793
297,1436983379176,43.328005277951
298,1436983379872,58.3037065423733
299,1436983380484,56.9931316199921
300,1436983381202,64.6509906972934
301,1436983381945,46.1839666230147
302,1436983382658,49.0797809906771
303,1436983383392,58.8657686151552
304,1436983384170,44.99512804342
305,1436983384871,42.6197050552568
306,1436983385546,43.7264406142589
307,1436983386269,35.941157619333
308,1436983386989,44.104386031275
309,1436983387719,43.7868147437454
310,1436983388442,9.65832874579908
311,1436983389162,43.4011267946976
312,1436983389914,44.6808742786215
313,1436983390665,24.4816468511045
314,1436983391340,49.0482482016592
315,1436983392069,45.6937780813817
316,1436983392807,34.5017336239194
317,1436983393535,42.1192916944734
318,1436983394276,30.4240979179995
319,1436983395038,48.3419974857364
320,1436983395777,42.1801430668048
321,1436983396512,54.2858682315386
322,1436983397241,45.689932720999
323,1436983397982,38.9808384980576
324,1436983398685,40.4360842908791
325,1436983399389,47.6045068006569
326,1436983400133,45.1498101643514
327,1436983400814,8.73579464528791
328,1436983401489,26.6038963616354
329,1436983402164,37.9768935587065
330,1436983402875,48.6588715910452
331,1436983403601,15.1866240887024
332,1436983404353,34.1142357952556
333,1436983405177,63.0785627477503
334,1436983405940,11.9377709502294
335,1436983406652,21.5311048907005
336,1436983407389,49.7625657631004
337,1436983408192,54.5493425536293
338,1436983408865,61.1586135204579
339,1436983409590,39.3984884691007
340,1436983410316,11.2288130797617
341,1436983410986,36.49750389913
342,1436983411696,44.7443502117079
343,1436983412436,43.7644855917316
344,1436983413165,48.3442872461207
345,1436983413966,27.3281110002449
346,1436983414693,31.5601922802034
347,1436983415421,21.6675327025257
348,1436983416158,52.8608260627312
349,1436983416887,16.1503576935068
350,1436983417604,51.4730058090567
351,1436983418328,40.6450779880018
352,1436983419086,41.7827376022353
353,1436983419829,47.9355215055227
354,1436983420566,9.07017435664775
355,1436983421292,34.1242433000854
356,1436983422075,42.6961333595955
357,1436983422815,41.4866992431282
358,1436983423545,50.4555640650722
359,1436983424277,38.8005334199378
360,1436983425123,14.0313450794228
361,1436983425837,11.40626108227
362,1436983426578,11.5805673247565
363,1436983427299,45.2014680990736
364,1436983428059,12.6773468619763
365,1436983428794,45.5733108750125
366,1436983429510,19.0509025227959
367,1436983430227,60.8627430631196
368,1436983430812,54.4120804067514
369,1436983431499,42.1181656809457
370,1436983432244,39.1076400872362
371,1436983433015,39.950866200874
372,1436983433661,60.3604664233338
373,1436983435255,40.3976421552431
374,1436983435949,34.5298941128823
375,1436983436535,65.9403717380987
376,1436983437214,59.6423024544808
377,1436983437948,32.1790731800932
378,1436983438684,36.4093985703567
379,1436983439491,23.5520607920347
380,1436983440230,57.3110125525201
381,1436983440947,16.9350675667535
382,1436983441637,68.3408479803238
383,1436983442365,60.9247836159877
384,1436983443126,33.8789739684134
385,1436983443843,43.982770464554
386,1436983444624,56.2758618965424
387,1436983445369,50.2107408708354
388,1436983446128,16.1978976678604
389,1436983446868,41.9833438507375
390,1436983447588,51.2051727744791
391,1436983448288,45.7661211241686
392,1436983449948,57.7323305137021
393,1436983450555,69.4965350498835
394,1436983451225,51.1790308854158
395,1436983451921,64.2075394242502
396,1436983452516,69.7758475048424
397,1436983453213,56.2583321233806
398,1436983453923,8.19044716973342
399,1436983454642,44.3560962161885
400,1436983455402,40.8477505482945
401,1436983456199,38.0498347024775
402,1436983456915,67.018758637296
403,1436983457642,60.4041458221819
404,1436983458389,51.2002760060897
405,1436983459122,53.9811407100883
406,1436983459902,44.5015354082794
407,1436983460648,63.7365476342773
408,1436983461345,47.620372109744
409,1436983462060,52.5262279444947
410,1436983462769,27.1069623659105
411,1436983463445,47.1316336125389
412,1436983464176,45.1242205247837
413,1436983464943,57.8116373182056
414,1436983465701,48.4910740817715
415,1436983466434,32.4407540745072
416,1436983467168,43.0290689634389
417,1436983467897,9.29674591493368
418,1436983468645,61.1773545042633
419,1436983469375,50.8895379042623
420,1436983470145,49.5254946378653
421,1436983470835,32.3722204986159
422,1436983472373,6.3749239184852
423,1436983473050,44.0006037807646
424,1436983473775,42.1979409911674
425,1436983474561,47.2775562277887
426,1436983475361,62.8918508548362
427,1436983476111,59.1103651523767
428,1436983476839,43.5780370876839
429,1436983477583,42.1666772656747
430,1436983478277,36.8270301114983
431,1436983478966,38.1954975465641
432,1436983479792,42.1838105151186
433,1436983480533,58.9849098655383
434,1436983481285,19.4692452439064
435,1436983482020,33.4660849239222
436,1436983482715,40.5941653579836
437,1436983483452,38.4329657018126
438,1436983484162,53.4793860659523
439,1436983484872,37.4091657455759
440,1436983486293,10.2408998244238
441,1436983487010,10.4662235796368
442,1436983487687,10.8568337012398
443,1436983488417,36.047542816504
444,1436983489134,56.9279517306555
445,1436983489858,43.2473370885852
446,1436983490586,51.3664748057467
447,1436983491257,56.7386746131549
448,1436983492000,11.8052734958426
449,1436983492731,60.1115492648193
450,1436983493460,50.0833977350443
451,1436983494195,44.6807798726653
452,1436983494979,44.9992837314474
453,1436983495700,35.8386276905198
454,1436983496432,48.2231967337785
455,1436983497164,27.1014789861515
456,1436983497895,46.8815785311305
457,1436983498632,57.6998995715882
458,1436983499346,43.3411784385633
459,1436983500152,47.5943788168744
460,1436983500908,53.9857220660422
461,1436983501630,52.2497157935488
462,1436983502374,37.8257080840855
463,1436983503121,43.5453363369714
464,1436983503846,31.0940935269317
465,1436983504586,17.7801178849181
466,1436983505352,40.0440018461137
467,1436983506045,38.1749573568988
468,1436983506794,41.6785245464802
469,1436983507527,40.733510769685
470,1436983508259,41.4240668986869
471,1436983508952,41.6991055913531
472,1436983509620,42.006302893583
473,1436983510354,47.4208792910026
474,1436983511059,44.0968063500969
475,1436983511683,49.6231297927953
476,1436983512382,30.8257178104518
477,1436983513148,34.7181102583639
478,1436983513879,21.881428258911
479,1436983514598,44.1157251222341
480,1436983515357,29.1988804758658
481,1436983516135,44.7139796988631
482,1436983516874,39.7910936066366
483,1436983517597,20.5484753570584
484,1436983518348,57.6327360729201
485,1436983519096,27.1715726848444
486,1436983519836,40.7899315880079
487,1436983520591,48.3911499771409
488,1436983521365,64.0748527105156
489,1436983522117,19.7876782848506
490,1436983522851,25.5554041645288
491,1436983523554,42.0737642539719
492,1436983524192,59.0171708513272
493,1436983524963,61.6334294842703
494,1436983525720,55.8919746610582
495,1436983526486,45.2768718338997
496,1436983527141,34.2492152194952
497,1436983527872,54.6776561205522
498,1436983528616,21.7100754525935
499,1436983529352,15.0811784842844
500,1436983530071,39.8697648461853
501,1436983530891,46.7400352299659
502,1436983531579,32.8084064139002
503,1436983532219,41.9242535869974
504,1436983532947,41.1295172064359
505,1436983533677,32.0773408151413
506,1436983534414,48.1608001099665
507,1436983535126,13.3722412550895
508,1436983535764,21.5446566069352
509,1436983536471,55.5920146984444
510,1436983537202,43.7755815868119
511,1436983537976,46.8958820589794
512,1436983538693,33.3369268639431
513,1436983539434,69.4977914750497
514,1436983540178,68.4426569695399
515,1436983540885,48.0845551182551
516,1436983541567,61.9255279433916
517,1436983542298,14.5188725852404
518,1436983543030,12.2612571897906
519,1436983543756,34.525361171027
520,1436983544490,35.5609492821255
521,1436983545222,43.956252071782
522,1436983545867,33.466031386504
523,1436983546596,50.0377464367624
524,1436983547321,47.9849407924928
525,1436983548091,56.7131915547149
526,1436983548829,50.8926255564889
527,1436983549566,46.3922721548392
528,1436983550298,23.6132322071467
529,1436983551060,52.6457480989541
530,1436983551782,47.2215144327424
531,1436983552520,56.0815106676868
532,1436983553240,45.0166766904309
533,1436983553951,45.4971014777724
534,1436983554650,64.9716461294005
535,1436983555359,72.8015577803074
536,1436983556035,33.0347715119857
537,1436983556772,60.9554925105699
538,1436983557492,59.0048614092105
539,1436983558232,66.2174137182717
540,1436983558961,39.9982566250486
541,1436983559668,42.0304383750273
542,1436983560276,39.1267408388307
543,1436983560988,10.1772977545807
544,1436983561726,41.6919726824082
545,1436983562456,8.4169431844088
546,1436983563189,49.8901606747655
547,1436983563930,10.3393253102787
548,1436983564709,38.4960256169175
549,1436983565490,44.4172102441283
550,1436983566197,42.8232106519111
551,1436983566923,52.201685163046
552,1436983567672,41.377508685383
553,1436983568410,46.3947880767009
554,1436983569157,38.0007926602795
555,1436983569898,49.50825604657
556,1436983570623,43.0581114170835
557,1436983571268,45.048762159065
558,1436983571894,46.7592492100695
559,1436983572579,60.1468136669225
560,1436983573301,12.8134203410211
561,1436983574046,44.8879453682972
562,1436983574840,34.6688903034768
563,1436983575567,39.7105936770292
564,1436983576294,30.4481754295533
565,1436983577052,18.1526104337291
566,1436983577764,11.7723263419922
567,1436983578483,10.2864316051632
568,1436983579069,11.5749418885008
569,1436983579807,17.9707799626874
570,1436983580565,14.3536608100057
571,1436983581321,44.4447880671717
572,1436983582069,12.0677208668946
573,1436983582780,10.8427287353684
574,1436983583524,38.035440515857
575,1436983584248,7.99706500767772
