id,attr_time,attr_x,attr_y,attr_z
1,1438343226026,-45.184,-19.807,-18.064
2,1438343226043,-45.184,-19.807,-18.064
3,1438343226064,-45.184,-19.807,-18.064
4,1438343226084,-45.184,-19.807,-18.064
5,1438343226106,-45.184,-19.807,-18.064
6,1438343226126,-45.184,-19.807,-18.064
7,1438343226146,-45.184,-19.807,-18.064
8,1438343226165,-45.184,-19.807,-18.064
9,1438343226186,-45.184,-19.807,-18.064
10,1438343226206,-45.184,-19.807,-18.064
11,1438343226226,-45.184,-19.807,-18.064
12,1438343226246,-45.184,-19.807,-18.064
13,1438343226265,-45.184,-19.807,-18.064
14,1438343226284,-45.184,-19.807,-18.064
15,1438343226306,-45.184,-19.807,-18.064
16,1438343226323,-45.184,-19.807,-18.064
17,1438343226343,-45.184,-19.807,-18.064
18,1438343226363,-45.184,-19.807,-18.064
19,1438343226388,-45.184,-19.807,-18.064
20,1438343226409,-44.876,-19.807,-18.064
21,1438343226433,-44.876,-19.807,-18.064
22,1438343226445,-44.876,-19.807,-18.064
23,1438343226464,-44.876,-19.807,-18.064
24,1438343226491,-44.876,-19.807,-18.064
25,1438343226505,-44.876,-19.807,-18.064
26,1438343226526,-44.876,-19.807,-17.764
27,1438343226591,-44.876,-19.807,-17.764
28,1438343226592,-44.876,-19.807,-17.764
29,1438343226594,-44.876,-19.807,-17.764
30,1438343226610,-44.876,-19.807,-17.764
31,1438343226624,-44.876,-19.807,-17.764
32,1438343226647,-44.876,-19.807,-17.764
33,1438343226663,-44.876,-19.807,-17.764
34,1438343226684,-44.876,-19.807,-17.764
35,1438343226705,-44.876,-19.807,-17.764
36,1438343226725,-44.876,-19.807,-17.764
37,1438343226744,-44.876,-19.807,-17.764
38,1438343226763,-44.876,-19.807,-17.764
39,1438343226786,-44.876,-19.807,-17.764
40,1438343226805,-44.876,-19.807,-17.764
41,1438343226827,-44.876,-19.807,-17.764
42,1438343226846,-44.876,-19.807,-17.764
43,1438343226866,-44.876,-19.807,-17.764
44,1438343226885,-44.876,-19.807,-17.764
45,1438343226906,-44.876,-19.807,-17.764
46,1438343226927,-44.876,-19.807,-17.764
47,1438343226946,-44.876,-19.807,-17.764
48,1438343226966,-44.876,-19.807,-17.764
49,1438343226985,-44.876,-19.807,-17.764
50,1438343227005,-44.876,-19.807,-17.764
51,1438343227027,-44.876,-19.807,-17.764
52,1438343227044,-44.876,-19.807,-17.764
53,1438343227064,-44.876,-19.807,-17.764
54,1438343227085,-44.876,-19.807,-17.764
55,1438343227108,-44.876,-19.807,-17.764
56,1438343227142,-44.876,-19.807,-17.764
57,1438343227151,-45.187,-19.807,-17.764
58,1438343227164,-45.187,-19.807,-17.463
59,1438343227184,-45.187,-19.807,-17.463
60,1438343227204,-45.187,-19.807,-17.463
61,1438343227224,-45.187,-19.807,-17.463
62,1438343227245,-45.187,-19.807,-17.463
63,1438343227264,-45.187,-19.807,-17.463
64,1438343227322,-45.187,-19.807,-17.463
65,1438343227324,-45.187,-19.807,-17.463
66,1438343227325,-45.187,-19.807,-17.463
67,1438343227345,-45.187,-19.807,-17.463
68,1438343227364,-45.187,-19.807,-17.463
69,1438343227385,-45.187,-19.807,-17.463
70,1438343227404,-45.187,-19.807,-17.463
71,1438343227425,-45.187,-19.807,-17.463
72,1438343227444,-45.187,-19.807,-17.463
73,1438343227465,-45.187,-19.807,-17.463
74,1438343227489,-45.187,-19.807,-17.463
75,1438343227508,-45.187,-19.807,-17.463
76,1438343227526,-45.187,-19.807,-17.463
77,1438343227544,-45.187,-19.807,-17.463
78,1438343227566,-45.187,-19.807,-17.463
79,1438343227587,-45.187,-19.807,-17.463
80,1438343227606,-45.187,-19.807,-17.463
81,1438343227628,-45.187,-19.807,-17.463
82,1438343227648,-45.187,-19.807,-17.776
83,1438343227668,-45.187,-19.807,-17.776
84,1438343227686,-45.187,-19.807,-17.776
85,1438343227706,-45.187,-19.807,-17.776
86,1438343227725,-45.187,-19.807,-17.776
87,1438343227746,-45.187,-19.807,-17.776
88,1438343227768,-45.187,-19.807,-18.101
89,1438343227788,-45.187,-19.807,-18.101
90,1438343227806,-45.187,-19.465,-18.101
91,1438343227828,-45.187,-19.465,-18.101
92,1438343227845,-45.187,-19.465,-18.101
93,1438343227865,-45.187,-19.465,-18.101
94,1438343227885,-45.187,-19.465,-18.101
95,1438343227906,-45.187,-19.465,-18.101
96,1438343227928,-45.187,-19.465,-18.101
97,1438343227946,-45.187,-19.465,-18.415
98,1438343227966,-45.187,-19.465,-18.415
99,1438343227988,-45.187,-19.465,-18.415
100,1438343228017,-45.187,-19.465,-18.415
101,1438343228024,-45.187,-19.465,-18.415
102,1438343228045,-45.187,-19.465,-18.415
103,1438343228066,-45.187,-19.465,-18.415
104,1438343228087,-45.187,-19.465,-18.415
105,1438343228105,-45.187,-19.465,-18.415
106,1438343228126,-45.187,-19.465,-18.415
107,1438343228147,-45.187,-19.465,-18.115
108,1438343228168,-45.187,-19.465,-18.115
109,1438343228186,-45.187,-19.81,-18.115
110,1438343228207,-45.187,-19.81,-18.115
111,1438343228226,-45.187,-19.81,-17.788
112,1438343228246,-45.187,-19.81,-17.788
113,1438343228268,-45.187,-19.81,-17.788
114,1438343228286,-45.187,-19.81,-17.788
115,1438343228308,-45.187,-19.81,-17.788
116,1438343228325,-45.187,-20.147,-17.788
117,1438343228346,-44.88,-20.147,-17.788
118,1438343228368,-44.88,-20.147,-17.469
119,1438343228386,-44.88,-20.147,-17.469
120,1438343228406,-44.88,-20.147,-17.469
121,1438343228429,-44.88,-20.147,-17.469
122,1438343228446,-44.88,-20.147,-17.469
123,1438343228468,-44.88,-20.147,-17.469
124,1438343228487,-44.88,-20.147,-17.469
125,1438343228508,-44.88,-20.147,-17.469
126,1438343228528,-44.88,-20.147,-17.469
127,1438343228552,-44.88,-20.147,-17.469
128,1438343228575,-44.88,-20.147,-17.469
129,1438343228587,-44.88,-20.147,-17.469
130,1438343228629,-44.88,-20.147,-17.469
131,1438343228630,-44.88,-20.147,-17.469
132,1438343228645,-44.88,-20.147,-17.797
133,1438343228665,-44.88,-20.147,-17.797
134,1438343228696,-44.88,-20.147,-17.797
135,1438343228719,-44.88,-20.147,-17.797
136,1438343228727,-44.88,-20.147,-17.797
137,1438343228749,-44.88,-19.819,-17.797
138,1438343228765,-44.88,-19.819,-17.797
139,1438343228785,-44.88,-19.819,-17.797
140,1438343228805,-44.88,-19.819,-17.797
141,1438343229005,-44.88,-19.819,-17.797
142,1438343229006,-44.88,-19.819,-17.797
143,1438343229007,-44.88,-19.819,-17.797
144,1438343229008,-44.88,-19.819,-17.797
145,1438343229009,-44.88,-19.819,-17.797
146,1438343229010,-44.88,-19.819,-17.797
147,1438343229011,-44.88,-19.819,-17.797
148,1438343229012,-44.88,-19.819,-17.797
149,1438343229013,-44.88,-19.819,-17.797
150,1438343229014,-44.88,-19.819,-17.797
151,1438343229131,-44.88,-19.819,-17.797
152,1438343229132,-44.88,-19.819,-17.797
153,1438343229133,-44.88,-19.819,-17.797
154,1438343229134,-44.88,-19.819,-17.797
155,1438343229135,-44.88,-19.819,-17.797
156,1438343229136,-44.88,-19.819,-17.797
157,1438343229145,-44.88,-19.819,-17.797
158,1438343229164,-44.88,-19.819,-17.797
159,1438343229185,-44.88,-19.819,-17.797
160,1438343229205,-44.88,-19.819,-17.797
161,1438343229225,-44.88,-19.819,-17.797
162,1438343229245,-44.88,-19.819,-17.797
163,1438343229265,-44.88,-19.819,-17.797
164,1438343229286,-44.88,-19.819,-17.797
165,1438343229306,-44.88,-19.819,-17.797
166,1438343229327,-44.88,-19.819,-17.797
167,1438343229346,-44.88,-19.819,-17.797
168,1438343229367,-44.88,-19.819,-17.797
169,1438343229389,-44.88,-19.819,-17.797
170,1438343229405,-44.88,-19.819,-17.797
171,1438343229425,-45.182,-19.819,-17.797
172,1438343229445,-45.182,-19.819,-17.797
173,1438343229466,-45.182,-19.819,-17.797
174,1438343229485,-45.182,-19.819,-17.797
175,1438343229506,-45.182,-19.819,-17.797
176,1438343229530,-45.182,-19.819,-17.797
177,1438343229546,-45.182,-19.819,-17.797
178,1438343229567,-45.182,-19.819,-17.797
179,1438343229585,-45.182,-19.819,-17.797
180,1438343229610,-45.182,-19.819,-17.797
181,1438343229627,-45.182,-19.819,-17.797
182,1438343229651,-45.182,-19.819,-17.797
183,1438343229667,-45.182,-19.819,-17.797
184,1438343229687,-45.182,-19.819,-17.797
185,1438343229710,-45.182,-19.819,-17.797
186,1438343229727,-45.182,-19.819,-17.797
187,1438343229748,-45.182,-19.819,-17.797
188,1438343229767,-45.182,-19.819,-17.797
189,1438343229790,-45.182,-19.819,-17.797
190,1438343229811,-45.182,-19.819,-17.797
191,1438343229828,-45.182,-19.819,-17.797
192,1438343229849,-45.182,-19.819,-17.797
193,1438343229867,-45.182,-19.819,-17.797
194,1438343229888,-45.182,-19.819,-17.797
195,1438343229910,-45.182,-19.819,-17.797
196,1438343229930,-45.182,-19.819,-17.797
197,1438343229950,-45.182,-19.819,-17.797
198,1438343229968,-45.182,-19.819,-17.797
199,1438343229987,-45.182,-19.819,-17.797
200,1438343230026,-45.182,-19.819,-17.797
201,1438343230027,-45.182,-19.499,-17.797
202,1438343230046,-45.182,-19.499,-17.797
203,1438343230066,-45.182,-19.499,-17.797
204,1438343230086,-45.182,-19.499,-17.797
205,1438343230106,-45.182,-19.499,-17.466
206,1438343230128,-45.539,-19.499,-17.466
207,1438343230149,-45.539,-19.499,-17.466
208,1438343230168,-45.539,-19.499,-17.027
209,1438343230187,-45.539,-19.499,-16.438
210,1438343230210,-45.539,-19.499,-15.313
211,1438343230230,-45.539,-19.499,-14.505
212,1438343230250,-45.861,-19.499,-13.41
213,1438343230270,-45.861,-19.499,-12.719
214,1438343230288,-45.861,-19.499,-12.394
215,1438343230309,-45.861,-19.499,-11.521
216,1438343230330,-45.861,-19.499,-11.521
217,1438343230351,-45.861,-19.499,-10.473
218,1438343230367,-46.224,-19.499,-10.057
219,1438343230404,-46.224,-19.499,-10.4
220,1438343230407,-46.224,-19.499,-10.038
221,1438343230427,-46.224,-19.499,-10.038
222,1438343230450,-46.224,-19.499,-10.038
223,1438343230469,-46.224,-19.499,-10.038
224,1438343230488,-46.224,-19.499,-10.038
225,1438343230507,-46.224,-19.815,-10.038
226,1438343230529,-46.224,-19.815,-10.038
227,1438343230551,-46.224,-19.815,-10.038
228,1438343230572,-46.224,-19.815,-10.429
229,1438343230591,-46.224,-19.815,-10.429
230,1438343230609,-46.224,-19.815,-10.429
231,1438343230629,-46.224,-19.815,-10.058
232,1438343230648,-46.224,-19.815,-10.058
233,1438343230667,-46.224,-19.815,-10.058
234,1438343230691,-45.285,-19.815,-10.058
235,1438343230712,-44.647,-19.815,-10.058
236,1438343230762,-43.83,-19.815,-10.058
237,1438343230763,-42.979,-19.815,-10.38
238,1438343230781,-42.141,-19.815,-10.971
239,1438343230787,-41.552,-19.815,-11.373
240,1438343230807,-40.834,-19.815,-11.715
241,1438343230830,-39.91,-20.124,-12.362
242,1438343230848,-39.207,-20.124,-12.362
243,1438343230872,-38.45,-20.124,-12.362
244,1438343230890,-37.855,-20.124,-12.362
245,1438343230916,-37.467,-20.124,-12.362
246,1438343230936,-36.665,-20.124,-12.362
247,1438343230950,-36.665,-20.124,-12.362
248,1438343230971,-36.013,-20.124,-12.362
249,1438343230988,-36.013,-20.124,-12.705
250,1438343231011,-35.546,-20.124,-12.705
251,1438343231030,-35.546,-20.124,-13.034
252,1438343231051,-35.231,-20.124,-13.034
253,1438343231070,-35.231,-20.124,-13.354
254,1438343231090,-35.231,-20.423,-13.354
255,1438343231111,-35.231,-20.423,-13.354
256,1438343231130,-34.915,-20.423,-13.748
257,1438343231151,-34.915,-20.423,-13.748
258,1438343231171,-34.915,-20.423,-13.748
259,1438343231190,-34.561,-20.423,-14.089
260,1438343231209,-34.561,-20.423,-14.089
261,1438343231230,-34.561,-20.423,-14.089
262,1438343231251,-34.561,-20.423,-14.089
263,1438343231270,-34.561,-20.423,-14.431
264,1438343231290,-34.561,-20.069,-14.431
265,1438343231311,-34.207,-20.069,-14.431
266,1438343231330,-34.207,-20.069,-14.843
267,1438343231351,-33.753,-20.069,-14.843
268,1438343231372,-33.753,-20.069,-14.843
269,1438343231390,-32.984,-19.729,-15.296
270,1438343231411,-32.278,-19.729,-15.296
271,1438343231433,-31.578,-19.729,-15.296
272,1438343231448,-31.164,-19.729,-15.64
273,1438343231545,-30.651,-19.729,-15.64
274,1438343231559,-29.936,-19.412,-15.64
275,1438343231560,-29.008,-19.412,-15.979
276,1438343231561,-28.175,-19.412,-15.979
277,1438343231562,-27.465,-19.412,-15.979
278,1438343231575,-26.913,-19.412,-15.979
279,1438343231602,-26.501,-19.412,-15.979
280,1438343231609,-25.859,-19.113,-15.979
281,1438343231628,-25.859,-19.113,-15.979
282,1438343231649,-25.344,-19.113,-15.979
283,1438343231668,-25.344,-19.113,-15.979
284,1438343231691,-24.902,-19.113,-15.979
285,1438343231711,-24.902,-19.113,-15.979
286,1438343231729,-24.902,-19.113,-15.678
287,1438343231748,-24.902,-19.113,-15.678
288,1438343231771,-24.902,-19.113,-15.678
289,1438343231792,-24.902,-19.113,-15.364
290,1438343231811,-24.902,-19.113,-15.364
291,1438343231832,-24.902,-19.113,-15.049
292,1438343231851,-24.902,-19.113,-15.049
293,1438343231869,-24.902,-19.113,-14.712
294,1438343231888,-24.902,-19.113,-14.712
295,1438343231911,-24.902,-19.113,-14.35
296,1438343231935,-24.902,-19.113,-14.35
297,1438343231948,-24.568,-19.113,-14.35
298,1438343231972,-24.568,-19.421,-14.35
299,1438343231992,-24.568,-19.421,-14.35
300,1438343232011,-24.568,-19.421,-14.036
301,1438343232031,-24.189,-19.421,-14.036
302,1438343232051,-24.189,-19.421,-14.036
303,1438343232072,-24.189,-19.421,-14.036
304,1438343232092,-24.189,-19.421,-14.036
305,1438343232112,-23.777,-19.421,-14.036
306,1438343232132,-23.777,-19.421,-14.036
307,1438343232153,-23.463,-19.421,-14.036
308,1438343232172,-23.463,-19.421,-14.036
309,1438343232191,-22.607,-19.421,-14.036
310,1438343232212,-22.134,-19.421,-14.468
311,1438343232264,-21.817,-19.081,-14.801
312,1438343232265,-21.313,-19.081,-15.368
313,1438343232270,-21.313,-19.081,-15.368
314,1438343232290,-21.313,-18.765,-15.368
315,1438343232317,-21.313,-18.765,-15.368
316,1438343232329,-21.313,-18.443,-15.368
317,1438343232349,-21.313,-18.443,-15.734
318,1438343232370,-21.313,-18.443,-15.734
319,1438343232388,-21.313,-18.02,-15.734
320,1438343232431,-21.313,-18.02,-15.734
321,1438343232433,-20.967,-18.02,-16.052
322,1438343232464,-20.967,-17.613,-16.052
323,1438343232478,-20.967,-17.613,-16.052
324,1438343232489,-20.967,-17.613,-16.052
325,1438343232509,-20.967,-17.243,-16.052
326,1438343232529,-20.967,-17.243,-16.052
327,1438343232549,-20.967,-17.243,-16.052
328,1438343232571,-20.967,-17.243,-16.052
329,1438343232592,-20.967,-16.882,-15.475
330,1438343232612,-20.967,-16.882,-15.141
331,1438343232632,-20.967,-16.882,-15.141
332,1438343232650,-21.347,-16.882,-14.73
333,1438343232669,-21.347,-16.882,-14.73
334,1438343232690,-21.347,-16.882,-14.353
335,1438343232712,-21.675,-16.882,-14.353
336,1438343232731,-21.675,-16.882,-14.353
337,1438343232751,-21.675,-16.882,-13.874
338,1438343232769,-21.675,-16.882,-13.874
339,1438343232792,-21.675,-16.882,-13.484
340,1438343232812,-21.675,-16.882,-13.484
341,1438343232832,-21.984,-17.329,-13.166
342,1438343232853,-21.984,-17.329,-13.166
343,1438343232871,-21.984,-17.683,-12.788
344,1438343232892,-21.984,-18.119,-12.788
345,1438343232911,-21.984,-18.809,-12.46
346,1438343232932,-21.984,-19.195,-12.46
347,1438343232954,-21.984,-19.628,-12.46
348,1438343233013,-21.609,-20.089,-12.46
349,1438343233024,-21.609,-20.445,-12.118
350,1438343233025,-21.609,-20.445,-12.118
351,1438343233031,-21.609,-20.445,-12.118
352,1438343233050,-21.295,-20.445,-12.118
353,1438343233075,-21.295,-20.861,-11.808
354,1438343233089,-21.295,-20.861,-11.808
355,1438343233109,-21.295,-21.171,-11.808
356,1438343233142,-20.964,-21.171,-11.808
357,1438343233150,-20.964,-21.171,-11.808
358,1438343233170,-20.964,-21.171,-11.808
359,1438343233190,-20.964,-21.171,-11.808
360,1438343233214,-20.964,-21.571,-11.808
361,1438343233233,-20.639,-21.571,-11.808
362,1438343233252,-20.639,-21.879,-11.808
363,1438343233272,-20.639,-21.879,-11.808
364,1438343233293,-20.639,-21.879,-11.808
365,1438343233313,-20.639,-21.879,-12.197
366,1438343233332,-20.639,-22.201,-12.197
367,1438343233353,-20.639,-22.201,-12.197
368,1438343233371,-20.639,-22.201,-12.559
369,1438343233393,-21.061,-22.201,-13.143
370,1438343233411,-21.061,-22.201,-13.143
371,1438343233432,-22.026,-22.201,-13.143
372,1438343233452,-23.023,-22.201,-13.143
373,1438343233477,-23.672,-22.201,-13.51
374,1438343233492,-24.215,-22.201,-13.51
375,1438343233510,-24.215,-22.201,-13.51
376,1438343233532,-24.62,-21.798,-13.51
377,1438343233552,-24.62,-21.798,-13.909
378,1438343233576,-25.042,-21.438,-13.909
379,1438343233593,-25.042,-21.438,-14.286
380,1438343233610,-25.042,-20.701,-14.286
381,1438343233630,-25.042,-20.375,-14.617
382,1438343233650,-25.349,-20.375,-14.617
383,1438343233673,-25.349,-19.938,-14.617
384,1438343233690,-25.349,-19.938,-15.002
385,1438343233745,-25.349,-19.631,-15.002
386,1438343233757,-25.349,-19.631,-15.002
387,1438343233758,-25.349,-19.631,-15.002
388,1438343233770,-25.772,-19.631,-15.002
389,1438343233795,-25.772,-19.313,-15.002
390,1438343233812,-26.135,-19.313,-15.002
391,1438343233832,-26.135,-19.313,-15.002
392,1438343233852,-26.464,-18.911,-15.002
393,1438343233871,-26.464,-18.911,-15.002
394,1438343233892,-26.805,-18.911,-15.002
395,1438343233911,-26.805,-18.911,-15.002
396,1438343233933,-27.229,-18.911,-15.002
397,1438343233950,-27.587,-18.911,-15.002
398,1438343233973,-28.016,-18.911,-14.665
399,1438343233993,-28.016,-19.612,-14.665
400,1438343234013,-28.016,-20.484,-14.665
401,1438343234033,-28.016,-21.203,-14.274
402,1438343234053,-28.016,-21.617,-14.274
403,1438343234073,-28.364,-21.617,-14.274
404,1438343234094,-28.364,-21.617,-13.89
405,1438343234113,-28.77,-21.235,-13.89
406,1438343234131,-28.77,-21.235,-13.89
407,1438343234154,-29.188,-21.235,-13.546
408,1438343234174,-29.188,-21.58,-13.546
409,1438343234193,-29.632,-21.58,-13.546
410,1438343234214,-29.632,-21.58,-13.233
411,1438343234234,-30.072,-21.58,-13.233
412,1438343234253,-30.514,-21.58,-13.233
413,1438343234273,-31.065,-21.58,-12.91
414,1438343234294,-31.666,-21.58,-12.91
415,1438343234314,-32.246,-21.914,-12.91
416,1438343234332,-32.992,-21.914,-12.91
417,1438343234352,-33.799,-21.914,-12.91
418,1438343234372,-34.394,-21.914,-12.91
419,1438343234393,-35.099,-21.914,-12.91
420,1438343234411,-36.029,-21.914,-12.91
421,1438343234521,-36.866,-21.914,-12.91
422,1438343234522,-37.666,-21.56,-12.91
423,1438343234523,-38.438,-21.56,-12.577
424,1438343234524,-39.114,-21.56,-12.577
425,1438343234525,-40.042,-21.255,-12.577
426,1438343234545,-40.351,-21.255,-12.278
427,1438343234552,-40.351,-21.255,-12.278
428,1438343234617,-40.681,-20.924,-12.278
429,1438343234618,-40.681,-20.924,-12.278
430,1438343234619,-40.681,-20.924,-12.278
431,1438343234631,-40.681,-20.497,-12.278
432,1438343234664,-40.681,-20.497,-11.968
433,1438343234671,-40.681,-20.497,-11.968
434,1438343234693,-40.681,-20.129,-11.968
435,1438343234712,-40.681,-20.129,-11.968
436,1438343234731,-40.681,-20.129,-11.968
437,1438343234751,-40.681,-19.676,-11.968
438,1438343234793,-40.681,-19.676,-11.968
439,1438343234794,-40.681,-19.326,-11.968
440,1438343234811,-40.681,-19.326,-12.319
441,1438343234831,-40.681,-18.87,-13.153
442,1438343234852,-41.116,-18.87,-13.723
443,1438343234873,-41.116,-18.235,-14.053
444,1438343234893,-41.116,-17.834,-14.053
445,1438343234913,-41.514,-17.434,-15.069
446,1438343234934,-41.514,-16.996,-15.704
447,1438343234953,-41.514,-16.564,-16.438
448,1438343234974,-41.86,-16.076,-17.184
449,1438343234992,-41.86,-15.496,-17.845
450,1438343235011,-41.86,-14.852,-17.845
451,1438343235033,-42.407,-14.852,-18.896
452,1438343235055,-42.727,-13.986,-19.444
453,1438343235077,-43.029,-13.986,-19.444
454,1438343235097,-43.356,-13.424,-20.111
455,1438343235116,-43.356,-13.424,-20.111
456,1438343235134,-43.356,-12.828,-21.066
457,1438343235152,-43.356,-12.443,-21.066
458,1438343235173,-43.356,-12.443,-22.645
459,1438343235193,-43.798,-11.961,-23.031
460,1438343235216,-43.798,-11.512,-23.031
461,1438343235280,-43.798,-11.184,-23.031
462,1438343235281,-44.219,-10.691,-23.031
463,1438343235282,-44.219,-9.68,-23.031
464,1438343235291,-44.219,-8.691,-23.524
465,1438343235314,-44.529,-7.714,-23.524
466,1438343235331,-44.529,-6.919,-23.213
467,1438343235352,-44.529,-6.478,-23.213
468,1438343235372,-44.529,-5.465,-22.891
469,1438343235394,-44.529,-4.873,-22.891
470,1438343235414,-45.077,-3.941,-22.891
471,1438343235432,-46.838,-3.468,-22.891
472,1438343235455,-45.375,-2.647,-22.891
473,1438343235471,-47.76,-2.272,-22.891
474,1438343235495,-45.533,-1.658,-23.278
475,1438343235515,-45.533,-1.145,-23.278
476,1438343235534,-48.185,-0.721,-23.278
477,1438343235552,-45.585,-0.323,-23.278
478,1438343235575,-45.585,0.067,-23.278
479,1438343235595,-48.4,0.462,-23.278
480,1438343235614,-45.771,0.904,-23.278
481,1438343235634,-45.771,1.268,-23.278
