id,attr_time,attr_db
1,1437992082351,54.3517291511862
2,1437992083032,8.28957405464957
3,1437992083733,8.59357751470042
4,1437992084474,12.7185792711609
5,1437992085206,12.3439148266708
6,1437992085948,2.19065179247934
7,1437992087990,35.640892698866
8,1437992088747,55.1786028228811
9,1437992089468,36.1958312408176
10,1437992090184,61.8019016834251
11,1437992090955,61.4907199683279
12,1437992091712,50.5233725317891
13,1437992092451,33.5849184594237
14,1437992093187,22.2746161019049
15,1437992093902,31.8262832594949
16,1437992094688,34.7252837172536
17,1437992095404,38.2053543430228
18,1437992097289,38.3214028793036
19,1437992097961,21.2246796409675
20,1437992098645,32.9394880556157
21,1437992099370,37.5941464373904
22,1437992100101,31.122073847563
23,1437992100822,44.9844110986153
24,1437992101639,21.7211813018125
25,1437992102388,25.6110933811316
26,1437992103003,61.6051048231654
27,1437992103740,64.2584502373475
28,1437992104479,31.517376024939
29,1437992105197,15.1502618633771
30,1437992105944,28.6693450673418
31,1437992106685,34.4615438647154
32,1437992107409,14.1607525346977
33,1437992108126,28.3763915376073
34,1437992108871,39.3827294756001
35,1437992109615,9.73355866079187
36,1437992110349,50.2457531855927
37,1437992111066,40.9630846952057
38,1437992111813,40.556069905828
39,1437992112551,22.3329703482554
40,1437992113305,2.17625926285973
41,1437992114033,4.0964721842451
42,1437992114804,42.4162659339759
43,1437992115538,63.8062709132124
44,1437992116265,35.9588203228848
45,1437992116970,14.9368391274094
46,1437992117732,26.6271434547656
47,1437992118508,65.7482317544938
48,1437992119112,68.3085436742523
49,1437992119860,41.733107843481
50,1437992120593,9.99361501969475
51,1437992121323,66.8917267584436
52,1437992122069,16.6625013773664
53,1437992122818,12.1437033332125
54,1437992123648,7.04443894837732
55,1437992124383,66.9932076943305
56,1437992125077,42.118940143271
57,1437992125819,8.02983916171547
58,1437992126546,23.0278045149264
59,1437992127256,34.6693822244553
60,1437992127938,7.97346874748764
61,1437992128694,38.9107744112554
62,1437992129413,22.4051291003148
63,1437992130182,36.9318457341689
64,1437992130929,8.74158654064851
65,1437992131669,35.9872731013903
66,1437992132368,9.73651656636722
67,1437992133061,26.7847931385141
68,1437992133824,35.5812758550919
69,1437992134489,25.0326961540289
70,1437992135101,17.1189240004198
71,1437992135806,11.1522915303433
72,1437992136538,13.1178486150766
73,1437992137260,10.9312121868401
74,1437992138067,13.137960423573
75,1437992138814,30.2667923434204
76,1437992139505,23.1765631591338
77,1437992140223,9.66481096123824
78,1437992140944,25.3850027160837
79,1437992141670,3.96295007202282
80,1437992142386,10.9620706033272
81,1437992143187,11.6431159283703
82,1437992143876,7.9267045427086
83,1437992144620,15.7711898127913
84,1437992145347,3.338681226967
85,1437992146039,1.90584301018714
86,1437992146734,0.301663503271353
87,1437992147445,1.82976173860649
88,1437992148200,0.447648278101341
89,1437992148972,1.63007732047447
90,1437992149694,2.40351176679592
91,1437992150368,6.71915439292699
92,1437992151100,5.62895816051024
93,1437992151846,4.51929484668997
94,1437992152570,1.88937686376183
95,1437992153314,11.1012293295219
96,1437992154056,33.8042224093852
97,1437992154772,44.719658671409
98,1437992155506,58.0312298263911
99,1437992156231,33.5414314538138
100,1437992156878,1.72102987548889
101,1437992157615,29.2864187124914
102,1437992158283,5.62339014506797
103,1437992158882,34.4876377758941
104,1437992159562,41.9660146997252
105,1437992160279,6.2483405053517
106,1437992161027,55.7050778298905
107,1437992161687,30.2427618230721
108,1437992162403,51.1663810099601
109,1437992163085,29.9354813202027
110,1437992163776,40.6746255229847
111,1437992164563,33.7501262843554
112,1437992165284,5.78292253117197
113,1437992166009,5.87792749291277
114,1437992166700,34.8158978059284
115,1437992167376,36.7019259371586
116,1437992168096,23.2291687453421
117,1437992168864,40.3726782228776
118,1437992169680,6.45999817685724
119,1437992170428,41.763562546133
120,1437992171122,60.392615551986
121,1437992171849,9.45702947706578
122,1437992172569,18.3379865153391
123,1437992173291,2.54522713168798
124,1437992174024,2.23673089067063
125,1437992175507,2.98808203323319
126,1437992176240,7.90832844424628
127,1437992176918,13.8100692820693
128,1437992177575,8.03883854908192
129,1437992178316,11.8991446524716
130,1437992179050,7.72928310632275
131,1437992179698,11.9259617109923
132,1437992180432,10.9327053675569
133,1437992181180,15.7672603576623
134,1437992181935,12.1875280003451
135,1437992182609,11.1067956335046
136,1437992183348,10.2712187681285
137,1437992184097,7.57541501728194
138,1437992184813,7.09167188642842
139,1437992185555,5.60457633585885
140,1437992186293,3.91628352179062
141,1437992186993,6.21426144392753
142,1437992187633,2.88589391766358
143,1437992188336,0.954953072582828
144,1437992189128,0.714927509260971
145,1437992189900,33.2445422438483
146,1437992190638,3.64300132338408
147,1437992191360,6.77995662241976
148,1437992192070,2.03029235216238
149,1437992192729,1.7451238982563
150,1437992193477,2.42024814614795
151,1437992194253,0.539954031375093
152,1437992194976,1.7865840707136
153,1437992195730,24.2556556132609
154,1437992196451,33.1638669619476
155,1437992197177,60.8922321400362
156,1437992197825,15.5586528640649
157,1437992198542,2.24345371580351
158,1437992199285,41.0912653500449
159,1437992199977,34.574922972837
160,1437992200683,14.2719120610414
161,1437992201418,24.4281051123766
162,1437992202170,45.0204181478403
163,1437992202933,35.7418952096809
164,1437992203554,14.087730169248
165,1437992204287,38.7843449834341
166,1437992205001,2.55369703936846
167,1437992205741,0.864787318568822
168,1437992206480,3.65107053933547
169,1437992207211,9.02329850804043
170,1437992207912,2.52692177267235
171,1437992208634,3.52437240052301
172,1437992209375,0.607026871526848
173,1437992210090,2.23673089067063
174,1437992210858,2.38584853826247
175,1437992211594,0.33557072774137
176,1437992212324,0.934835195290234
177,1437992213081,1.36279808931484
178,1437992213803,6.3467652371371
179,1437992214473,5.4408186701762
180,1437992215170,10.8724491474468
181,1437992215861,9.32762803713039
182,1437992216592,11.3856852211526
183,1437992217299,14.502563329847
184,1437992217978,9.76015616886795
185,1437992218640,10.3077741388094
186,1437992219357,10.6545653252337
187,1437992220008,9.18831454423275
188,1437992220741,34.0805799772165
189,1437992221479,4.97170470554843
190,1437992222215,8.07446321515286
191,1437992222973,28.0647627434589
192,1437992223572,10.9940189504354
193,1437992224380,16.940322779043
194,1437992225113,61.0825012160922
195,1437992225856,32.6957995016104
196,1437992226599,31.346995798541
197,1437992227332,7.09323224823167
198,1437992228054,2.85494193965216
199,1437992228702,8.23646475579385
200,1437992229508,20.5521710986213
201,1437992230217,23.4831952504684
202,1437992230915,6.17542257231617
203,1437992231669,8.06935537046696
204,1437992232394,16.1116796575678
205,1437992233106,17.1686631801612
206,1437992233875,18.7877604543154
207,1437992234550,33.0023932799292
208,1437992235295,9.74082112892565
209,1437992236044,21.3806037766904
210,1437992236776,16.6627738544941
211,1437992237497,7.04238377408444
212,1437992238180,4.83744681633144
213,1437992238856,16.8244072848101
214,1437992239613,6.50666439570244
215,1437992240227,6.80322760656883
216,1437992240917,9.64039432343129
217,1437992241658,7.22889931840013
218,1437992242401,16.7798383221577
219,1437992243127,4.96722773121412
220,1437992243863,7.43369182667379
221,1437992244523,6.71349398892213
222,1437992245237,25.6468093255683
223,1437992245959,27.911663661713
224,1437992246642,1.27550198126584
225,1437992247335,2.43534092081958
226,1437992248050,0.851715999867079
227,1437992249488,11.7799517423433
228,1437992250233,0.161498977303804
229,1437992252387,2.98808203323319
230,1437992253882,0.447648278101341
231,1437992254580,1.49540966729511
232,1437992255297,1.03081285292561
233,1437992256002,1.14289040328558
234,1437992256748,0.561190935935153
235,1437992257475,0.851715999867079
236,1437992258887,0.657970651804447
237,1437992259514,0.851715999867079
238,1437992260220,3.21370224142697
239,1437992261700,1.14289040328558
240,1437992262410,0.851715999867079
241,1437992263160,2.4395481815645
242,1437992264582,1.14289040328558
243,1437992265303,4.21318174066374
244,1437992267323,29.4590619417905
245,1437992267988,4.43909537620542
246,1437992268736,5.58628749545283
247,1437992269480,15.7578288173385
248,1437992270235,19.3927077896676
249,1437992270971,16.5650726416337
250,1437992271720,27.0027140777778
251,1437992272448,35.4577249172534
252,1437992273164,34.8089669924658
253,1437992273852,37.0930019159018
254,1437992274595,19.716362136798
255,1437992275312,22.9265630547047
256,1437992276030,49.6047780545045
257,1437992276772,50.7567853267711
258,1437992277514,19.6078181406825
259,1437992278230,10.2526890386358
260,1437992279000,16.0083023591489
261,1437992280906,12.3826163579793
262,1437992281620,4.47149537512206
263,1437992282348,11.911273880864
264,1437992283084,47.2175589315391
265,1437992283879,60.9977300506588
266,1437992284487,23.1678367893509
267,1437992285175,5.87919782412352
268,1437992285917,3.91891096510929
269,1437992286657,9.35100492271902
270,1437992287372,7.92962232201543
271,1437992288122,16.2530674546831
272,1437992288851,8.18440194824878
273,1437992289558,10.4732693001753
274,1437992290204,5.4316154259236
275,1437992290975,4.66768461182106
276,1437992291709,1.51348644726
277,1437992292437,2.72910464893696
278,1437992293171,5.08931733378524
279,1437992293928,1.72785572231409
280,1437992294671,5.28414697449284
281,1437992295392,11.0483355362553
282,1437992296140,0.657970651804447
283,1437992296900,1.33561218406035
284,1437992297632,1.0054525731929
285,1437992298341,1.94596266413911
286,1437992299817,2.56031990635961
287,1437992300491,2.19065179247934
288,1437992301099,1.59455215995841
289,1437992301810,2.97893417600209
290,1437992302506,0.934835195290234
291,1437992304170,0.447648278101341
292,1437992304785,7.6506772337541
293,1437992305479,11.8413618645098
294,1437992306183,2.65167637170161
295,1437992306838,2.26520924286421
296,1437992307582,1.76047677832612
297,1437992308322,0.126262054178071
298,1437992309761,1.37829477431406
299,1437992310498,0.971523273650831
300,1437992311241,2.19065179247934
301,1437992311948,10.4960295310541
302,1437992312607,11.8985274061924
303,1437992313343,4.65666190775539
304,1437992314059,8.5046585552832
305,1437992314789,10.8839081064149
306,1437992315473,11.6322723940821
307,1437992316118,9.50758864085225
308,1437992317576,29.2724085144449
309,1437992318314,33.7605072639379
310,1437992319055,11.9841316363391
311,1437992319803,14.4244694736414
312,1437992320515,15.7165351229391
313,1437992321175,11.7330768868726
314,1437992321904,17.287515101599
315,1437992322576,10.386971560516
316,1437992323290,13.4592981604487
317,1437992324096,13.1559826958943
318,1437992324860,10.4003787172487
319,1437992325539,7.89099830083151
320,1437992326280,5.89927749867584
321,1437992327002,6.91151384060149
322,1437992327705,5.47578958661833
323,1437992328375,1.71509486354764
324,1437992329118,3.82135482130139
325,1437992329790,7.30286397323504
326,1437992330438,2.81882107751183
327,1437992331157,2.92122041125233
328,1437992331862,1.95651660181434
329,1437992332531,2.4094515137596
330,1437992333259,6.65472786650579
331,1437992333986,5.40849826597796
332,1437992334812,1.79507882898293
333,1437992335526,2.64790945166943
334,1437992336202,8.5151803146597
335,1437992336798,7.7575299267879
336,1437992337463,1.73166783105997
337,1437992338058,6.0670523128016
338,1437992338704,3.06522187984283
339,1437992339429,6.52682229201601
340,1437992340158,1.11314417682225
341,1437992340911,4.75480130197063
342,1437992341509,4.39998226574661
343,1437992342185,4.15081385862151
344,1437992342915,10.2503866159217
345,1437992343659,1.03081285292561
346,1437992344380,3.29927820101247
347,1437992345088,0.851715999867079
348,1437992346490,0.431548385376745
349,1437992347228,3.21370224142697
350,1437992347961,2.97571777543282
351,1437992348696,2.02198844174209
352,1437992349418,2.83551158592618
353,1437992350074,5.1519025015881
354,1437992350756,10.0456541136104
355,1437992351491,11.2213559176748
356,1437992352246,16.1031011648118
357,1437992352959,20.0621756601401
358,1437992353650,18.7917677543958
359,1437992354410,4.51540741707983
360,1437992355134,3.86220404052389
361,1437992355895,3.52210941877685
362,1437992356646,3.95586987047021
363,1437992357367,4.11137540763359
364,1437992358076,6.70057409715019
365,1437992358772,6.07029876757237
366,1437992359507,2.48945878833808
367,1437992360243,1.72102987548889
368,1437992360999,3.1739498167167
369,1437992361677,2.91312243412458
370,1437992362394,3.13509636885832
371,1437992363075,0.482047885986819
372,1437992364566,0.920163080926388
373,1437992365305,2.88589391766358
374,1437992365978,2.45793102363898
375,1437992366734,7.0812612135789
376,1437992367524,2.24760864993587
377,1437992368119,1.7865840707136
378,1437992368832,3.857395908855
379,1437992369468,9.13794422915364
380,1437992370146,11.8210863271306
381,1437992370900,23.3079599209106
382,1437992371621,9.48350460590133
383,1437992372353,9.10309286757123
384,1437992373041,10.4186535527942
385,1437992373692,18.6666284866828
386,1437992374387,18.3789977188392
387,1437992375100,15.0495523232235
388,1437992375873,23.102440938593
389,1437992376568,26.9583600271124
390,1437992377182,24.3852500771157
391,1437992377846,29.8000098698379
392,1437992378520,20.9878758292165
393,1437992379124,15.5744344627193
394,1437992379748,12.5798493485084
395,1437992380436,13.0771386103731
396,1437992381145,6.38516809613647
397,1437992381811,8.39897885987803
398,1437992382543,9.75999538196027
399,1437992383258,21.3014584393851
400,1437992383952,10.3599311656813
401,1437992384688,6.35426730155067
402,1437992385399,3.36881153536222
403,1437992386152,2.02198844174209
404,1437992387635,1.36279808931484
405,1437992388364,1.05181864221557
406,1437992389089,0.13740495453639
407,1437992389912,2.09572309199011
408,1437992390621,3.91891096510929
409,1437992391304,1.14289040328558
410,1437992392028,1.33172152794241
411,1437992392754,2.38584853826247
412,1437992393525,1.92608647780424
413,1437992394209,5.65732828268919
414,1437992394894,6.05314375956858
415,1437992395633,6.49083829420036
416,1437992396350,6.23905574803995
417,1437992397073,16.596860090844
418,1437992397844,2.16312121590328
419,1437992398612,3.05263477192419
420,1437992399333,8.36171058484285
421,1437992400006,11.8569861156974
422,1437992400762,8.1284924949863
423,1437992401526,5.29468746439514
424,1437992402117,5.63917789186486
425,1437992402773,2.52692177267235
426,1437992403521,0.714927509260971
427,1437992404290,2.4094515137596
428,1437992404936,3.338681226967
429,1437992405681,3.30660034234224
430,1437992406378,2.07560521469752
431,1437992407086,1.16045540348402
432,1437992407861,3.92079684464513
433,1437992408641,2.04708009993688
434,1437992409354,5.2249253405829
435,1437992410077,9.13765704483759
436,1437992410806,2.32701078820871
437,1437992411535,5.97023742063494
438,1437992412273,6.2483405053517
439,1437992413019,6.75083295890284
440,1437992413813,3.38236559216423
441,1437992414496,3.77427671343184
442,1437992415167,4.37882296261994
443,1437992415931,4.0918119554086
444,1437992416646,6.52682229201601
445,1437992417386,10.3756908051912
446,1437992418100,3.55908129641172
447,1437992418882,0.519730763477847
448,1437992419544,0.561190935935153
449,1437992420270,2.52942023080494
450,1437992420993,1.51348644726
451,1437992421732,1.35136176160862
452,1437992422458,4.29178090271972
453,1437992423278,3.55979940559638
454,1437992424007,10.758609247338
455,1437992424715,15.3156428024959
456,1437992425451,21.4895452844724
457,1437992426144,8.70917090790867
458,1437992426789,5.4953184218288
459,1437992427455,16.3964755552853
460,1437992428122,2.74408032443651
461,1437992428863,2.78991626002821
462,1437992429580,0.814195899891974
463,1437992430306,1.68593532415788
464,1437992431032,0.739638449507111
465,1437992431682,7.08090647752535
466,1437992432416,9.65588387530478
467,1437992433162,17.1925502998248
468,1437992433888,6.3694552058916
469,1437992434638,6.39216691980032
470,1437992435300,4.85936949500911
471,1437992436038,10.3385967304235
472,1437992436800,21.8887667710708
473,1437992437489,7.12794092326629
474,1437992438142,3.71906428480824
475,1437992438886,2.48126138856025
476,1437992439610,7.4427352330971
477,1437992440359,1.79188519363559
478,1437992441049,6.65184294192391
479,1437992441708,3.05032645987843
480,1437992442453,1.00190803544199
481,1437992443167,8.48910929608516
482,1437992443913,3.35236248931606
483,1437992444635,3.3616766828876
484,1437992445315,3.28762515262624
485,1437992446039,4.25428224150717
486,1437992446689,6.05583747633325
487,1437992447421,1.63007732047447
488,1437992448181,1.43488057469135
489,1437992448939,3.68071146787643
490,1437992449677,1.82976173860649
491,1437992450405,3.74131314583038
492,1437992451114,7.25474938795083
493,1437992451882,6.25277151661375
494,1437992452597,4.69777432888046
495,1437992453332,2.77566541247038
496,1437992454095,4.17664248758009
497,1437992454784,1.10899420558322
498,1437992455462,1.89618665606522
499,1437992456201,0.814195899891974
500,1437992456950,4.46663842418475
501,1437992457668,7.91898859487015
502,1437992458382,6.14743451876722
503,1437992459151,8.24098404722872
504,1437992459911,8.13445288856552
505,1437992460609,10.3010619901747
506,1437992461329,3.5998053453347
507,1437992462028,1.85524758748149
508,1437992462619,3.42101255086364
509,1437992463294,4.12885205264047
510,1437992464045,16.5752145909468
511,1437992464723,5.15840635036676
512,1437992465352,0.802223617309974
513,1437992466063,5.93933784592799
514,1437992466817,18.8166886915667
515,1437992467488,19.4952070061325
516,1437992468222,16.087854121701
517,1437992468994,10.5143003869154
518,1437992469676,4.43909537620542
519,1437992471402,2.59681933043761
520,1437992472150,3.39504264083352
521,1437992472924,2.56564051273612
522,1437992473643,2.90345891786202
523,1437992474435,1.54695812505132
524,1437992475118,1.06619330770254
525,1437992475764,1.16760134353172
526,1437992476439,1.51847977285774
527,1437992477181,2.2954285712918
528,1437992477931,4.15533344400043
529,1437992478640,7.66585793608278
530,1437992479373,12.8300502470195
531,1437992480055,7.57722318383469
532,1437992480785,0.891835653819054
533,1437992481524,1.46462680115468
534,1437992482258,3.10305246942775
535,1437992482957,2.14000506217144
536,1437992483666,2.02198844174209
537,1437992484390,4.73679806977571
538,1437992485111,6.89733529570171
539,1437992485843,5.47449250759882
540,1437992486531,2.20888031887176
541,1437992487248,1.82098367859908
542,1437992489088,3.09711136821249
543,1437992489856,0.934835195290234
544,1437992492011,1.03081285292561
545,1437992492759,0.714927509260971
546,1437992493457,0.519730763477847
547,1437992495014,1.27550198126584
548,1437992495769,1.87476644881471
549,1437992496508,1.70528029794061
550,1437992497256,0.826429549291888
551,1437992497974,2.93153716319963
552,1437992498713,3.83123357088837
553,1437992499447,1.75875952058267
554,1437992500180,6.40771909877721
555,1437992500950,2.21880705096715
556,1437992501662,4.88462327042847
557,1437992502401,6.77627108523152
558,1437992503132,4.74500236776744
559,1437992503893,6.99559066122898
560,1437992504640,7.05141276620523
561,1437992505387,9.83426848396955
562,1437992506124,9.31797181686258
563,1437992506846,5.42292050622051
564,1437992507560,5.69700788733497
565,1437992508289,4.93944787284149
566,1437992509017,2.80326889853494
567,1437992509862,1.03081285292561
568,1437992510579,1.71240864437112
569,1437992511307,3.72478433087473
570,1437992512054,1.24707023856996
571,1437992514906,1.27550198126584
572,1437992515634,1.91488610276668
573,1437992516368,0.832647079720628
574,1437992517097,1.63007732047447
