id,attr_time,attr_db
1,1437992082258,49.4820008164956
2,1437992083001,36.0450466863075
3,1437992083759,13.7561216764796
4,1437992084496,10.3149024852399
5,1437992085236,15.2123985036435
6,1437992085953,2.37585901486343
7,1437992086719,11.7397352924406
8,1437992087492,2.84403412754671
9,1437992088113,28.0304444291028
10,1437992088778,49.7569229827021
11,1437992089496,60.1684123967172
12,1437992090206,56.8354268269634
13,1437992090960,53.4063934433979
14,1437992091717,48.1168045739251
15,1437992092402,55.9446475759676
16,1437992093149,28.2201619947526
17,1437992093889,38.9099439854429
18,1437992094643,44.5501395569941
19,1437992095389,27.4714263741948
20,1437992096124,22.2266796894056
21,1437992096865,34.9023617831755
22,1437992097623,30.3261398923344
23,1437992098355,27.4213120486639
24,1437992099096,43.4954863399169
25,1437992099824,36.8937542991923
26,1437992100558,34.6226385054436
27,1437992101336,27.7031205003182
28,1437992102065,17.936073652666
29,1437992102794,55.1046363872015
30,1437992103521,65.697515085809
31,1437992104244,46.7009462776738
32,1437992104972,16.8137455466277
33,1437992105781,43.1985259147097
34,1437992106498,36.6901694531259
35,1437992107242,12.3149615840495
36,1437992108031,22.6656725637417
37,1437992108626,39.5277141706291
38,1437992109296,11.2163337423872
39,1437992110039,20.5352968781064
40,1437992110789,41.3667255573437
41,1437992111505,37.9531816918976
42,1437992112235,29.8840025205254
43,1437992112836,2.97452621364508
44,1437992113479,7.1634903165652
45,1437992114159,6.8706855255984
46,1437992114890,64.6811656274529
47,1437992115791,56.3745076986272
48,1437992116522,31.6788654209011
49,1437992117259,39.3153109050567
50,1437992117978,66.2453669150715
51,1437992118716,53.683089684882
52,1437992119438,50.3814494376548
53,1437992120148,16.9383048948904
54,1437992120872,65.2989713511989
55,1437992121612,20.2613464533598
56,1437992122280,15.7256682202093
57,1437992122940,41.3143114427222
58,1437992123708,9.33378372477626
59,1437992124459,49.2144745812943
60,1437992125188,45.400314724466
61,1437992125962,13.4795807675672
62,1437992126717,40.7274777453347
63,1437992127464,41.7296642562286
64,1437992128188,39.6734360645253
65,1437992128875,22.1363360264396
66,1437992129609,44.5665075532592
67,1437992130356,49.9161014676925
68,1437992131116,13.2257492528107
69,1437992131781,36.7736887163752
70,1437992132458,5.37181018761736
71,1437992133111,64.5657969906711
72,1437992133833,39.7243123909245
73,1437992134572,36.752501628498
74,1437992135299,18.517594439786
75,1437992136046,9.75817715025608
76,1437992136801,19.1784985393301
77,1437992137544,12.6412191223627
78,1437992138243,13.9333028280682
79,1437992138942,39.839225114455
80,1437992139720,3.88867390318017
81,1437992140433,34.1651177630828
82,1437992141144,5.06878330616495
83,1437992141823,8.91984646944994
84,1437992142570,10.5582234411807
85,1437992143290,6.33316164839235
86,1437992144048,35.2236964334287
87,1437992144784,3.21370224142697
88,1437992145519,3.45320111587027
89,1437992146271,3.74838730637187
90,1437992146996,2.85741556547001
91,1437992147778,4.18906643339659
92,1437992148593,3.47300178471432
93,1437992149206,7.77733855314368
94,1437992149898,2.97308049299626
95,1437992150563,3.91784840597431
96,1437992151201,11.0608244821673
97,1437992151955,8.17191930811142
98,1437992152696,2.82125444064248
99,1437992153383,61.6026365765926
100,1437992154108,59.7795397480823
101,1437992154836,23.1888676579951
102,1437992155580,25.5512296431469
103,1437992156312,4.02451578741794
104,1437992157043,34.6278959938527
105,1437992158368,35.521231919505
106,1437992159038,52.7801172686896
107,1437992159741,29.9906065599131
108,1437992160349,3.47826755610207
109,1437992161061,54.2412695622916
110,1437992161899,73.8469803220298
111,1437992162674,66.0535441104996
112,1437992163416,42.8349586447572
113,1437992164160,35.9138466571076
114,1437992164885,20.8285034290972
115,1437992165631,6.75305697367317
116,1437992166359,42.7499299395695
117,1437992167103,34.1714221004329
118,1437992167833,36.4289541315106
119,1437992168499,38.7990189084567
120,1437992169083,10.0200026304934
121,1437992169728,9.29216008479613
122,1437992170451,55.0068908840444
123,1437992171164,27.7351012909793
124,1437992171868,2.49545112361408
125,1437992172587,21.1547086077302
126,1437992173306,3.01553646822199
127,1437992174042,2.29855243021347
128,1437992174737,2.50818703445611
129,1437992175537,4.92771825454239
130,1437992176268,6.81178682054295
131,1437992177016,12.8407504511914
132,1437992177771,6.93175112985977
133,1437992178538,9.17663628554928
134,1437992179210,5.07299771170035
135,1437992179963,9.9043172816723
136,1437992180726,17.1091520664041
137,1437992181449,20.5897325555708
138,1437992182199,11.4561255450633
139,1437992182942,7.20514933953105
140,1437992183704,3.35236248931606
141,1437992184430,6.66300723958341
142,1437992185152,3.57459229529982
143,1437992185900,3.07843537541317
144,1437992186654,5.19714854348959
145,1437992187393,2.39697716199887
146,1437992188140,6.68944832434931
147,1437992188872,4.01380547485865
148,1437992189598,1.25173756250712
149,1437992190258,11.2705483877023
150,1437992191799,15.7573505155001
151,1437992192533,0.7790303067652
152,1437992193189,17.7023805846952
153,1437992193873,1.70528029794061
154,1437992194632,3.92801328675766
155,1437992195357,37.3441338459068
156,1437992196083,39.0379419392237
157,1437992197376,13.106741037725
158,1437992198048,24.8098273000793
159,1437992198834,11.1819900068958
160,1437992199554,36.2312667819109
161,1437992200289,38.9987316669528
162,1437992201039,29.9342140885278
163,1437992201804,57.0339352648911
164,1437992202523,41.2838553221907
165,1437992204548,25.6572728070776
166,1437992205183,2.66493727448818
167,1437992205977,2.6144377738781
168,1437992206750,6.47172741820019
169,1437992207458,1.17391147068034
170,1437992209291,4.61445957358207
171,1437992210023,1.7865840707136
172,1437992210766,1.08459562314124
173,1437992211498,2.13176417954372
174,1437992212225,1.2158049102766
175,1437992212927,4.12885205264047
176,1437992213565,8.4552130983828
177,1437992214264,7.71141796826374
178,1437992214990,9.74538424415436
179,1437992215817,10.9359582754896
180,1437992216554,17.0948168139485
181,1437992217267,17.7034982109266
182,1437992218015,21.5502640172423
183,1437992218784,7.86721110360652
184,1437992219524,12.6953322224115
185,1437992220306,11.3488092725447
186,1437992221052,5.11746092365781
187,1437992221721,2.36841573835532
188,1437992222467,11.4161191449551
189,1437992223217,15.6641132940747
190,1437992223814,17.1784705114763
191,1437992224379,13.1363144845037
192,1437992224956,37.0272593432975
193,1437992225505,43.2950156235426
194,1437992226080,21.2787112514439
195,1437992226648,10.459695289485
196,1437992227325,5.94619214009686
197,1437992228114,4.76663494091011
198,1437992228758,30.8701163551207
199,1437992229310,30.5835378295148
200,1437992229872,22.6374652083363
201,1437992230435,19.9575959675849
202,1437992231007,19.842285834036
203,1437992231578,9.83117150583657
204,1437992233019,6.40535784019584
205,1437992233684,30.6934065932315
206,1437992234406,35.3854346786319
207,1437992235114,13.1406761962527
208,1437992235808,26.184037655309
209,1437992236422,10.8005952292216
210,1437992237002,13.7673654057456
211,1437992237580,9.93208438508164
212,1437992238163,18.9377680546897
213,1437992238756,10.8863001721502
214,1437992239434,4.16126212620702
215,1437992240099,8.41135434810746
216,1437992240696,8.5213599360493
217,1437992241252,6.85057400032242
218,1437992241802,8.83716374295181
219,1437992242372,8.28925252175407
220,1437992243827,7.05141276620523
221,1437992244568,5.91370349375089
222,1437992245335,5.75297070492126
223,1437992246082,2.13176417954372
224,1437992246606,2.90890291029223
225,1437992247159,1.41321999080248
226,1437992247708,2.91923710501284
227,1437992248324,0.271150979019676
228,1437992249024,3.21370224142697
229,1437992249691,4.37354118098071
230,1437992250400,2.51846011624273
231,1437992251001,1.14289040328558
232,1437992251577,3.11328621392596
233,1437992252130,1.87476644881471
234,1437992253249,29.4280277704598
235,1437992254528,1.49540966729511
236,1437992255266,1.73578924970815
237,1437992256709,1.82098367859908
238,1437992257435,0.7790303067652
239,1437992258201,1.27550198126584
240,1437992258950,1.0054525731929
241,1437992259724,2.55607771353386
242,1437992260454,2.40512910031481
243,1437992261194,1.80795158367413
244,1437992261915,5.08568192946804
245,1437992262652,0.7790303067652
246,1437992263331,1.08459562314124
247,1437992264072,0.347727328239495
248,1437992264836,3.16449027047383
249,1437992265562,7.00658226855345
250,1437992266296,11.8772842330901
251,1437992267021,8.17143854374724
252,1437992267818,4.07684058202997
253,1437992268563,3.8404972855519
254,1437992269397,13.2367657890618
255,1437992270085,18.520985025349
256,1437992270838,13.6961650999872
257,1437992271611,22.8820793520386
258,1437992272277,36.4939825524851
259,1437992273027,38.5542193865392
260,1437992273768,25.4852324163371
261,1437992274442,19.4863421942881
262,1437992275166,22.0537274670534
263,1437992275921,49.8249290810651
264,1437992276778,27.8156218391541
265,1437992277519,14.6642983745501
266,1437992278252,10.7875611056176
267,1437992278998,37.4955217792089
268,1437992279769,15.0687271787134
269,1437992280502,15.5082946402664
270,1437992281284,7.41935347924094
271,1437992282050,6.44886502905082
272,1437992282788,23.3925765191895
273,1437992283458,49.153366913484
274,1437992284201,44.1604117131742
275,1437992284954,5.19923716717024
276,1437992285701,5.77286578906855
277,1437992286447,31.9038700958175
278,1437992287161,8.66763018182789
279,1437992287902,16.7860286386349
280,1437992288638,9.07779540446746
281,1437992289351,8.18500466335336
282,1437992289958,5.53338012053444
283,1437992290627,1.03081285292561
284,1437992291336,1.6941801179787
285,1437992292089,2.41627200067313
286,1437992292841,3.04169880618862
287,1437992293579,14.8692887929035
288,1437992294275,2.05386330187324
289,1437992294969,4.76663494091011
290,1437992295659,0.965258657700892
291,1437992296408,1.95266732648519
292,1437992297077,2.72284341987645
293,1437992297852,1.34008138386981
294,1437992298592,4.12885205264047
295,1437992299352,0.965258657700892
296,1437992300085,3.817597948562
297,1437992300862,2.02198844174209
298,1437992301606,1.08459562314124
299,1437992302283,0.814195899891974
300,1437992303013,2.76355542146995
301,1437992303783,1.66696013444188
302,1437992304511,1.14289040328558
303,1437992305238,7.30907559320553
304,1437992305966,6.06513256704551
305,1437992306761,2.80090410417291
306,1437992307454,6.27393555060528
307,1437992308174,0.464465107435965
308,1437992308920,0.360352170052341
309,1437992309655,3.55125357197532
310,1437992310334,1.79507882898293
311,1437992311083,1.90584301018714
312,1437992311869,2.08407512237801
313,1437992312611,15.7720447854073
314,1437992313276,11.0269394592175
315,1437992313936,9.05557383972386
316,1437992314593,7.01349961287177
317,1437992315371,8.45152615057948
318,1437992316088,13.8410094645606
319,1437992316732,3.75674716229927
320,1437992317401,27.9975146410646
321,1437992318055,35.4044303862308
322,1437992318715,14.4104880363771
323,1437992319453,14.0160005484663
324,1437992320184,12.8365747231217
325,1437992320922,16.7081136082015
326,1437992321659,12.9847165714359
327,1437992322321,10.0433348545415
328,1437992323086,18.9102404487174
329,1437992323854,17.3100857750727
330,1437992324571,9.98255637536765
331,1437992325302,11.8250846487785
332,1437992326052,5.26452994841485
333,1437992326810,8.27406676999698
334,1437992327538,6.61128456053489
335,1437992328262,2.24914285282568
336,1437992329015,6.5108536474328
337,1437992329844,3.99920950208207
338,1437992330524,1.9026953784665
339,1437992331281,28.0343520515535
340,1437992332107,3.93520955033256
341,1437992332854,16.8947818862863
342,1437992333587,4.70134950474409
343,1437992334314,2.71723056692633
344,1437992335084,11.6347078894226
345,1437992335845,11.6695987263567
346,1437992336612,22.392263185119
347,1437992337351,3.52003740310909
348,1437992338080,3.4583913697672
349,1437992338846,12.4745304938949
350,1437992339575,2.10335568443034
351,1437992340320,3.29927820101247
352,1437992341074,3.42712550040026
353,1437992341810,3.90540848639219
354,1437992342533,0.965258657700892
355,1437992343281,1.63007732047447
356,1437992344003,1.08459562314124
357,1437992344762,1.72785572231409
358,1437992345492,2.19065179247934
359,1437992346198,21.0701895762976
360,1437992346909,3.06226321860736
361,1437992347680,2.67783870966824
362,1437992348393,2.81882107751183
363,1437992349143,5.01213599904713
364,1437992349816,7.02275825893728
365,1437992350406,8.83942099079145
366,1437992351041,8.06665567337947
367,1437992351738,9.05804469993231
368,1437992352471,13.6712771470337
369,1437992353200,16.1113184066823
370,1437992353914,4.15081385862151
371,1437992354680,3.77427671343184
372,1437992355355,2.78991626002821
373,1437992356093,6.35936809720953
374,1437992357023,4.43909537620542
375,1437992357794,6.46562524416548
376,1437992358522,11.3859737244349
377,1437992359296,1.59954692124502
378,1437992360108,1.45459883432437
379,1437992360779,0.730233045623217
380,1437992361509,2.955941794385
381,1437992362316,1.03081285292561
382,1437992363082,2.14622259260018
383,1437992363851,3.43360992745624
384,1437992364587,1.43488057469135
385,1437992365322,2.59205144798603
386,1437992366029,2.51846011624273
387,1437992366715,4.49581666814188
388,1437992367449,2.74408032443651
389,1437992368156,2.9361741717472
390,1437992368838,5.38954425458183
391,1437992369579,9.34495192670581
392,1437992370261,10.0701282215681
393,1437992370916,17.7813582871485
394,1437992371761,9.9894863095605
395,1437992372488,10.7980239764351
396,1437992373198,12.7498986588677
397,1437992373943,13.6945118188592
398,1437992374696,19.1850947034607
399,1437992375405,18.4901938429466
400,1437992376133,20.5801440804961
401,1437992376893,24.9997506902099
402,1437992377608,28.4379179371297
403,1437992378287,24.126871330808
404,1437992379013,17.9084169424726
405,1437992379769,7.4721937693218
406,1437992380496,9.67160371175107
407,1437992381230,6.42971798678348
408,1437992381966,8.50473273548495
409,1437992382706,5.49751710292852
410,1437992383413,17.4071851187053
411,1437992384152,8.31045340472087
412,1437992384883,1.99096737434733
413,1437992385610,1.648344182387
414,1437992386338,3.04169880618862
415,1437992387087,2.57000857399895
416,1437992387809,3.55853092956082
417,1437992388553,4.04155594459147
418,1437992389285,4.62784101150537
419,1437992390020,1.82098367859908
420,1437992390769,3.51104779227242
421,1437992391482,1.98334148304267
422,1437992392201,1.82976173860649
423,1437992392934,4.86538541176004
424,1437992393702,3.36476499923589
425,1437992394373,5.11906356024856
426,1437992395912,12.5978819123887
427,1437992396646,28.7390469061778
428,1437992397402,11.699397551779
429,1437992398138,3.73675661345673
430,1437992398863,4.30748846997899
431,1437992399591,13.2477906739068
432,1437992400303,11.6980954072979
433,1437992401036,9.88820250913526
434,1437992401722,9.13150936165837
435,1437992402512,1.80364310658277
436,1437992403239,0.685632744095496
437,1437992403916,2.75644458223689
438,1437992405512,0.387119185497583
439,1437992406165,2.73369671335164
440,1437992406946,3.32027891152831
441,1437992407757,5.61725091805542
442,1437992408476,7.24465521124031
443,1437992409197,9.09084902386707
444,1437992409915,11.7463885977357
445,1437992410618,1.33821625832301
446,1437992411299,6.31174144114183
447,1437992412026,6.46940438301503
448,1437992412793,6.83077642872316
449,1437992413509,2.66861189734069
450,1437992414230,3.36476499923589
451,1437992414966,2.63442832272064
452,1437992415702,4.61589206136268
453,1437992416432,38.9288525524634
454,1437992417297,12.2240798905145
455,1437992418048,9.63714745867592
456,1437992418802,0.657970651804447
457,1437992420839,3.10967836771082
458,1437992421565,3.21370224142697
459,1437992422298,4.92327701805275
460,1437992423032,5.94006788846294
461,1437992423806,13.4911189034151
462,1437992424539,15.2728543092472
463,1437992425272,21.3159614175462
464,1437992425989,7.6683854756432
465,1437992426762,6.26747769764415
466,1437992427496,3.90508139583904
467,1437992429358,5.56810983348934
468,1437992430030,2.84403412754671
469,1437992430806,7.93193858302249
470,1437992431527,6.91462427559912
471,1437992432257,10.0512468715145
472,1437992432988,20.8031209025791
473,1437992433739,9.74281881856144
474,1437992434470,8.75284498634409
475,1437992435177,4.31301208837695
476,1437992435842,7.68074958798765
477,1437992436568,2.92193500521719
478,1437992437291,16.8206363757381
479,1437992438047,2.92345458003528
480,1437992438813,6.28732571280065
481,1437992439535,9.07872982323422
482,1437992440274,2.51184733355708
483,1437992441000,6.09224848472509
484,1437992441752,2.23673089067063
485,1437992442467,2.73764394797448
486,1437992443210,5.57305360062537
487,1437992443955,14.5110866533771
488,1437992444693,1.80364310658277
489,1437992445420,7.31197067814934
490,1437992446136,1.47069872704897
491,1437992446804,25.4063346367133
492,1437992447536,0.261647816542095
493,1437992448261,2.30272934283932
494,1437992448984,0.814195899891974
495,1437992449753,4.73148902640063
496,1437992450534,4.92628229339432
497,1437992451308,3.45168670742113
498,1437992451910,5.85983773094276
499,1437992452563,22.4244343852829
500,1437992453232,3.35493933117671
501,1437992453935,5.86730976571725
502,1437992454572,2.58854836681813
503,1437992455244,5.76727772091355
504,1437992455901,2.80090410417291
505,1437992456647,5.16601442936827
506,1437992457363,7.8143581235047
507,1437992458111,10.2193048418077
508,1437992458875,8.42947777914165
509,1437992459615,13.2567624086693
510,1437992460350,13.9717624135262
511,1437992461114,14.043148279335
512,1437992461856,10.9917161072934
513,1437992462577,8.05072044965006
514,1437992463311,15.5591538253059
515,1437992464048,2.4286362584735
516,1437992464816,34.4514104415465
517,1437992465553,6.70790930821288
518,1437992466278,12.1278691830358
519,1437992467100,20.041247539663
520,1437992467828,14.0258524862424
521,1437992468570,6.73552742254059
522,1437992469277,6.26905885088812
523,1437992470040,7.17375126239887
524,1437992470814,1.80208075571283
525,1437992471552,1.57727539715031
526,1437992472162,1.80795158367413
527,1437992472807,0.657970651804447
528,1437992473524,1.65002196675345
529,1437992474250,3.24546055701961
530,1437992474980,1.10899420558322
531,1437992475724,0.934835195290234
532,1437992476474,5.33477009038549
533,1437992477184,6.37584423864606
534,1437992477903,5.99000504327274
535,1437992478653,13.2793660257661
536,1437992479380,10.8474207869792
537,1437992480138,5.92614255397229
538,1437992480874,3.87083635971952
539,1437992481615,8.30381978940039
540,1437992482348,4.59015813401434
541,1437992483091,3.82707863675601
542,1437992483830,2.89781689776233
543,1437992484517,6.77683592011576
544,1437992485161,8.40711708551633
545,1437992485888,9.2545962986071
546,1437992486671,4.12885205264047
547,1437992487395,1.71509486354764
548,1437992488133,0.934835195290234
549,1437992489594,1.08459562314124
550,1437992490333,2.58172251999292
551,1437992491084,2.00778420368195
552,1437992491828,1.06619330770254
553,1437992492483,3.61776996319271
554,1437992493218,25.1571311406475
555,1437992493976,1.39209285448032
556,1437992494740,0.814195899891974
557,1437992495471,1.10349854602749
558,1437992496140,0.234921981185641
559,1437992496819,1.10349854602749
560,1437992497477,3.56540573744923
561,1437992498593,1.82976173860649
562,1437992499147,0.997211690565175
563,1437992499703,3.65923013565002
564,1437992500423,5.46580227211846
565,1437992501153,4.21079501546137
566,1437992501947,2.65167637170161
567,1437992502633,7.33162705506153
568,1437992503222,4.86538541176004
569,1437992503806,7.56113118665921
570,1437992504372,7.54217754849134
571,1437992504936,7.70016961631121
572,1437992506072,6.73182893850002
573,1437992506846,4.96621411979562
574,1437992507567,2.28816881912859
