id,attr_time,attr_db
1,1437992082079,39.0229899045584
2,1437992082803,3.42016774323393
3,1437992083528,10.8660484709767
4,1437992084257,9.60240340836108
5,1437992085048,2.49545112361408
6,1437992085751,0.912956368512905
7,1437992086469,15.3223656276287
8,1437992087242,4.02227538253914
9,1437992087953,19.1925607508352
10,1437992088678,53.9870394455004
11,1437992089490,53.7305183882635
12,1437992090210,59.8359911802361
13,1437992090947,44.8756140769844
14,1437992091679,50.7256823203223
15,1437992092434,61.0172307927655
16,1437992093087,28.0642983343695
17,1437992094427,41.5791390005658
18,1437992095226,26.6044618284557
19,1437992095938,29.0571865203775
20,1437992096687,11.2153833278198
21,1437992097442,31.962787678386
22,1437992098174,8.60938102409589
23,1437992098881,38.3460397337521
24,1437992099575,30.391252113792
25,1437992100206,31.5187938665008
26,1437992100899,37.2085400873379
27,1437992101639,15.2793487197506
28,1437992102379,18.966333838579
29,1437992103099,40.1615767428027
30,1437992103824,51.1956190165702
31,1437992104597,14.461979854134
32,1437992105349,10.6678300571728
33,1437992106072,24.5125595180482
34,1437992106796,35.5390331009905
35,1437992107533,8.52808606768602
36,1437992108268,29.5790596455033
37,1437992108979,12.4958674420827
38,1437992109716,9.74019088696642
39,1437992110453,44.5953038832976
40,1437992111166,37.161154454609
41,1437992111895,36.4874106431562
42,1437992112641,17.8941524706915
43,1437992113408,2.69164619014287
44,1437992114115,4.45144205865119
45,1437992114870,54.8900519550675
46,1437992115583,48.0601275850372
47,1437992117216,20.2635060705273
48,1437992117868,10.3448529630263
49,1437992118580,61.3031036273425
50,1437992119308,60.2123748939837
51,1437992120030,36.797827836263
52,1437992120694,7.55320830825721
53,1437992121389,36.3205992766075
54,1437992122108,12.1616432149182
55,1437992122837,7.44386056698972
56,1437992123551,6.03755860148149
57,1437992124283,57.8818455939861
58,1437992124980,29.0150506463629
59,1437992125722,7.28590120090322
60,1437992126457,25.7012650323975
61,1437992127182,36.0068190288363
62,1437992127892,2.12357895232759
63,1437992128605,40.6161184335615
64,1437992130636,29.6178684506022
65,1437992131328,38.5148414915335
66,1437992132045,24.2819570354632
67,1437992132772,39.7308200379761
68,1437992133489,44.7519931306504
69,1437992134215,2.73941675941814
70,1437992134969,37.9641241057635
71,1437992135731,7.40152120398445
72,1437992136419,8.99809753440142
73,1437992137154,7.27821128134487
74,1437992137869,9.56258705741927
75,1437992138587,5.94928169226605
76,1437992139344,1.40048096680587
77,1437992140054,2.34810425447705
78,1437992140719,2.1203203180226
79,1437992141438,4.83829841588485
80,1437992142206,4.65834996327291
81,1437992142944,4.29772035352316
82,1437992143672,1.06619330770254
83,1437992144418,16.8256001815211
84,1437992145125,5.35472638681176
85,1437992145847,2.12838708399649
86,1437992146605,1.11314417682225
87,1437992147349,1.87476644881471
88,1437992148770,2.57000857399895
89,1437992149565,1.4603151159641
90,1437992150308,6.0670523128016
91,1437992151030,7.0769595188509
92,1437992151757,7.80115839260481
93,1437992152510,1.31797585386295
94,1437992153242,6.06049444941869
95,1437992153909,29.3995674915889
96,1437992154609,23.4447170256867
97,1437992155400,47.4508214221694
98,1437992156136,28.5308651626344
99,1437992156874,0.631808313837817
100,1437992157613,24.503757386201
101,1437992158383,1.69749724218861
102,1437992159115,39.8115143541631
103,1437992159832,23.0358886696943
104,1437992160565,0.271150979019676
105,1437992161324,54.202288175741
106,1437992162056,43.4458583334221
107,1437992162778,52.4308230148744
108,1437992163503,35.4739693602614
109,1437992164240,33.7495791259057
110,1437992164975,20.3786410104584
111,1437992165701,2.36684220761948
112,1437992166450,34.1738226893459
113,1437992167166,32.9671067898073
114,1437992167890,32.3958759927821
115,1437992168630,39.7163250279557
116,1437992169396,10.593051162536
117,1437992170131,3.21370224142697
118,1437992170845,51.4266790315351
119,1437992171561,18.0280925773037
120,1437992173732,2.09138340184834
121,1437992174427,4.03813697598285
122,1437992175108,1.43488057469135
123,1437992175825,1.09263439246845
124,1437992176545,3.76499195612009
125,1437992177250,3.34184203109143
126,1437992177963,6.55564971007236
127,1437992178697,10.1619792633355
128,1437992179428,8.72019415000856
129,1437992180143,8.4785309369186
130,1437992180814,16.1599247079832
131,1437992181476,13.5151334357965
132,1437992182203,11.4381239298614
133,1437992182916,2.97756642706011
134,1437992183660,2.65825067705398
135,1437992184438,1.82976173860649
136,1437992185164,4.38559654674392
137,1437992185898,2.30419445031316
138,1437992186624,1.59954692124502
139,1437992187366,1.83607645327071
140,1437992188072,0.519730763477847
141,1437992188791,1.78055847932519
142,1437992189512,0.33557072774137
143,1437992190266,20.8664694753477
144,1437992191723,0.934835195290234
145,1437992193873,0.657970651804447
146,1437992195349,38.5001948819357
147,1437992196111,27.5899845184753
148,1437992196884,68.8172101611283
149,1437992197511,41.2771883980536
150,1437992198205,35.8804650858726
151,1437992198945,1.43488057469135
152,1437992199678,31.6052131501282
153,1437992200417,35.4558579533114
154,1437992201122,22.3037795078318
155,1437992201835,36.8884168686246
156,1437992202560,43.4196641710115
157,1437992203273,32.4709710478095
158,1437992204001,39.3334170584941
159,1437992204713,2.86321534175632
160,1437992205379,2.19065179247934
161,1437992206821,2.34438836580517
162,1437992207536,19.8473066245105
163,1437992209036,2.19065179247934
164,1437992209769,1.43488057469135
165,1437992210489,0.561190935935153
166,1437992211214,0.447648278101341
167,1437992211938,1.27550198126584
168,1437992212668,1.57727539715031
169,1437992213406,2.44243433863976
170,1437992214154,4.26951730726455
171,1437992214958,7.43413607845364
172,1437992215699,5.09687028177252
173,1437992216443,6.04751149547537
174,1437992217199,6.70287838444752
175,1437992217913,2.97893417600209
176,1437992218638,9.63836987647233
177,1437992219431,1.31797585386295
178,1437992220184,31.2219703719286
179,1437992220901,1.57727539715031
180,1437992221607,3.41649486844457
181,1437992222275,4.51540741707983
182,1437992222997,25.8228871462268
183,1437992223733,8.99230423928892
184,1437992224463,12.4325070013559
185,1437992225175,50.6865556266698
186,1437992225873,33.1420867157021
187,1437992226622,31.3460282976822
188,1437992227381,4.01027151279536
189,1437992228091,1.87476644881471
190,1437992228815,20.442510713154
191,1437992229546,19.828482456881
192,1437992230321,14.6742641376503
193,1437992231067,16.9617394386291
194,1437992231786,3.95769597993516
195,1437992232562,5.3496724631027
196,1437992233261,5.91902040895582
197,1437992234022,23.0830848982478
198,1437992234727,10.5692726929071
199,1437992235393,23.8420307034355
200,1437992236135,17.8914631527432
201,1437992236859,25.136570981773
202,1437992237600,15.2311376492275
203,1437992238247,14.9870733578045
204,1437992238951,9.11332680585329
205,1437992239692,8.05804130836322
206,1437992240451,0.572213640000824
207,1437992241180,8.92017455457483
208,1437992241921,4.06874184984597
209,1437992242580,4.34754847438707
210,1437992243336,8.4559408340992
211,1437992244058,7.38877127195114
212,1437992244770,2.00250242204272
213,1437992245582,1.5080253407374
214,1437992246344,2.07560521469752
215,1437992247079,1.52728452742625
216,1437992247810,1.14289040328558
217,1437992249255,0.607026871526848
218,1437992249986,1.27550198126584
219,1437992253569,0.714927509260971
220,1437992255731,0.7790303067652
221,1437992256472,2.6144377738781
222,1437992258539,2.10335568443034
223,1437992259307,0.851715999867079
224,1437992261453,0.934835195290234
225,1437992262174,1.14289040328558
226,1437992264347,1.52728452742625
227,1437992265067,0.7790303067652
228,1437992265792,2.98808203323319
229,1437992266538,13.0925508927725
230,1437992267315,9.34495192670581
231,1437992268059,3.66856478419817
232,1437992268779,4.26830740481963
233,1437992269490,13.9519316066517
234,1437992270186,15.2074425435042
235,1437992270867,14.6355887205642
236,1437992271593,26.504819132669
237,1437992272373,34.0948044542916
238,1437992273087,35.7561154551398
239,1437992273832,18.6748761486096
240,1437992274551,23.0565761543386
241,1437992275357,20.7349155225397
242,1437992276007,41.8881992655925
243,1437992276712,44.6660050516986
244,1437992277442,12.5142261675868
245,1437992278157,30.3419084502333
246,1437992278831,14.5390319143775
247,1437992279547,13.0483001623331
248,1437992280301,16.187992883798
249,1437992281046,9.3236180022457
250,1437992281761,5.01099274275879
251,1437992282457,8.65369251039876
252,1437992283126,56.1412110289929
253,1437992284691,12.344758639793
254,1437992285402,29.7927590983268
255,1437992286113,14.8795955964668
256,1437992286842,4.10435023205435
257,1437992287569,6.08040495130833
258,1437992288353,16.4800870253673
259,1437992289090,12.6818368273546
260,1437992289915,1.12951720643585
261,1437992290667,1.57727539715031
262,1437992291393,2.98808203323319
263,1437992292113,0.851715999867079
264,1437992292851,2.03958903467043
265,1437992293575,23.7570975163339
266,1437992294330,1.70528029794061
267,1437992295051,5.36794893410276
268,1437992295780,1.20629133907571
269,1437992296507,0.735437293614777
270,1437992297959,0.447648278101341
271,1437992298653,0.607026871526848
272,1437992299324,0.7790303067652
273,1437992300190,0.234921981185641
274,1437992300929,3.47300178471432
275,1437992302693,1.33561218406035
276,1437992303354,1.56996711767997
277,1437992305516,6.51694613727378
278,1437992306235,5.06878330616495
279,1437992306957,4.09295989562544
280,1437992307704,3.34906949507694
281,1437992309167,0.934835195290234
282,1437992311417,1.47069872704897
283,1437992312135,2.43694215405078
284,1437992312849,6.83150508017597
285,1437992313596,1.12292283210565
286,1437992314345,2.92345458003528
287,1437992315237,7.68182809668759
288,1437992315972,3.50569241283274
289,1437992316708,2.74408032443651
290,1437992317433,24.5507491812237
291,1437992318110,30.1025033762381
292,1437992318679,8.27335240420324
293,1437992319320,7.64689170759348
294,1437992320042,11.1758489337448
295,1437992320766,18.6585828621182
296,1437992321503,10.6425406259133
297,1437992322249,7.13266583429538
298,1437992322882,11.7562525161991
299,1437992323530,8.15851946997327
300,1437992324202,10.8698341654944
301,1437992324962,11.7971796843768
302,1437992325631,9.29715257103382
303,1437992326368,7.02348383655345
304,1437992327085,3.65107053933547
305,1437992327824,0.814195899891974
306,1437992328545,1.7451238982563
307,1437992329337,6.36671560970485
308,1437992330056,2.38584853826247
309,1437992330853,1.67956970303158
310,1437992331573,0.447648278101341
311,1437992332253,2.42141006035449
312,1437992333743,2.8396922681021
313,1437992334393,0.714927509260971
314,1437992335089,2.30186828810374
315,1437992335889,9.02163011628498
316,1437992336589,1.56031076355805
317,1437992337332,1.14289040328558
318,1437992338060,2.02198844174209
319,1437992338763,5.77803116881769
320,1437992339461,3.7207150454229
321,1437992340187,2.03251679410759
322,1437992340966,1.20629133907571
323,1437992341718,1.27550198126584
324,1437992342433,0.981036844851714
325,1437992343095,1.14289040328558
326,1437992344530,10.2385785394335
327,1437992346041,3.78481145048803
328,1437992346759,1.30499569258596
329,1437992347483,3.188920799116
330,1437992348187,0.746004070633405
331,1437992348912,1.41321999080248
332,1437992350717,10.795540749767
333,1437992351399,8.32490649384468
334,1437992352122,15.4186063037512
335,1437992352845,16.7634849335466
336,1437992353574,18.3506080181961
337,1437992354313,4.42681415869376
338,1437992355041,6.39407276503848
339,1437992355782,3.10738647544947
340,1437992356494,3.24546055701961
341,1437992357216,5.26090531966552
342,1437992357941,3.11328621392596
343,1437992358640,6.72372112788873
344,1437992359245,1.35136176160862
345,1437992359932,3.06522187984283
346,1437992361444,5.01723484840873
347,1437992362165,1.7451238982563
348,1437992362888,1.27550198126584
349,1437992363548,0.301663503271353
350,1437992364312,1.06619330770254
351,1437992365753,2.78991626002821
352,1437992366459,2.83184340324653
353,1437992367192,0.802223617309974
354,1437992367904,0.464465107435965
355,1437992368639,2.32326337045961
356,1437992369399,6.19907678816661
357,1437992370128,14.5828221067167
358,1437992370864,15.08020789622
359,1437992371592,10.7396085441639
360,1437992372358,11.1579409870851
361,1437992373066,9.63428464179419
362,1437992373771,12.2474820228334
363,1437992374493,21.6703287425952
364,1437992375231,17.6779492966049
365,1437992376004,16.1746872380066
366,1437992376733,26.4476140525416
367,1437992377474,24.1824597659931
368,1437992378228,16.2668755012283
369,1437992379003,16.2434161309237
370,1437992379687,9.28032022069404
371,1437992380431,10.6346225818724
372,1437992381244,4.90300611250295
373,1437992381951,2.48670180065009
374,1437992382677,7.97602948804316
375,1437992383381,20.0702860662154
376,1437992384102,3.80923003882224
377,1437992384830,2.16085454322913
378,1437992385598,2.4286362584735
379,1437992387064,0.416120513402239
380,1437992388484,0.312561735112722
381,1437992389199,1.47988528489956
382,1437992389923,2.38584853826247
383,1437992390714,2.19065179247934
384,1437992391451,0.312561735112722
385,1437992392199,1.43488057469135
386,1437992392925,1.63007732047447
387,1437992393666,2.19065179247934
388,1437992394399,1.82098367859908
389,1437992395131,2.72485311207377
390,1437992395889,4.89757761979178
391,1437992396640,19.9883525866538
392,1437992397380,11.0543252226573
393,1437992398108,1.7865840707136
394,1437992398818,2.90890291029223
395,1437992399503,10.6171648961692
396,1437992400232,4.98389166105947
397,1437992400988,7.08679322098217
398,1437992401711,2.38584853826247
399,1437992402424,11.3798127243044
400,1437992403188,1.43488057469135
401,1437992403888,2.6144377738781
402,1437992404615,0.714927509260971
403,1437992405352,1.32527798933974
404,1437992406077,1.08459562314124
405,1437992406785,2.56311774488857
406,1437992407509,0.0779801642210781
407,1437992408240,3.49301536416345
408,1437992408962,2.94082462809605
409,1437992409699,4.88687320947435
410,1437992410425,1.48650562793201
411,1437992411153,0.631808313837817
412,1437992411889,3.28519144859293
413,1437992412619,5.40849826597796
414,1437992413371,3.03460538836844
415,1437992414105,2.65469689410129
416,1437992414819,1.63007732047447
417,1437992415532,6.02836231725761
418,1437992416330,4.1075107897223
419,1437992417064,7.44900572834348
420,1437992417786,5.75905021996462
421,1437992418510,3.14040315969886
422,1437992419247,1.14289040328558
423,1437992420529,1.30499569258596
424,1437992421274,1.37829477431406
425,1437992421995,0.714927509260971
426,1437992422711,2.68216435200767
427,1437992423438,1.7451238982563
428,1437992424144,5.64540413344121
429,1437992424866,11.0315926560384
430,1437992425594,12.6437939908513
431,1437992426434,3.97973440504863
432,1437992427148,3.53325793783503
433,1437992427883,3.90894436661121
434,1437992428622,2.6144377738781
435,1437992430094,2.19065179247934
436,1437992430820,0.29114152786221
437,1437992431561,0.969166819583727
438,1437992432318,6.065797942139
439,1437992433033,11.3118392081584
440,1437992433761,3.02542928209103
441,1437992434477,5.26216917116635
442,1437992435190,3.3287488192088
443,1437992435924,7.12312899788102
444,1437992436667,6.95900881347033
445,1437992437403,5.08370111084188
446,1437992438131,1.87476644881471
447,1437992438863,2.20984713650834
448,1437992439607,7.27147103847488
449,1437992440194,2.34741533556504
450,1437992440862,4.98096803313936
451,1437992441521,3.09221928718311
452,1437992442136,2.69959423672893
453,1437992442815,3.13058304600382
454,1437992443525,0.470238380920739
455,1437992444144,1.52728452742625
456,1437992444808,2.46721578095072
457,1437992445528,1.57385777379791
458,1437992446278,4.78510212216565
459,1437992447013,1.08459562314124
460,1437992447742,2.45793102363898
461,1437992449160,1.5080253407374
462,1437992449887,4.52619694927333
463,1437992450693,2.58854836681813
464,1437992451432,1.14289040328558
465,1437992452182,1.52728452742625
466,1437992452918,2.62955681971124
467,1437992453684,5.7281413414779
468,1437992454432,0.519730763477847
469,1437992455180,0.891835653819054
470,1437992455889,2.07560521469752
471,1437992456638,1.54695812505132
472,1437992457397,4.00608125057187
473,1437992458129,6.48535650819445
474,1437992458857,5.30840925182723
475,1437992459568,16.9951823060798
476,1437992460309,13.2659746694712
477,1437992461040,13.6343682120147
478,1437992461771,3.0790345882476
479,1437992462486,3.52505778595996
480,1437992463202,1.05181864221557
481,1437992463907,1.06619330770254
482,1437992464651,1.70528029794061
483,1437992465395,0.607026871526848
484,1437992466120,6.57535447275274
485,1437992466847,16.4521132663597
486,1437992467569,8.44923617175312
487,1437992468319,10.5044243652937
488,1437992469070,3.94403891794222
489,1437992469812,1.03081285292561
490,1437992471278,0.657970651804447
491,1437992474081,1.22867766496779
492,1437992474785,1.87476644881471
493,1437992475502,1.03081285292561
494,1437992476228,1.7451238982563
495,1437992476946,0.997211690565175
496,1437992477679,3.5682775806356
497,1437992478429,3.17874891603657
498,1437992479155,4.99816592826228
499,1437992479861,3.00018358815217
500,1437992480471,0.0615451741936099
501,1437992481152,1.27550198126584
502,1437992481909,0.607026871526848
503,1437992483371,1.27550198126584
504,1437992484081,2.31745535309973
505,1437992484740,2.51846011624273
506,1437992485458,5.84576689822031
507,1437992486162,2.38584853826247
508,1437992487612,0.360352170052341
509,1437992490524,1.03081285292561
510,1437992491986,0.934835195290234
511,1437992493435,1.43488057469135
512,1437992494879,1.63007732047447
513,1437992496321,2.6144377738781
514,1437992498487,1.43488057469135
515,1437992499917,2.19065179247934
516,1437992500570,0.934835195290234
517,1437992501342,0.202959149761108
518,1437992502067,2.3626552277177
519,1437992502799,2.72910464893696
520,1437992503514,1.22301910474287
521,1437992504255,4.99352602984101
522,1437992504942,4.83040055650633
523,1437992505677,4.96990018282659
524,1437992506420,3.89294530215391
525,1437992507164,3.04666075413166
526,1437992507904,3.14279662613398
527,1437992508656,1.87476644881471
528,1437992509401,1.35136176160862
529,1437992510902,1.87476644881471
530,1437992511642,0.714927509260971
531,1437992512392,1.03081285292561
532,1437992514561,0.657970651804447
533,1437992515293,0.851715999867079
534,1437992516792,1.87476644881471
535,1437992518235,0.891835653819054
536,1437992518969,1.72785572231409
537,1437992519686,3.0321090843886
538,1437992520501,5.57423708526637
539,1437992521213,8.80568933815274
540,1437992521927,10.0072902059573
541,1437992522649,7.49942198872342
542,1437992523423,4.89330482001484
543,1437992524128,6.23085506484567
544,1437992524781,3.60561336269459
545,1437992525507,2.39503509611307
546,1437992526963,2.74408032443651
547,1437992527714,0.29114152786221
548,1437992529157,0.482047885986819
549,1437992529891,2.86321534175632
550,1437992530660,4.94454915530685
551,1437992531421,7.43897384571657
552,1437992532161,4.59370614666041
553,1437992532899,2.57941397788284
554,1437992533620,5.87544403624451
555,1437992534383,2.91587113340007
556,1437992535105,2.10335568443034
557,1437992536548,0.519730763477847
558,1437992537321,0.29114152786221
559,1437992538055,0.997211690565175
560,1437992538794,0.0136134581824429
561,1437992539519,1.03081285292561
562,1437992540813,0.607026871526848
563,1437992542317,0.657970651804447
564,1437992543029,3.13509636885832
565,1437992543731,15.896145071053
566,1437992544427,4.90180604485122
567,1437992545109,0.161498977303804
568,1437992545840,3.19122903448384
569,1437992546566,6.48388932942966
570,1437992547342,3.81818189354444
571,1437992548056,2.77141595561552
572,1437992550060,7.24631086873718
573,1437992550799,4.78781359117858
