id,attr_time,attr_db
1,1437992082716,11.5061753283235
2,1437992083459,7.07644416577137
3,1437992084166,9.20886761343385
4,1437992084863,8.73661098007926
5,1437992085621,6.45585452986599
6,1437992086328,3.75805656000101
7,1437992087060,3.8244635864162
8,1437992087783,21.6979471337583
9,1437992088522,63.8316632238447
10,1437992089249,62.5872748462254
11,1437992090010,46.0817497591408
12,1437992090750,53.089133769794
13,1437992091536,58.9255477088124
14,1437992092262,60.774037455874
15,1437992092980,43.1003310374203
16,1437992093725,35.8756064995861
17,1437992094449,36.3673358669915
18,1437992095163,26.761723576592
19,1437992095827,36.8264723506077
20,1437992096492,35.2128299081238
21,1437992097196,40.2862490667583
22,1437992097913,15.9719516101945
23,1437992098667,30.2090534829564
24,1437992099393,35.0372334978587
25,1437992100102,28.1397932913541
26,1437992100836,40.7892293122758
27,1437992101662,19.4980703904935
28,1437992102398,15.0026185910239
29,1437992103101,23.1326405991553
30,1437992103821,38.1174029846511
31,1437992104555,9.2237289462944
32,1437992105278,8.98079038504096
33,1437992106005,25.0860210200348
34,1437992106807,35.3940349468901
35,1437992107544,6.85561597968835
36,1437992108258,29.7910311006213
37,1437992108996,10.1750053500764
38,1437992109762,5.59942692257273
39,1437992110496,34.0879945772086
40,1437992111172,36.8053914081947
41,1437992111843,39.2733060031741
42,1437992112568,34.8181345271412
43,1437992113288,1.63007732047447
44,1437992114020,1.14289040328558
45,1437992114748,31.4609453339466
46,1437992115458,36.2340273339204
47,1437992116128,34.5157523307548
48,1437992116911,4.32464883915736
49,1437992117677,14.7790387826641
50,1437992118406,45.6232335749545
51,1437992119160,50.7131239286558
52,1437992119891,35.5802995902668
53,1437992120612,4.82157250858416
54,1437992121311,39.722087516142
55,1437992122047,7.02840377357658
56,1437992122777,5.27688148712813
57,1437992123510,4.32332039139243
58,1437992124229,43.8727996414639
59,1437992124974,25.5283505519154
60,1437992125839,4.98096803313936
61,1437992126587,20.6607259622485
62,1437992127321,32.8846778402893
63,1437992128049,22.5710443965078
64,1437992128767,37.3639542259764
65,1437992129494,21.776117431854
66,1437992130225,34.6487904785872
67,1437992130947,3.65107053933547
68,1437992131706,37.7342436494166
69,1437992132433,4.51016416144212
70,1437992133164,61.3098697937865
71,1437992133877,37.1054801994657
72,1437992134630,16.2919862712773
73,1437992135413,10.3214554011584
74,1437992136092,3.95447450947151
75,1437992136831,8.45705777483733
76,1437992137588,7.45204665134271
77,1437992138312,5.16943205272067
78,1437992139057,29.9346692026306
79,1437992139774,0.218455834760329
80,1437992140557,3.21370224142697
81,1437992142015,2.6144377738781
82,1437992142771,4.63398795692494
83,1437992143500,0.0867582242284899
84,1437992144213,37.2562178295157
85,1437992144980,17.1371695355845
86,1437992146465,1.87476644881471
87,1437992147192,1.20629133907571
88,1437992147924,2.34438836580517
89,1437992148670,0.934835195290234
90,1437992149464,1.47988528489956
91,1437992150194,0.252451532318215
92,1437992150927,4.01323118217848
93,1437992151667,3.95586987047021
94,1437992152394,2.30419445031316
95,1437992153116,24.1355197919555
96,1437992153835,23.7803013403398
97,1437992154595,15.1713028698198
98,1437992155343,17.4601594393556
99,1437992156126,35.3750353213777
100,1437992156810,2.81335997098923
101,1437992157529,29.8500116139733
102,1437992159001,47.8625839573243
103,1437992159745,28.8611748384633
104,1437992160493,38.5351526452553
105,1437992161293,41.3086008239841
106,1437992162025,44.4138324496052
107,1437992162743,38.6016653217883
108,1437992163481,35.5339782008329
109,1437992164201,27.3236678924314
110,1437992164939,14.2471610092456
111,1437992165697,1.0054525731929
112,1437992166424,20.9800433769748
113,1437992167158,33.2485476436554
114,1437992167884,36.1479103875259
115,1437992168632,38.7186808193656
116,1437992169368,26.6464297793647
117,1437992170105,25.6643142382731
118,1437992170809,35.5721583988904
119,1437992171536,11.8438493677931
120,1437992172303,0.312561735112722
121,1437992172905,0.7790303067652
122,1437992173633,0.561190935935153
123,1437992175712,3.40460859955158
124,1437992177133,2.50425587818259
125,1437992177862,3.81439636738381
126,1437992178633,9.37716540227187
127,1437992179364,1.7865840707136
128,1437992180092,6.15977011315042
129,1437992180803,8.55526944209346
130,1437992181534,7.24273965688399
131,1437992182275,5.42930688381351
132,1437992183000,3.52003740310909
133,1437992183761,5.75807229949094
134,1437992184493,1.71509486354764
135,1437992185210,0.519730763477847
136,1437992185988,1.56705970689531
137,1437992186743,1.77606209530446
138,1437992187480,0.912956368512905
139,1437992188890,1.03081285292561
140,1437992189659,1.03081285292561
141,1437992190390,2.6144377738781
142,1437992193133,2.02198844174209
143,1437992193863,1.16760134353172
144,1437992195333,36.961159299581
145,1437992196056,27.6211048384139
146,1437992196788,16.8233612386223
147,1437992197515,37.6381304804352
148,1437992198232,31.2375900424372
149,1437992198989,1.43488057469135
150,1437992199731,31.2935736665981
151,1437992200458,37.1718169484748
152,1437992201190,2.45793102363898
153,1437992201873,32.0118795218898
154,1437992202566,43.4681645318539
155,1437992203291,34.7610468223443
156,1437992204011,36.2298223067162
157,1437992204756,2.86852213259686
158,1437992205493,1.87476644881471
159,1437992206219,0.851715999867079
160,1437992206966,0.0959447820790864
161,1437992207721,0.851715999867079
162,1437992209904,0.934835195290234
163,1437992211385,1.35136176160862
164,1437992212792,2.98808203323319
165,1437992213447,4.14702337650242
166,1437992215039,4.74403932875123
167,1437992215767,4.10826936614147
168,1437992216562,9.46384528095692
169,1437992217213,4.0359539517252
170,1437992217873,4.31680753944807
171,1437992218631,5.21600529909233
172,1437992219336,1.79874067121173
173,1437992220060,2.90009815572372
174,1437992220779,7.93878174351444
175,1437992221572,1.52728452742625
176,1437992222302,0.13740495453639
177,1437992223030,19.7948011417958
178,1437992223775,4.0324750345766
179,1437992224475,6.64625747295644
180,1437992225147,35.1188765606555
181,1437992225865,5.57507020419256
182,1437992226663,7.03830693250327
183,1437992227921,1.03081285292561
184,1437992228655,3.8404972855519
185,1437992229370,18.2371730907132
186,1437992230106,13.0241564171671
187,1437992230840,6.04305812727234
188,1437992231694,9.53327242070204
189,1437992232407,7.74642488994265
190,1437992233124,4.03693701885749
191,1437992233748,18.8394196234253
192,1437992234431,34.8387993154282
193,1437992235158,6.96069768954761
194,1437992235881,19.8413854628733
195,1437992236713,6.03563857281698
196,1437992237387,3.71017391592761
197,1437992238048,7.25975590106234
198,1437992238771,16.0375975104689
199,1437992239491,2.38584853826247
200,1437992240218,4.66768461182106
201,1437992240961,5.23423382548474
202,1437992241790,6.27305144559784
203,1437992242528,5.81984409640797
204,1437992243262,9.1731336650222
205,1437992244010,5.29222687241323
206,1437992244732,4.40516607666336
207,1437992245446,3.04169880618862
208,1437992246183,0.685632744095496
209,1437992246903,0.561190935935153
210,1437992247656,0.714927509260971
211,1437992248402,2.31745535309973
212,1437992249116,6.54033067675747
213,1437992249841,1.70528029794061
214,1437992252051,1.27550198126584
215,1437992252803,1.87476644881471
216,1437992254161,1.14289040328558
217,1437992254892,1.35136176160862
218,1437992256437,0.981036844851714
219,1437992257904,1.7451238982563
220,1437992260744,0.7790303067652
221,1437992263721,1.03081285292561
222,1437992264464,0.607026871526848
223,1437992265206,3.25438563963603
224,1437992265959,2.05884517160434
225,1437992266712,10.4751528313114
226,1437992267434,6.05093107591426
227,1437992268166,2.48511692889347
228,1437992268902,0.826429549291888
229,1437992269661,4.75994834347591
230,1437992270381,15.0889711099413
231,1437992271107,17.313639055511
232,1437992271882,22.3004087011899
233,1437992272619,30.8158673624841
234,1437992273322,32.1514304706499
235,1437992274020,12.2108235959901
236,1437992274752,9.44149833755077
237,1437992275457,8.9738191901247
238,1437992276140,15.4245461548661
239,1437992276925,26.4582083990133
240,1437992277684,5.94994090564408
241,1437992278348,6.87611136421783
242,1437992279057,5.86842173039021
243,1437992279778,17.1285229255434
244,1437992280518,15.924317768948
245,1437992281256,9.89383656408019
246,1437992282003,5.52960938479557
247,1437992282743,29.4304354438166
248,1437992283487,21.1674489734416
249,1437992284225,14.2021654674079
250,1437992284959,2.11747621529972
251,1437992285707,0.312561735112722
252,1437992286442,3.61776996319271
253,1437992287186,4.91590770222458
254,1437992287909,6.48570225996888
255,1437992288673,6.82877752806121
256,1437992289400,3.63000361259262
257,1437992290144,2.70475979717738
258,1437992290862,1.03081285292561
259,1437992292319,0.519730763477847
260,1437992293052,2.72167234132027
261,1437992293788,1.99096737434733
262,1437992294355,3.55436902740258
263,1437992295071,1.93782218590683
264,1437992296382,1.10349854602749
265,1437992297098,0.851715999867079
266,1437992297818,1.06619330770254
267,1437992298510,1.7451238982563
268,1437992299242,2.6144377738781
269,1437992299969,3.01850549564385
270,1437992301425,2.57365887438386
271,1437992302148,1.48650562793201
272,1437992302844,0.657970651804447
273,1437992304328,2.19065179247934
274,1437992305054,1.14289040328558
275,1437992305791,5.45676998113258
276,1437992306503,3.78093511899981
277,1437992307237,0.981036844851714
278,1437992308712,1.03081285292561
279,1437992309444,1.08459562314124
280,1437992310177,7.33314199177733
281,1437992310894,0.387119185497583
282,1437992311740,3.63590335106911
283,1437992312484,1.31254207849771
284,1437992313206,6.67328056277252
285,1437992313948,13.8060318545465
286,1437992314620,2.0046513309201
287,1437992315323,3.69907373596571
288,1437992316043,8.59534581471428
289,1437992316751,1.89464263514958
290,1437992317485,13.894397131839
291,1437992318214,17.2864587493488
292,1437992318877,11.9322525102507
293,1437992319642,8.73683831735856
294,1437992320342,9.34087882480793
295,1437992321076,9.84447122333289
296,1437992321797,9.14997246668332
297,1437992322539,7.8054410543921
298,1437992323202,10.9874231887353
299,1437992323869,9.76949164136179
300,1437992324608,10.0394030232808
301,1437992325328,7.13001863877388
302,1437992326005,4.05299227229769
303,1437992326752,8.78279635960199
304,1437992327491,1.76564579708348
305,1437992328220,2.17070714620037
306,1437992328953,2.15108047283759
307,1437992329682,2.0574591991045
308,1437992330343,2.73369671335164
309,1437992331071,2.94642301026734
310,1437992331784,0.990693198973639
311,1437992332555,4.31351406136741
312,1437992333285,9.08728781908146
313,1437992334027,4.6741209882831
314,1437992334754,3.44533969242327
315,1437992335471,3.53743746329248
316,1437992336259,7.21473465185721
317,1437992337731,5.84943137584873
318,1437992338407,1.29645709308972
319,1437992339075,0.851715999867079
320,1437992339798,2.69959423672893
321,1437992340544,3.12551986332587
322,1437992341234,4.60418649179545
323,1437992341985,2.4395481815645
324,1437992342730,7.3464550189704
325,1437992343445,0.360352170052341
326,1437992344170,1.40048096680587
327,1437992344891,0.7790303067652
328,1437992345631,4.43909537620542
329,1437992347123,0.714927509260971
330,1437992347792,2.19065179247934
331,1437992348525,2.05386330187324
332,1437992349245,2.58983183776809
333,1437992350000,3.78186595780987
334,1437992350737,3.48946793113964
335,1437992351525,5.80311316614307
336,1437992352248,10.8886733731031
337,1437992352986,10.5672607320551
338,1437992353740,4.47633397402893
339,1437992354459,2.955941794385
340,1437992355028,6.9536907788847
341,1437992355700,4.27861248049147
342,1437992356482,1.56031076355805
343,1437992357179,2.69959423672893
344,1437992357903,4.53409824122005
345,1437992358616,4.31171964143787
346,1437992359279,0.851715999867079
347,1437992360007,3.67268620284634
348,1437992361654,1.76268889845474
349,1437992362390,1.87476644881471
350,1437992363108,1.03081285292561
351,1437992363851,1.27550198126584
352,1437992364611,0.714927509260971
353,1437992365327,2.05386330187324
354,1437992366033,0.7790303067652
355,1437992366691,1.49540966729511
356,1437992367376,1.7697997376878
357,1437992368088,0.714927509260971
358,1437992368806,2.86622032003852
359,1437992369556,3.25027446235513
360,1437992370277,4.81221939001055
361,1437992371032,10.8242860392299
362,1437992371839,5.72436731034106
363,1437992372585,7.45121118848071
364,1437992373307,10.3746222329271
365,1437992374048,16.1003755892074
366,1437992374771,17.1465290817757
367,1437992375462,15.9063233957443
368,1437992376202,20.4012093112091
369,1437992376944,27.2837727375597
370,1437992377676,19.0990537422165
371,1437992378386,17.4412131187883
372,1437992379077,17.3452995324593
373,1437992379697,6.18637028955717
374,1437992381160,7.2812306111117
375,1437992381836,4.91902287831395
376,1437992382567,4.00158399352333
377,1437992383278,15.6209552940822
378,1437992384017,5.81289300109399
379,1437992384747,3.36940737756023
380,1437992385466,1.56031076355805
381,1437992386168,2.4286362584735
382,1437992387580,0.714927509260971
383,1437992388320,3.40460859955158
384,1437992389042,0.561190935935153
385,1437992390486,1.03081285292561
386,1437992391208,0.695209249627949
387,1437992391946,0.29114152786221
388,1437992393422,2.74408032443651
389,1437992394147,2.6144377738781
390,1437992394881,3.21370224142697
391,1437992395584,1.93782218590683
392,1437992396271,1.67038314518098
393,1437992397002,23.3628727535528
394,1437992397729,2.02198844174209
395,1437992398469,0.644709749017878
396,1437992400512,1.97074410645008
397,1437992401252,1.66160508517358
398,1437992401988,2.02198844174209
399,1437992402728,1.7697997376878
400,1437992404167,1.52728452742625
401,1437992405655,2.49545112361408
402,1437992406381,1.95651660181434
403,1437992407111,1.31797585386295
404,1437992407834,1.76268889845474
405,1437992408564,2.45793102363898
406,1437992409301,2.33156155130865
407,1437992410022,4.02901314149049
408,1437992410746,2.71723056692633
409,1437992411501,3.89408398721559
410,1437992412216,5.37181018761736
411,1437992412953,2.58374555240875
412,1437992413720,4.54009523093826
413,1437992414450,3.11328621392596
414,1437992415177,1.09587600088005
415,1437992415764,24.3613405429548
416,1437992416436,14.1828555588517
417,1437992417185,2.96414570492458
418,1437992417904,1.36741701504883
419,1437992418644,1.82098367859908
420,1437992419383,0.685632744095496
421,1437992420114,0.7790303067652
422,1437992420832,1.92171731793442
423,1437992421578,0.7790303067652
424,1437992423001,0.202959149761108
425,1437992423719,4.57350253995959
426,1437992424433,7.93805618610147
427,1437992425238,11.567275443785
428,1437992425993,6.029868062193
429,1437992426868,2.48511692889347
430,1437992427607,1.36741701504883
431,1437992428349,1.57727539715031
432,1437992429719,1.7451238982563
433,1437992431261,1.96306087760937
434,1437992431985,4.05616635953859
435,1437992432718,9.80789569930337
436,1437992433428,8.19184188843482
437,1437992434148,3.43668948417634
438,1437992434893,2.72485311207377
439,1437992435604,6.50990721434682
440,1437992436277,4.99816592826228
441,1437992436976,4.20487783024345
442,1437992437699,1.27550198126584
443,1437992438402,2.87034173868669
444,1437992439131,3.58337035530723
445,1437992439798,3.1931439131596
446,1437992440475,3.95948393581593
447,1437992441216,4.19704388189904
448,1437992442017,3.76634801398758
449,1437992442756,2.6740324477151
450,1437992443463,1.93135224919199
451,1437992444178,2.92889345913477
452,1437992445658,0.802223617309974
453,1437992446397,1.98334148304267
454,1437992447064,1.27550198126584
455,1437992449236,0.202959149761108
456,1437992449976,8.01156728762695
457,1437992450715,1.75875952058267
458,1437992451454,3.68332415841743
459,1437992452176,0.7790303067652
460,1437992452915,2.4195148193175
461,1437992453666,2.07560521469752
462,1437992454379,0.657970651804447
463,1437992455115,2.15818113919507
464,1437992455874,0.607026871526848
465,1437992456500,2.3296289915859
466,1437992457180,6.28165172408243
467,1437992457901,7.00757222070182
468,1437992458653,5.73210611107252
469,1437992459402,6.51411569819196
470,1437992460110,18.0507058729862
471,1437992460766,1.51348644726
472,1437992461506,2.4094515137596
473,1437992462252,6.41111003758197
474,1437992463712,0.7790303067652
475,1437992465169,0.188348734813989
476,1437992465896,5.08168474134501
477,1437992466654,10.4642293448357
478,1437992467377,9.52352611919788
479,1437992468109,7.14725803817614
480,1437992468832,1.22867766496779
481,1437992470302,1.7451238982563
482,1437992471064,2.94642301026734
483,1437992473232,1.22867766496779
484,1437992473953,1.27550198126584
485,1437992474730,0.0538415021692703
486,1437992475536,0.714927509260971
487,1437992476247,0.271150979019676
488,1437992476838,2.19065179247934
489,1437992477523,2.28455421664694
490,1437992478238,4.55263803403923
491,1437992478962,4.58510868732351
492,1437992479708,0.607026871526848
493,1437992480429,0.607026871526848
494,1437992481096,0.7790303067652
495,1437992484720,2.19065179247934
496,1437992485379,1.61351699202987
497,1437992486128,0.0867582242284899
498,1437992486858,0.447648278101341
499,1437992487610,0.312561735112722
500,1437992491218,0.714927509260971
501,1437992491970,0.934835195290234
502,1437992492705,1.03081285292561
503,1437992493445,2.6144377738781
504,1437992494168,1.14289040328558
505,1437992495656,0.7790303067652
506,1437992496390,0.482047885986819
507,1437992497099,1.27550198126584
508,1437992498535,0.7790303067652
509,1437992499265,2.88589391766358
510,1437992500757,2.19065179247934
511,1437992501494,0.519730763477847
512,1437992502241,1.27550198126584
513,1437992502985,1.87476644881471
514,1437992503735,1.27550198126584
515,1437992504441,5.8567299390985
516,1437992505176,2.73181644716007
517,1437992505913,7.43901434154566
518,1437992506666,5.89750883859274
519,1437992507374,2.0574591991045
520,1437992508110,2.0046513309201
521,1437992508836,1.22867766496779
522,1437992509561,2.38584853826247
523,1437992510290,1.14289040328558
524,1437992511028,0.851715999867079
525,1437992512483,0.714927509260971
526,1437992513224,1.03081285292561
527,1437992514677,0.714927509260971
528,1437992515412,0.561190935935153
529,1437992516925,1.27550198126584
530,1437992517678,0.851715999867079
531,1437992518398,1.20629133907571
532,1437992519112,3.33187943363738
533,1437992519816,4.45799144523461
534,1437992520543,4.17631604855277
535,1437992521230,7.37700896984
536,1437992521915,7.57296643803126
537,1437992522665,8.85478995579244
538,1437992523384,6.9482537194563
539,1437992524100,3.51850157256171
540,1437992524816,8.40744677228775
541,1437992525541,1.75875952058267
542,1437992526336,1.63007732047447
543,1437992527768,0.934835195290234
544,1437992528497,1.52728452742625
545,1437992529251,1.14289040328558
546,1437992530005,0.607026871526848
547,1437992530731,3.49543146699907
548,1437992531553,6.75331544767632
549,1437992532268,2.19065179247934
550,1437992533010,2.6144377738781
551,1437992533750,2.26520924286421
552,1437992534494,3.06771746659698
553,1437992535226,0.447648278101341
554,1437992535955,0.891835653819054
555,1437992536798,0.997211690565175
556,1437992537461,1.7697997376878
557,1437992538134,2.75313756158469
558,1437992538850,1.46462680115468
559,1437992539581,0.7790303067652
560,1437992541052,1.27550198126584
561,1437992542509,3.857395908855
562,1437992543245,2.94642301026734
563,1437992543989,0.949862689761965
564,1437992544755,20.5714552788323
565,1437992545496,9.21024150320456
566,1437992546226,6.84369681101773
567,1437992547025,4.60213041659634
568,1437992547738,1.65203912645552
569,1437992548473,0.714927509260971
570,1437992549200,1.43488057469135
571,1437992549951,3.67753549466565
572,1437992550715,4.06545111685034
573,1437992551441,7.65428807963361
574,1437992552168,7.26097394757087
