id,attr_time,attr_db
1,1436285439659,54.9544728146897
2,1436285440315,53.2256557173534
3,1436285440947,55.0325728905451
4,1436285441589,56.0959324611481
5,1436285442211,54.2615802534273
6,1436285442776,65.1208517123374
7,1436285443436,55.9406792763924
8,1436285444102,57.9316062856255
9,1436285444772,60.6096318331548
10,1436285445420,55.5471461066752
11,1436285446092,55.2771730822128
12,1436285446762,55.8529929153279
13,1436285447400,58.416362350986
14,1436285448069,53.1428511397316
15,1436285448716,53.050474690702
16,1436285449330,49.2298965129182
17,1436285449906,54.5789673364861
18,1436285450580,56.412563778762
19,1436285451246,60.8770935835719
20,1436285451874,57.9435032795764
21,1436285452517,53.4707207397164
22,1436285453171,57.4717437902866
23,1436285453782,66.003197980829
24,1436285454456,72.5887600299411
25,1436285455101,60.0360946896089
26,1436285455783,66.2223648494055
27,1436285456451,59.6904708495447
28,1436285457102,71.1234148398105
29,1436285457751,53.0985743654417
30,1436285458431,62.830729388213
31,1436285459053,55.0306039287214
32,1436285459677,62.433321874854
33,1436285460280,54.0706894616218
34,1436285460915,57.5650649231144
35,1436285461580,62.3996435319853
36,1436285462171,56.4975428669846
37,1436285462797,62.0023873797711
38,1436285463438,56.6441105018179
39,1436285464104,56.0214566635965
40,1436285464804,56.8626417416953
41,1436285465461,56.9104708044152
42,1436285466122,66.3106929083403
43,1436285466800,68.1371803906361
44,1436285467426,57.5308958508393
45,1436285468084,55.0480744698842
46,1436285468737,53.7489470321847
47,1436285469356,55.5005697628211
48,1436285469996,54.4999874542641
49,1436285470609,70.3557290031935
50,1436285471246,54.3248583793425
51,1436285471908,57.3942035932677
52,1436285472550,55.6405627219655
53,1436285473204,55.433046686605
54,1436285473869,52.3986128077639
55,1436285474537,55.2356141730719
56,1436285475171,56.4850180935881
57,1436285475823,57.1178029041606
58,1436285476485,59.3976761432136
59,1436285477161,59.6081559009875
60,1436285477812,59.1289429377979
61,1436285478461,59.809223622125
62,1436285479063,60.0735967752674
63,1436285479677,55.9405739927972
64,1436285480357,56.1598254149506
65,1436285480942,63.490396561521
66,1436285481592,59.8975703566761
67,1436285482192,57.0863459555178
68,1436285482850,57.9873685163247
69,1436285483539,57.232109231117
70,1436285484187,55.520308670551
71,1436285484887,63.9016801506113
72,1436285485558,56.6295220390498
73,1436285486221,66.7157715123909
74,1436285486883,59.2374416033331
75,1436285487553,56.6350217728136
76,1436285488223,56.7800162718729
77,1436285488900,56.8667411968765
78,1436285489569,55.77774679424
79,1436285490262,54.6165317682899
80,1436285490889,52.397863551904
81,1436285491521,53.3068087664608
82,1436285492190,53.7709929426939
83,1436285492851,54.8905554500631
84,1436285493469,66.6243490171191
85,1436285494100,56.6607142825533
86,1436285494741,56.517122771563
87,1436285495418,58.921792128504
88,1436285496074,58.7185743766995
89,1436285496752,59.477671994453
90,1436285497409,57.74347610651
91,1436285498032,56.1384648310443
92,1436285498668,56.3823623431925
93,1436285499332,56.2730143394672
94,1436285500002,56.5649099203507
95,1436285500631,55.7468785192765
96,1436285501290,56.2491612554561
97,1436285501871,56.0756193794962
98,1436285502513,55.5846143184059
99,1436285503130,59.2594812204314
100,1436285503747,56.0000063527061
101,1436285504419,55.5297158619952
102,1436285505061,59.7548783556855
103,1436285505708,56.5624567395515
104,1436285506351,57.2576645413916
105,1436285507003,59.4812096457618
106,1436285507666,59.3231790410958
107,1436285508340,60.8115604320233
108,1436285508991,59.3847112120164
109,1436285509653,58.9667935831075
110,1436285510295,56.1694297204644
111,1436285510910,55.4198858629405
112,1436285511509,57.3924339898683
113,1436285512168,54.4634217560665
114,1436285512842,55.746969576512
115,1436285513471,54.659614299952
116,1436285514122,54.7470230355078
117,1436285514772,56.1599683561504
118,1436285515465,55.5354830749047
119,1436285516129,55.2896163763169
120,1436285516769,55.5193996534679
121,1436285517447,54.8550946288832
122,1436285518109,56.4997936404653
123,1436285518781,55.1222132239181
124,1436285519471,55.5548143191296
125,1436285520060,55.8897083415915
126,1436285520690,55.4592768485173
127,1436285521354,55.7647309157153
128,1436285522059,55.8640996473456
129,1436285522681,55.2227301477262
130,1436285523315,57.4363251044359
131,1436285523979,56.106938223003
132,1436285524640,55.6166975146751
133,1436285525358,57.3405541187828
134,1436285526035,58.4076064330137
135,1436285526691,56.9544222730494
136,1436285527336,57.2460921225559
137,1436285527990,58.0142713793163
138,1436285528633,57.737573917664
139,1436285529303,59.2270191187009
140,1436285529975,58.1275831588937
141,1436285530607,58.7479492065506
142,1436285531305,57.923067329169
143,1436285531932,59.403978130723
144,1436285532573,60.1641266614989
145,1436285533222,58.7967790789721
146,1436285533893,57.3761746324699
147,1436285534511,61.7883923663308
148,1436285535158,61.8518891094458
149,1436285535765,58.4346233500631
150,1436285536435,62.6596100806302
151,1436285537101,58.9273564898018
152,1436285537788,63.161200186478
153,1436285538430,61.8131845907284
154,1436285539087,59.0477361330498
155,1436285539716,59.5551955010667
156,1436285540387,57.4937718241691
157,1436285541053,55.5471571532769
158,1436285541673,54.8722890307128
159,1436285542353,54.912426603061
160,1436285543000,53.7418008529856
161,1436285543629,53.3133165057635
162,1436285544278,51.2849048191175
163,1436285544965,53.1065088807691
164,1436285545640,52.7980343003371
165,1436285546317,54.839443642261
166,1436285546988,52.2028991633789
167,1436285547659,51.2923689339878
168,1436285548332,53.9657134124541
169,1436285549001,53.565855516517
170,1436285549697,54.2175792075557
171,1436285550340,52.7592453874937
172,1436285551018,54.8612527266425
173,1436285551671,53.8225149840009
174,1436285552329,54.7326052489151
175,1436285552932,54.5413509351752
176,1436285553605,54.0788993026856
177,1436285554288,55.3381448006437
178,1436285554921,54.2817362786098
179,1436285555552,54.6895635717596
180,1436285556222,52.5307071399553
181,1436285556877,50.5951764642038
182,1436285557507,49.8549814522433
183,1436285558159,50.9716016922311
184,1436285558797,50.5906880450717
185,1436285559433,48.608531416075
186,1436285560061,49.382198154394
187,1436285560737,50.041624582368
188,1436285561396,49.7891662732601
189,1436285561988,48.9621250855051
190,1436285562647,50.5938548456295
191,1436285563324,48.1651446471391
192,1436285563941,53.5650770927083
193,1436285564617,48.4119070727154
194,1436285565227,48.1349468071848
195,1436285566627,50.3377438834225
196,1436285567284,49.1093231691666
197,1436285567949,51.1175460094756
198,1436285568648,64.2227693936241
199,1436285569304,54.6286051192176
200,1436285569969,55.3641438310984
201,1436285570650,56.5658217602907
202,1436285571329,62.7871328672861
203,1436285571996,56.5058721712986
204,1436285572643,66.6393970680205
205,1436285573267,69.1032708898498
206,1436285573907,62.0518732181186
207,1436285574542,58.7369410131156
208,1436285575181,60.5598132297592
209,1436285575842,61.8927263772716
210,1436285576503,60.9803331282601
211,1436285577156,61.690411535163
212,1436285577832,61.5524714717474
213,1436285578489,60.2453205116602
214,1436285579136,62.6387840777491
215,1436285579744,62.1153962187761
216,1436285580326,61.4985503105864
217,1436285581502,64.2390037364934
218,1436285582160,67.4410672684594
219,1436285582798,70.3836222281335
220,1436285583418,61.9632807817394
221,1436285584015,66.4587460472717
222,1436285584660,65.4243042765552
223,1436285585319,65.8578267012883
224,1436285585971,64.6769091568236
225,1436285586619,67.1242641980934
226,1436285587289,67.1528849913101
227,1436285587944,66.0494001353973
228,1436285588604,65.5661439242682
229,1436285589281,62.1788312331401
230,1436285589936,60.0417134221899
231,1436285590619,60.017089069413
232,1436285591286,58.8318769433249
233,1436285591957,63.0584676124323
234,1436285592616,57.1713334685034
235,1436285593278,57.7121883827835
236,1436285593928,60.9235423679538
237,1436285594558,70.6534347669976
238,1436285595209,63.0209429420151
239,1436285595854,57.8902292579416
240,1436285596482,57.7216800111043
241,1436285597148,58.4950653946873
242,1436285597819,58.6368061835783
243,1436285598492,58.8205708828861
244,1436285599164,60.0653431416038
245,1436285599779,59.1466169021711
246,1436285600403,59.884054883733
247,1436285601066,57.7771059055848
248,1436285601736,58.6772787634012
249,1436285602371,57.9462980036469
250,1436285602953,57.3142165502368
251,1436285604031,57.848838519156
252,1436285604693,59.4242992465655
253,1436285605361,59.2177128154169
254,1436285606045,58.1229384437117
255,1436285606675,56.6535259221341
256,1436285607383,59.3526788002651
257,1436285608049,58.9660722367668
258,1436285608701,59.4126465124869
259,1436285609374,58.8575484711057
260,1436285610046,60.1903293743615
261,1436285610723,64.9495867673767
262,1436285611366,66.3874143438318
263,1436285612030,62.1775913134954
264,1436285612676,57.3290649152358
265,1436285613315,59.643953547534
266,1436285613931,59.9935686669852
267,1436285614586,64.79290844987
268,1436285615227,59.4360770442454
269,1436285615806,73.3348819972395
270,1436285616842,58.4697012952066
271,1436285617493,63.843395761343
272,1436285618173,63.3591542243071
273,1436285618832,64.7624403725275
274,1436285619437,61.1930132652707
275,1436285620012,60.1926160998771
276,1436285620672,60.0005829647104
277,1436285621367,63.0643625169628
278,1436285622048,59.4870845157525
279,1436285622724,65.7916999885064
280,1436285623362,59.3980138307716
281,1436285624010,58.9540467310892
282,1436285624652,58.0050683926959
283,1436285625321,68.9841289241771
284,1436285625968,58.9317510218362
285,1436285626609,65.2486116617548
286,1436285627299,61.2647616161188
287,1436285627969,58.8699757759279
288,1436285628632,65.4584673656204
289,1436285629287,71.6693913854153
290,1436285629972,58.0144145433805
291,1436285630618,57.4990274914046
292,1436285631283,62.8234836914908
293,1436285631940,65.2665982536109
294,1436285632568,57.6942234240998
295,1436285633208,66.8789604285898
296,1436285633811,59.0056486449177
297,1436285634481,64.2895640777092
298,1436285635096,62.617419438814
299,1436285635724,64.9664648604809
300,1436285636395,65.8637148194526
301,1436285637042,59.2122196721786
302,1436285637682,61.1173083884985
303,1436285638330,61.2671882024396
304,1436285638994,62.3848496035142
305,1436285639639,61.190660223943
306,1436285640315,60.7152546912609
307,1436285640974,60.9932500412172
308,1436285641650,61.4808000044015
309,1436285642303,61.197003763613
310,1436285642944,58.9684371981154
311,1436285643604,60.1484476851092
312,1436285644265,73.5328393158566
313,1436285644930,63.0190374970918
314,1436285645550,72.0831959637689
315,1436285646167,69.0074053965713
316,1436285646805,56.4995680517181
317,1436285647488,58.7866524798995
318,1436285648142,56.7129101550807
319,1436285648824,57.155172482063
320,1436285649486,59.1905774866911
321,1436285650142,55.0768838424638
322,1436285650839,48.8485595482108
323,1436285651510,49.6729984448736
324,1436285652181,49.1495245066717
325,1436285652842,47.3214148507189
326,1436285653497,47.9023064480477
327,1436285654158,49.3329551013783
328,1436285654846,49.3402337599773
329,1436285655432,48.1199404211257
330,1436285656044,48.8562378201261
331,1436285656677,55.2422755993845
332,1436285657307,59.1430483704742
333,1436285657961,56.3474563552298
334,1436285658603,57.1129531102027
335,1436285659284,54.2020834013659
336,1436285659948,49.8233157756418
337,1436285660613,49.2386610367793
338,1436285661265,53.7580513078913
339,1436285661938,50.4333116657568
340,1436285662625,72.6361054998912
341,1436285663287,48.7913405381238
342,1436285663928,47.4499490506425
343,1436285664530,48.3226631437675
344,1436285665172,48.6288233694124
345,1436285665815,47.539053515021
346,1436285666472,47.7295886325465
347,1436285667120,47.6740934656793
348,1436285667781,46.6455780460836
349,1436285668435,45.6884737897978
350,1436285669098,54.8061603978623
351,1436285669740,50.9124522482429
352,1436285670411,47.606668029401
353,1436285671063,46.8041056047138
354,1436285671742,54.632125003507
355,1436285672392,59.8520894891823
356,1436285673044,50.0535508001394
357,1436285673721,46.7910863995858
358,1436285674337,49.6177225532916
359,1436285674943,54.2397985207907
360,1436285675538,52.0212090794747
361,1436285676150,51.0091523868596
362,1436285676794,59.9255057518218
363,1436285677453,45.9804929943396
364,1436285678132,47.8457550565901
365,1436285678774,44.6498203541166
366,1436285679447,46.7867049984784
367,1436285680103,45.61247445038
368,1436285680793,47.1443777065544
369,1436285681450,50.6417663253919
370,1436285682132,71.7170379235131
371,1436285682822,54.636608136462
372,1436285683498,45.9825428512022
373,1436285684145,47.6296359088991
374,1436285684849,48.7581931971884
375,1436285685437,46.9783628604877
376,1436285686051,47.9764860881775
377,1436285686721,46.7798956284666
378,1436285687432,47.0019302891474
379,1436285688101,47.8813954628639
380,1436285688767,49.9556846195337
381,1436285689456,53.0145772173043
382,1436285690101,49.9489795432951
383,1436285690782,49.4531021978742
384,1436285691440,50.483584894972
385,1436285692096,50.1519311652328
386,1436285692746,59.0429917180268
387,1436285693409,55.4578557336739
388,1436285694080,57.77196940075
389,1436285694780,57.8911524747844
390,1436285695418,56.2831766764292
391,1436285696077,71.2822858366377
392,1436285696691,64.0112361998688
393,1436285697349,57.4964781776563
394,1436285698000,56.6488809220245
395,1436285698660,62.2288692677799
396,1436285699316,59.3461775284156
397,1436285700000,57.1309405962168
398,1436285700685,64.741492491627
399,1436285701320,58.9084109623083
400,1436285701985,62.1888796082735
401,1436285702661,57.0248383147522
402,1436285703341,74.7107489888839
403,1436285703984,71.4597736597347
404,1436285704675,58.4613938293888
405,1436285705344,56.3837867395274
406,1436285705987,54.7653784919682
407,1436285706596,56.8230935294082
408,1436285707249,60.0933871631937
409,1436285707925,63.7625527832116
410,1436285708577,65.323459090944
411,1436285709175,62.8078390207143
412,1436285709802,55.4114834507868
413,1436285710476,52.0424772339099
414,1436285711148,51.0116825583236
415,1436285711821,49.5267624936891
416,1436285712530,51.1240308870742
417,1436285713183,60.2260131043259
418,1436285713840,49.7342635053596
419,1436285714504,54.8519467683848
420,1436285715194,56.8219850210961
421,1436285715825,50.8986654061037
422,1436285716463,54.6945198312623
423,1436285717113,56.9019869725943
424,1436285717791,63.6479729335529
425,1436285718428,73.672244372317
426,1436285719072,72.7699929837578
427,1436285719662,57.2292041838938
428,1436285720284,60.1518077048068
429,1436285720881,59.2460094798795
430,1436285721507,55.1021080975408
431,1436285722165,54.9052758992453
432,1436285722811,60.5514728014773
433,1436285723436,57.9585184978373
434,1436285724085,66.6794653643644
435,1436285724709,57.2220919681921
436,1436285725311,59.1882630655457
437,1436285725930,55.4052815162217
438,1436285726568,56.8900630051957
439,1436285727231,55.2100680532121
440,1436285727912,55.0790450431082
441,1436285728533,57.9279604506247
442,1436285729128,52.837167350866
443,1436285729760,54.4189873805383
444,1436285730414,55.0450640720587
445,1436285731070,68.1314812793841
446,1436285731730,62.2029758784962
447,1436285732419,58.3838276950354
448,1436285733099,63.6645383022158
449,1436285733756,57.4055444818648
450,1436285734420,63.2233107227124
451,1436285735040,60.0010446653014
452,1436285735624,56.7701799040783
453,1436285736242,58.2312244450006
454,1436285736900,59.2076203686849
455,1436285737557,57.576680422437
456,1436285738161,61.328329852612
457,1436285738767,59.1527293864466
458,1436285739435,63.0749244273551
459,1436285740035,62.0039345615043
460,1436285740642,60.6207670979588
461,1436285741264,60.6297244675639
462,1436285741915,62.591687240775
463,1436285742582,59.9386306093912
464,1436285743230,60.0022063931603
465,1436285743859,56.4615334161427
466,1436285744539,60.1289346025095
467,1436285745178,56.3904170723077
468,1436285745865,54.4085626929999
469,1436285746542,58.2820280242815
470,1436285747211,56.5694273420779
471,1436285747890,54.6484814831993
472,1436285748529,52.5529728736792
473,1436285749188,56.6731872148213
474,1436285749803,54.8188972336417
475,1436285750409,53.6826250008107
476,1436285751048,50.9316783819461
477,1436285751665,51.9171571620074
478,1436285752311,52.0112076902343
479,1436285752960,47.47002557241
480,1436285753624,53.0734293339051
481,1436285754280,55.1193029735144
482,1436285754938,53.779569553112
483,1436285755540,55.3955841743287
484,1436285756110,53.8306683744713
485,1436285756765,58.7123927798317
486,1436285757430,59.1202683688344
487,1436285758082,60.5625634564118
488,1436285758704,57.5246971444075
489,1436285759360,56.118821618717
490,1436285760018,54.1720387093764
491,1436285760627,47.9916663443829
492,1436285761282,54.3296243169798
493,1436285761950,54.6670602363038
494,1436285762606,51.9059833695601
495,1436285763260,51.3334720209054
496,1436285763920,51.947604218405
497,1436285764597,49.339093501214
498,1436285765218,49.4551531340842
499,1436285765841,50.9622671407046
500,1436285766479,52.8028269429029
501,1436285767124,52.3990959271373
502,1436285767786,54.7014681149995
503,1436285768384,56.1341276501615
504,1436285769054,57.1638583023361
505,1436285769672,58.5331048861052
506,1436285770887,59.9983973974632
507,1436285771547,58.4596143171407
508,1436285772184,58.0134057521093
509,1436285772858,57.0375797604378
510,1436285773520,54.5678283873475
511,1436285774176,53.9689347766571
512,1436285774871,57.7214827005227
513,1436285775553,50.3871747441593
514,1436285776163,49.993892715597
515,1436285776811,51.1003788677351
516,1436285777451,54.5423894220843
517,1436285778113,51.129780908628
518,1436285778714,51.5825442048912
519,1436285779361,51.4710750714005
520,1436285780016,50.4393625746821
521,1436285780662,50.1382065479013
522,1436285781321,53.5469053781442
523,1436285781975,55.3759670244976
524,1436285782679,54.4713193950874
525,1436285783334,52.4884831856555
526,1436285783994,56.9689696461977
527,1436285784706,55.5584680209385
528,1436285785378,55.3646942416812
529,1436285786025,56.4173313239992
530,1436285786689,59.4083301862759
531,1436285787350,56.8971753611959
532,1436285787960,56.2559276996069
533,1436285788544,56.6303245777504
534,1436285789540,56.4752163105805
535,1436285790145,56.9634290828177
536,1436285790738,56.9083802316609
537,1436285791394,58.5434947256061
538,1436285792052,60.1927586260073
539,1436285792708,56.5351054980742
540,1436285793381,57.6929760803982
541,1436285794040,57.3141430263904
542,1436285794657,55.1033899086546
543,1436285795330,56.6396444510995
544,1436285796003,58.5422029550756
545,1436285796663,57.6944949248878
546,1436285797293,56.8881184558826
547,1436285797882,55.9478085197571
548,1436285798501,56.6281623550718
549,1436285799150,57.3940757231543
550,1436285799779,56.9738079526314
551,1436285800431,55.3171865008038
552,1436285801069,56.8528492331379
553,1436285801672,56.0883771315884
554,1436285802347,57.4484404451147
555,1436285802977,55.7857787477732
556,1436285803636,58.1646034637546
557,1436285804308,55.8211070869178
558,1436285804999,55.7147010724003
559,1436285805666,56.858590679827
560,1436285806357,55.424727861481
561,1436285807017,55.06614010924
562,1436285807672,54.0463312911883
563,1436285808297,54.5212023885144
564,1436285808937,55.1110755546559
565,1436285809562,55.7709872068217
566,1436285810213,57.2356749527597
567,1436285810878,56.5630826120768
568,1436285811518,56.8789170170039
569,1436285812160,55.823760962286
570,1436285812811,54.0316036299338
571,1436285813492,56.0682871287039
572,1436285814137,55.1187610194809
573,1436285814812,53.9645758500473
574,1436285815489,56.6852191455943
575,1436285816149,55.5233108425945
576,1436285816807,55.9919484706597
