id,attr_time,attr_db
1,1436285439933,48.7539053204681
2,1436285440646,47.911409413557
3,1436285441353,46.8100549131743
4,1436285442063,48.7472728175403
5,1436285442840,54.7294650946676
6,1436285443469,46.1445312941578
7,1436285444166,54.0547558299033
8,1436285444910,50.862467255584
9,1436285445637,46.6924958775852
10,1436285446358,40.8186715603296
11,1436285446991,46.0444032787374
12,1436285447732,44.2035929286937
13,1436285448447,45.6819608127683
14,1436285449172,62.1950297247668
15,1436285449912,46.979769734366
16,1436285450713,47.2414287290278
17,1436285451435,56.4303165877683
18,1436285452169,46.9659140435773
19,1436285452891,49.1072695246037
20,1436285453594,43.326114438006
21,1436285454280,53.7340002115198
22,1436285454992,43.2701400660277
23,1436285455732,68.9695498729839
24,1436285456505,56.4033345144714
25,1436285457169,48.9710268526717
26,1436285457851,52.1614832831048
27,1436285458565,50.1763719828207
28,1436285459307,59.7209129685455
29,1436285460040,54.0074925543402
30,1436285460760,50.353467864932
31,1436285461538,52.4323244720682
32,1436285462185,55.2541820539237
33,1436285462872,65.2445637196502
34,1436285463600,50.9829645348173
35,1436285464333,48.7724082158308
36,1436285465056,51.7087097576554
37,1436285465767,52.0490124057464
38,1436285466567,69.6183690617727
39,1436285467281,48.4205111766359
40,1436285468000,52.3820032914162
41,1436285468717,50.6011896611716
42,1436285469413,48.4787933008104
43,1436285470155,49.2761201109347
44,1436285470898,61.0268358828722
45,1436285471632,47.3303314471477
46,1436285472347,54.6205478214128
47,1436285473123,46.6638160756383
48,1436285473942,46.9069637934193
49,1436285475718,55.2257975796745
50,1436285476388,57.7363599838079
51,1436285477133,57.7174675139718
52,1436285477850,60.863917351515
53,1436285478538,56.8955781520293
54,1436285479247,58.0953821595998
55,1436285479966,57.8432748340442
56,1436285480703,54.7549333464348
57,1436285481433,58.2543066665577
58,1436285482161,57.2838955278154
59,1436285482925,51.5139092687864
60,1436285483578,51.5900476360914
61,1436285484301,52.4590594897539
62,1436285485026,64.6081642651046
63,1436285485771,50.9505546772578
64,1436285486568,59.4446764008092
65,1436285487308,57.6772924213178
66,1436285488035,50.6211814999841
67,1436285488748,49.8694839753008
68,1436285490373,49.7292534693097
69,1436285491094,47.7102504911545
70,1436285491823,46.5514793381737
71,1436285492546,47.4334619344652
72,1436285493261,67.9635085233116
73,1436285493968,48.3712768247018
74,1436285494627,50.7413233499857
75,1436285495327,55.1708025119115
76,1436285496036,52.9175731909684
77,1436285496829,55.5413857376283
78,1436285497551,50.8214323221004
79,1436285498234,47.150292976174
80,1436285498908,47.0477176571488
81,1436285499623,52.8303591966992
82,1436285501488,45.27102251765
83,1436285502213,48.400537709501
84,1436285502935,45.5074754983173
85,1436285503643,48.4986597772017
86,1436285504385,47.737451607636
87,1436285505104,48.1292426587115
88,1436285505746,51.8604385250488
89,1436285506450,47.2950171973796
90,1436285507168,51.35344498428
91,1436285507925,51.3722955619043
92,1436285508689,56.6098523449771
93,1436285509449,53.1993809033301
94,1436285510121,52.0912808916174
95,1436285510837,49.1838398718145
96,1436285511570,50.6788463842995
97,1436285512302,53.3076223182898
98,1436285512996,47.0992384110066
99,1436285514467,49.2416479654282
100,1436285515190,45.0043806263994
101,1436285515898,46.5738027009774
102,1436285516604,49.9056545151039
103,1436285517261,49.2589489654589
104,1436285517912,44.6227049772739
105,1436285518620,49.2985557095272
106,1436285519333,46.4381498617241
107,1436285520450,46.9390724162934
108,1436285521111,47.0130318093034
109,1436285521802,48.7917453314448
110,1436285522528,50.9465369602463
111,1436285523233,52.4580930766842
112,1436285523953,50.1227172639923
113,1436285524681,51.4365270371425
114,1436285525402,54.6524074605758
115,1436285526138,51.948803008009
116,1436285526929,59.2183875916939
117,1436285527637,58.0360264242559
118,1436285528359,56.1587296066055
119,1436285529063,60.633319643671
120,1436285529805,59.4221024757078
121,1436285530509,55.1157666552731
122,1436285531195,54.6669211430155
123,1436285531921,55.1161916901372
124,1436285532611,59.6034001031545
125,1436285533267,59.4082355400021
126,1436285533980,58.3149683734692
127,1436285534650,58.8561923150015
128,1436285535292,57.2624328698317
129,1436285535980,56.900523284324
130,1436285536699,60.451681835937
131,1436285537420,55.3516175819209
132,1436285538123,57.3909174022612
133,1436285538794,59.6219916974672
134,1436285539494,57.8610286388511
135,1436285540226,57.5052302811363
136,1436285541014,49.075852866013
137,1436285541730,46.9060719638619
138,1436285542451,46.946001041262
139,1436285543181,46.2512907230064
140,1436285543900,45.800794922996
141,1436285544572,43.5033895951396
142,1436285545317,44.2175171298317
143,1436285546058,42.016404932735
144,1436285546830,45.277227391695
145,1436285547500,45.4480474147611
146,1436285548210,45.519258849364
147,1436285548937,45.1388606992978
148,1436285549622,45.8478150111575
149,1436285550278,44.9238110156341
150,1436285551023,43.6462876947398
151,1436285551787,43.5319502168261
152,1436285552528,45.9066357601076
153,1436285553234,47.6583078898388
154,1436285553921,45.1073401215461
155,1436285554556,45.2061430882967
156,1436285555217,46.2980377911808
157,1436285555956,45.282469221685
158,1436285556664,43.0099534528419
159,1436285557374,41.8739014073363
160,1436285558103,42.4404746422057
161,1436285558852,44.9467043332668
162,1436285559566,43.8870754779251
163,1436285560285,42.4310632733863
164,1436285560989,43.2823639920789
165,1436285561736,43.1602282662593
166,1436285562482,46.2280948010654
167,1436285563117,45.3214998244302
168,1436285563803,45.0380373735011
169,1436285564572,46.8864170281749
170,1436285565296,45.635956340145
171,1436285566048,43.7588754933219
172,1436285566806,43.380901165442
173,1436285567523,45.8716736098905
174,1436285568208,43.3204165801507
175,1436285569066,46.7003806502761
176,1436285569705,46.6693560900181
177,1436285570296,52.5278912739486
178,1436285570879,53.2102123540899
179,1436285571454,64.2405229793084
180,1436285572020,54.1677121636969
181,1436285572634,70.2621231370008
182,1436285573413,57.9634342090118
183,1436285574249,58.4819509078242
184,1436285574810,53.0031333570911
185,1436285575372,54.7451706153626
186,1436285575953,62.5525486481424
187,1436285576506,53.6719274032006
188,1436285577625,52.5272272041315
189,1436285578313,59.9869196238644
190,1436285579041,52.2396214734383
191,1436285579774,57.9783295228033
192,1436285580467,56.9319122886348
193,1436285581038,62.0342764689842
194,1436285581580,54.4574653254616
195,1436285582166,58.0620319977752
196,1436285582858,69.6185468285698
197,1436285583595,54.2338271284192
198,1436285584260,57.0878679463169
199,1436285584838,58.9576137583174
200,1436285585389,56.2778294951769
201,1436285585941,56.6011031217656
202,1436285586506,54.2826254858851
203,1436285587498,59.1777016364413
204,1436285588236,60.8458235112974
205,1436285588959,55.0435488594536
206,1436285589638,55.7402206051773
207,1436285590374,51.491408293837
208,1436285591050,46.7919576301291
209,1436285591637,46.1754058034262
210,1436285592183,50.7702058077418
211,1436285592739,46.1904880187742
212,1436285593359,45.3095609103434
213,1436285594052,53.7874121139703
214,1436285594719,69.6429283457324
215,1436285595271,54.1757456791704
216,1436285595825,46.4440490456619
217,1436285596379,47.7696316933313
218,1436285596919,47.511115323495
219,1436285598257,49.4944357777094
220,1436285598993,48.1701378537354
221,1436285599695,52.3904816522741
222,1436285600371,51.1477208639492
223,1436285601094,49.0597365466772
224,1436285601835,49.6519242955487
225,1436285602569,47.350267974285
226,1436285603276,47.4425654356874
227,1436285604020,47.4259572647867
228,1436285604688,55.7606034967247
229,1436285605391,46.8334234479466
230,1436285606172,46.92248534982
231,1436285606886,48.1874699835168
232,1436285607659,46.0600677569455
233,1436285608353,46.3378949293393
234,1436285609075,70.9566629572193
235,1436285609783,48.3283114276272
236,1436285610512,49.5384723480777
237,1436285611225,54.0433274848002
238,1436285611963,47.8830473816473
239,1436285612695,47.1972448764105
240,1436285613419,49.6770402696589
241,1436285614145,53.0504058271332
242,1436285614828,54.0370456598788
243,1436285615423,51.2452927361978
244,1436285616144,67.285424794147
245,1436285616904,52.7427647167132
246,1436285617633,58.6048671987927
247,1436285618306,62.1564940617674
248,1436285618979,55.3096441901815
249,1436285619643,55.949306243487
250,1436285620317,47.5303136123716
251,1436285621033,50.9030160649034
252,1436285621750,53.4048257604141
253,1436285622494,53.24890061241
254,1436285623220,48.1316410399406
255,1436285623955,54.7574594419558
256,1436285624672,63.2320217446363
257,1436285625310,47.2844568104854
258,1436285626021,57.4833257593156
259,1436285626731,49.4262800488754
260,1436285627486,55.4619684802376
261,1436285628212,48.902180185409
262,1436285628931,69.1135156891796
263,1436285629705,64.3401309619068
264,1436285630373,50.6815571078826
265,1436285631096,52.2032762540381
266,1436285631860,53.6741284839421
267,1436285632579,52.6415285207849
268,1436285633299,58.4170342860351
269,1436285634028,56.4703018521589
270,1436285634767,60.6715246807064
271,1436285635426,60.4671646299813
272,1436285636127,57.497437649433
273,1436285636882,57.105606776013
274,1436285637613,56.2397437741056
275,1436285638341,59.330620892549
276,1436285639058,60.5145017753075
277,1436285639778,54.0416622749012
278,1436285640473,59.2849067015791
279,1436285641218,54.8475462867614
280,1436285641940,63.2912348385492
281,1436285642667,56.4427445787568
282,1436285643415,58.1346730640133
283,1436285644133,58.2201600143085
284,1436285644846,64.9483117460614
285,1436285645594,70.1459991005938
286,1436285646318,68.5178880669737
287,1436285647035,48.6030642665359
288,1436285647772,52.8864328189698
289,1436285648481,50.4607383318145
290,1436285649215,55.018461211863
291,1436285649927,52.6523472371839
292,1436285650678,48.3235760814031
293,1436285651415,44.982395821005
294,1436285652130,44.4899774623252
295,1436285652872,42.2475885055343
296,1436285653597,44.0410072748478
297,1436285654343,45.9678751145439
298,1436285655146,46.4179512784108
299,1436285655907,45.2329273998416
300,1436285656482,46.6594025601527
301,1436285657154,54.6487287854875
302,1436285657902,48.6517077682779
303,1436285658633,57.5889951330028
304,1436285659377,58.2351481922964
305,1436285660113,47.1581096164702
306,1436285660804,48.4013831128244
307,1436285661567,53.0431505901625
308,1436285662279,47.1707849745763
309,1436285662973,52.2406264240593
310,1436285663684,44.0597139932248
311,1436285664414,45.4215431173178
312,1436285665098,43.8166454435749
313,1436285665773,44.7162952553624
314,1436285666500,47.7987677216953
315,1436285667240,43.3529219884449
316,1436285667989,45.9388914606524
317,1436285668678,42.0999384452424
318,1436285669352,46.7248386585012
319,1436285670100,43.5497251824346
320,1436285670812,44.325055799716
321,1436285671541,44.600305942372
322,1436285672244,50.2056747763117
323,1436285672984,45.9697889060332
324,1436285673697,44.0164419385856
325,1436285674433,45.558966828224
326,1436285675162,50.9948833698874
327,1436285675913,52.2968736911374
328,1436285676546,44.7156118306929
329,1436285677275,48.4124766349269
330,1436285677994,44.3144987670192
331,1436285678692,43.6389709626105
332,1436285679987,47.1835373555324
333,1436285680698,44.8221194868843
334,1436285681355,46.7936207355369
335,1436285682065,48.5617480789424
336,1436285682813,44.98031428432
337,1436285683515,46.8457852143223
338,1436285684231,46.2979105826858
339,1436285684961,44.5288840390288
340,1436285685718,57.0700104076427
341,1436285686368,44.0796080928668
342,1436285687063,51.761069895166
343,1436285687836,46.0122970014689
344,1436285688563,48.2906187099431
345,1436285689278,53.1012004545205
346,1436285690137,44.9705132362796
347,1436285690882,47.8623610796903
348,1436285691635,49.3193391175673
349,1436285692373,47.814470687938
350,1436285693103,56.7855310824095
351,1436285693832,53.3615183801834
352,1436285694557,58.2223786789168
353,1436285695277,47.5155107570096
354,1436285696068,57.2082802368723
355,1436285696740,55.4360789325724
356,1436285697347,64.636595173913
357,1436285698668,55.7060610557849
358,1436285699385,56.7014175222634
359,1436285700130,54.6030671196124
360,1436285700793,50.4800237654325
361,1436285701569,55.8589844019631
362,1436285702245,59.4729615334756
363,1436285702860,53.2916304796513
364,1436285703570,71.6038406092599
365,1436285704322,63.2227729891044
366,1436285705073,67.3960172357118
367,1436285705798,51.2021217517058
368,1436285706564,52.2376489129863
369,1436285707267,55.7461472939414
370,1436285708009,54.9957620437049
371,1436285708704,65.2320424184354
372,1436285709436,68.0315668656604
373,1436285710165,46.9640022287541
374,1436285710922,48.0546912668414
375,1436285711677,48.2817156326548
376,1436285712360,47.2743923040767
377,1436285713078,54.2335479162099
378,1436285713801,47.5913110047636
379,1436285714536,46.1502398084961
380,1436285715283,53.1410134425328
381,1436285715982,46.8154574938253
382,1436285718203,67.2086238568489
383,1436285718869,57.4588872280475
384,1436285719642,73.3230719218302
385,1436285720259,60.2248894248709
386,1436285720915,66.9949994932745
387,1436285721536,55.6248532972691
388,1436285722118,42.4548052033582
389,1436285722683,45.2776207518162
390,1436285723273,50.5864882627051
391,1436285723972,47.3062295258197
392,1436285724686,46.933658708054
393,1436285725462,48.3315776842606
394,1436285726165,46.4879181766277
395,1436285726747,47.9140316785902
396,1436285727301,45.0684314149414
397,1436285727888,52.3662665790918
398,1436285728468,49.6852399466521
399,1436285729844,44.442392333269
400,1436285730493,44.3414066344894
401,1436285731219,57.9541251801999
402,1436285731936,53.6166635907929
403,1436285732502,55.0136559405418
404,1436285733121,71.8157582306204
405,1436285734013,72.8582993048322
406,1436285734615,65.1998253698984
407,1436285735330,57.5023057274873
408,1436285736064,52.8491628186437
409,1436285736645,54.3930261688208
410,1436285737225,58.9778717985555
411,1436285737815,57.24770402708
412,1436285738413,58.8431848169444
413,1436285738992,60.1740030151421
414,1436285740278,61.5471572187835
415,1436285741014,63.2973198609487
416,1436285741780,57.7683691785862
417,1436285742516,58.7270740753567
418,1436285743141,59.8021910491903
419,1436285743720,55.7271891243732
420,1436285744292,53.3060938681813
421,1436285744871,53.1852992976334
422,1436285745547,52.2309369967952
423,1436285746353,56.1224051167593
424,1436285747019,53.4388535459826
425,1436285747656,48.8657289257457
426,1436285748249,53.0513878355161
427,1436285748772,51.0488266955517
428,1436285749321,47.5983152974477
429,1436285749883,45.3854371511086
430,1436285750445,47.5850972898065
431,1436285752017,52.7590258182778
432,1436285752745,47.9537281799756
433,1436285753411,47.8334068465601
434,1436285754135,48.3233343694748
435,1436285754858,46.390629181948
436,1436285755588,45.9458973812358
437,1436285756269,46.2390832176032
438,1436285756876,49.8583377977902
439,1436285757551,51.2281671932394
440,1436285758212,47.7451144094303
441,1436285758851,46.950658716904
442,1436285759570,46.5593667054185
443,1436285760274,46.6413681079297
444,1436285760975,44.5462220028841
445,1436285761748,46.1287672287138
446,1436285762449,45.488035949396
447,1436285763178,45.77243966103
448,1436285763915,45.4704298106606
449,1436285764637,45.465154776105
450,1436285765350,45.9477482362218
451,1436285766056,44.6511006461421
452,1436285766771,47.5860617483314
453,1436285767493,46.6426857699743
454,1436285768201,46.47994074674
455,1436285768855,46.1054754695034
456,1436285769566,48.4216945506406
457,1436285770251,51.9935780519713
458,1436285770928,49.0958433421849
459,1436285771715,50.9403346469714
460,1436285772392,51.312685917459
461,1436285773089,49.5742066814377
462,1436285773811,47.8792043753341
463,1436285774535,46.1984203518447
464,1436285775272,46.0920270164123
465,1436285775973,43.9051808380501
466,1436285776850,43.8207031053144
467,1436285777476,41.3828022400812
468,1436285778225,44.8163788756402
469,1436285778959,46.3803431372617
470,1436285779698,46.6516486253656
471,1436285780433,44.9169177498586
472,1436285781170,46.0571440119568
473,1436285781933,48.1355507522068
474,1436285782635,48.4363273391053
475,1436285783343,48.9983651680221
476,1436285784034,49.7784683013642
477,1436285784749,47.8588792856415
478,1436285785485,51.6000805717592
479,1436285786206,53.8566366610272
480,1436285786943,54.1004070582407
481,1436285787695,54.0984342480775
482,1436285788404,59.0137036052549
483,1436285789144,52.3809531372935
484,1436285789866,53.6919699340527
485,1436285790583,49.1923006958269
486,1436285791267,51.3676211310317
487,1436285791982,56.4990923081971
488,1436285792802,56.2413049687179
489,1436285793535,51.1667918033571
490,1436285794252,52.4140972407362
491,1436285795008,54.5896330572666
492,1436285795705,53.9853362151449
493,1436285796446,56.7839741265927
494,1436285797157,55.7977631101278
495,1436285797804,54.0882865367597
496,1436285798509,52.8280767257092
497,1436285799230,54.5742978021974
498,1436285799918,54.8819541192975
499,1436285800623,51.9546173191055
500,1436285801364,56.1507287010667
501,1436285802067,51.3320521571418
502,1436285802838,53.1150735054731
503,1436285803551,54.4085865350144
504,1436285804259,52.3786909339074
505,1436285804981,47.8192678844333
506,1436285805694,55.9055319420686
507,1436285806434,52.8377306213282
508,1436285807159,55.7455093693554
509,1436285807901,49.1058343675534
510,1436285808627,50.1770328672002
511,1436285809315,47.3648361817533
512,1436285809994,49.358069758243
513,1436285810730,51.0730192972896
514,1436285811455,54.6634703584745
515,1436285812206,54.2115846788941
516,1436285812930,49.5601794372009
517,1436285813672,47.7646502862778
518,1436285814398,50.4613886872857
519,1436285815115,48.5392100746892
520,1436285815976,45.0477217678836
521,1436285816593,55.6099671297196
522,1436285817525,46.7572489459287
523,1436285818141,51.2147756381108
524,1436285818783,50.1584864612815
525,1436285819477,55.7428043118045
526,1436285820202,70.6490143055086
527,1436285820852,60.185449434514
528,1436285821545,52.994455337129
529,1436285822279,52.7867135452473
530,1436285823002,55.4948131100721
531,1436285823701,54.5559835073525
532,1436285824349,52.7997551700904
533,1436285825052,64.1644053314867
534,1436285825780,59.4618173840397
535,1436285826518,54.6325166188273
536,1436285827253,60.3340167117812
537,1436285827975,76.9067791885378
538,1436285828715,66.1207864807809
539,1436285829398,61.0821690914578
540,1436285830071,67.9678867574471
541,1436285830800,57.8281669754394
542,1436285831534,59.0722891360879
543,1436285832294,55.5394962413249
544,1436285833014,50.8234106893657
545,1436285833736,52.9861219321514
546,1436285834458,50.2751015779097
547,1436285835188,49.8171825576667
548,1436285835959,57.692885284199
549,1436285836616,50.4975043447638
550,1436285837361,53.2486628622801
551,1436285838117,52.7048334390976
552,1436285838730,50.6765977021976
553,1436285839468,47.4588763945061
554,1436285840148,52.8165745089574
555,1436285840789,52.4731211583742
556,1436285841467,54.2828724952759
557,1436285842213,50.2323038283397
558,1436285842944,51.7144895412965
559,1436285843663,50.0817959588395
560,1436285844324,48.6133917228567
561,1436285844996,48.5963219326888
562,1436285845720,52.0607755612899
563,1436285846440,47.6709686156847
564,1436285847184,49.3626732222513
565,1436285847921,51.2544247879797
566,1436285848636,50.8165804495345
567,1436285849351,50.8056368413314
568,1436285850069,52.3525773580649
569,1436285850743,49.7131678250137
570,1436285851458,50.8706044860428
571,1436285852223,54.240473025214
572,1436285852954,48.8109613820269
573,1436285853678,50.361037821133
574,1436285854408,51.5423811326927
575,1436285855135,48.2779543071323
