id,attr_time,attr_db
1,1436285440276,53.7197384276419
2,1436285440993,53.2307255781452
3,1436285441585,51.9878467654651
4,1436285442271,54.3174090082114
5,1436285443012,68.6513993159167
6,1436285443733,59.448262715473
7,1436285444453,53.4089739562231
8,1436285445188,58.0245319997342
9,1436285445931,51.4866070378254
10,1436285446698,49.7542406076165
11,1436285447415,59.5956767060371
12,1436285448157,48.8877386215265
13,1436285448892,51.802946356068
14,1436285449655,49.925811352314
15,1436285450355,55.8674623977695
16,1436285451142,57.3279673359167
17,1436285451817,54.4095352269194
18,1436285452512,56.3620257787472
19,1436285453194,55.7516140835086
20,1436285453938,57.3619878640254
21,1436285454702,67.2578692598064
22,1436285455434,64.5685331837423
23,1436285456176,55.8044176278022
24,1436285456889,53.0653086371367
25,1436285457589,53.050584186574
26,1436285458315,57.8592566065799
27,1436285459047,55.2855320313563
28,1436285459779,60.0706315864026
29,1436285460496,54.9324696329986
30,1436285461109,56.27720434607
31,1436285461771,61.1565594286335
32,1436285462453,55.6745101165107
33,1436285463191,54.8969429786889
34,1436285463922,55.1235333904758
35,1436285464644,54.7946499913176
36,1436285465443,52.6295051556133
37,1436285466160,55.5327563165362
38,1436285466882,64.3690901038814
39,1436285467599,55.8194992189807
40,1436285468311,51.0622802744118
41,1436285469043,53.0643263498203
42,1436285469838,52.7799660622906
43,1436285470521,64.5498686299623
44,1436285471211,54.6285059491385
45,1436285471934,55.8848259946609
46,1436285472664,54.8285143928249
47,1436285473401,50.8836235261349
48,1436285474136,51.2032968189909
49,1436285474877,56.9511877854036
50,1436285475635,58.1421846611791
51,1436285476368,56.0118781915094
52,1436285477111,55.1316218177938
53,1436285477694,59.4009790091326
54,1436285478365,58.1868399090077
55,1436285479094,56.5848199527486
56,1436285479947,56.1565247132461
57,1436285480665,54.7852181125587
58,1436285481240,56.3843717288083
59,1436285481967,54.2115668083079
60,1436285482680,55.7061921621924
61,1436285483409,55.8850724795425
62,1436285484132,54.0802162876077
63,1436285484878,65.273846002949
64,1436285485608,56.0069342124091
65,1436285486344,66.8174117107685
66,1436285487060,56.0464617794216
67,1436285487758,54.5130950538335
68,1436285488523,56.111662137243
69,1436285489253,53.6043192079613
70,1436285489990,53.2628990334471
71,1436285490737,51.5752143891671
72,1436285491435,52.6502199522285
73,1436285492155,49.8661065517965
74,1436285492871,56.3010180400779
75,1436285493596,64.1156047021359
76,1436285494333,55.6308574526747
77,1436285495064,56.0398862555848
78,1436285495798,56.4875584616643
79,1436285496513,59.183399020265
80,1436285497277,57.8637756647471
81,1436285497888,56.9380110829315
82,1436285498596,56.0846609172154
83,1436285499305,56.4002773219435
84,1436285500066,55.5801710993112
85,1436285500847,55.6129067325063
86,1436285501543,54.7353424966163
87,1436285502219,53.2577443040935
88,1436285502893,56.4024331756233
89,1436285504316,55.8579286427904
90,1436285505050,55.9478020061758
91,1436285505805,56.0126331269728
92,1436285506549,56.6314018127178
93,1436285507328,58.1184709793416
94,1436285508015,56.880675541225
95,1436285508677,58.9009037497595
96,1436285509407,57.101559932261
97,1436285510131,56.3291912079873
98,1436285510848,55.5818450509982
99,1436285511548,56.7337128539813
100,1436285512169,54.6760222369657
101,1436285512841,55.9123394195928
102,1436285513561,55.3135936942303
103,1436285514302,54.9747311156059
104,1436285515026,54.6684189829529
105,1436285515759,55.2792784303641
106,1436285516485,55.6510460472274
107,1436285517139,54.0243025864463
108,1436285518714,55.3467352208248
109,1436285519392,55.5513690215929
110,1436285520142,54.9721222860918
111,1436285520914,55.4778622281093
112,1436285521636,54.3678508687913
113,1436285522295,55.7329150690373
114,1436285523024,56.2632769686282
115,1436285523758,55.7004651073564
116,1436285524474,54.4372211822696
117,1436285525246,56.166403142627
118,1436285525989,54.5902107001913
119,1436285526730,55.7699550287031
120,1436285527465,55.5326268555947
121,1436285528212,55.4220777995361
122,1436285528893,60.0185967110562
123,1436285529617,55.101933940296
124,1436285530336,56.8479098923932
125,1436285531069,57.2993616409169
126,1436285531809,55.7504860157343
127,1436285532490,57.3275490002946
128,1436285533159,58.6072021294373
129,1436285533902,56.0210255439371
130,1436285534639,58.8011618989129
131,1436285535374,58.7858117207221
132,1436285536116,57.8973557906919
133,1436285536873,58.5517741208651
134,1436285537667,58.0456894885338
135,1436285538288,58.5705737961728
136,1436285538966,58.4097385247591
137,1436285539680,58.4202434704643
138,1436285541549,54.1116278413535
139,1436285542143,52.6489027384443
140,1436285542819,52.206454380577
141,1436285543526,49.1148753849274
142,1436285544269,50.3052027437434
143,1436285545008,52.184200198937
144,1436285545783,53.3258892140736
145,1436285546513,50.900726423245
146,1436285547259,49.6014384586769
147,1436285548008,53.0757958454378
148,1436285548746,54.383530764324
149,1436285549399,52.239194192168
150,1436285550068,56.0913397141404
151,1436285550726,56.0546290891334
152,1436285551434,52.6558543388548
153,1436285552147,53.3496935564676
154,1436285552880,53.7221891400356
155,1436285554178,54.1262851054534
156,1436285554833,53.5105951127966
157,1436285555553,51.9402823223175
158,1436285556295,49.2330578614949
159,1436285557036,53.0543360130346
160,1436285557773,47.7134046588953
161,1436285558487,48.6458046768443
162,1436285559223,48.2034045163457
163,1436285559937,51.9101431768732
164,1436285560698,47.9168148252834
165,1436285561410,47.6158859274618
166,1436285562139,47.614544605637
167,1436285562737,47.9473479919807
168,1436285563420,48.0773246169931
169,1436285564146,50.7896178294296
170,1436285564886,47.8657064355081
171,1436285565592,47.7399416425273
172,1436285566323,49.9850374292066
173,1436285567049,48.6535227917951
174,1436285567772,49.251205544872
175,1436285568452,48.5847368149157
176,1436285569174,51.2370912920931
177,1436285569856,55.8901116102185
178,1436285570536,61.1478685503348
179,1436285571262,55.8798382125963
180,1436285571987,56.1892829588099
181,1436285572735,63.8100093069595
182,1436285573431,66.5662689807422
183,1436285574116,58.3832159370513
184,1436285574835,57.4593889307714
185,1436285575557,62.1015284465072
186,1436285576312,60.502877254895
187,1436285577029,59.9674949363852
188,1436285577748,63.9089375877083
189,1436285578474,61.4681569083553
190,1436285579202,62.748284046402
191,1436285579910,61.2038903486458
192,1436285580545,63.104852973956
193,1436285581249,68.4574170387136
194,1436285581920,61.2132132723112
195,1436285582503,69.9404945570597
196,1436285583158,66.6542500599404
197,1436285583865,64.784032477205
198,1436285584609,63.7662331693297
199,1436285585352,62.9284345850078
200,1436285586092,63.1377811139712
201,1436285586831,65.0445927881273
202,1436285587564,66.1749750050628
203,1436285588288,66.6552217603367
204,1436285589013,62.9338542635713
205,1436285589738,60.4902860274711
206,1436285590432,60.1073127174091
207,1436285591187,58.0353221255889
208,1436285591893,59.0299806107067
209,1436285592653,58.4529252863257
210,1436285593375,57.7032023692637
211,1436285594119,68.5587672324069
212,1436285594837,66.789167244175
213,1436285595549,58.3500324968829
214,1436285596286,59.6121143102803
215,1436285597025,58.885034063721
216,1436285597764,59.5902151688536
217,1436285598481,57.4447744199223
218,1436285599164,57.9680276468538
219,1436285599884,58.9302106924322
220,1436285600550,58.442087066473
221,1436285601257,58.2875367565167
222,1436285601992,58.7700768595812
223,1436285602751,57.1478402639627
224,1436285603387,57.1728134513536
225,1436285604161,56.6874459746548
226,1436285604905,59.259902564273
227,1436285605619,58.1137744037588
228,1436285606382,56.6781466338694
229,1436285607108,57.1155236628865
230,1436285607839,59.1899782888954
231,1436285608571,57.918768573819
232,1436285609436,58.9634353536208
233,1436285610199,59.0082500455826
234,1436285610800,65.3363645753741
235,1436285611485,64.3114688904271
236,1436285612212,63.065763969643
237,1436285612854,61.1500036033292
238,1436285613583,65.143430514748
239,1436285614169,62.5426623179407
240,1436285614861,67.053537147958
241,1436285615572,61.0783864822195
242,1436285616298,63.1320467794975
243,1436285617026,61.0481931276435
244,1436285617757,64.3828151601886
245,1436285618471,58.5681325032164
246,1436285619075,61.1241797778746
247,1436285619844,59.9195452062787
248,1436285620566,58.1356877603528
249,1436285621249,59.0522089038248
250,1436285621930,57.0868539081251
251,1436285622703,59.0050400005074
252,1436285623343,56.4091353218506
253,1436285623962,57.8368033115459
254,1436285624635,57.8854507759153
255,1436285625331,60.3014889291266
256,1436285626057,57.3915705312341
257,1436285626835,57.7154409083052
258,1436285627579,56.3931232103255
259,1436285628391,67.1040404382853
260,1436285629241,71.8414928475876
261,1436285629979,55.4751463106598
262,1436285630587,51.8934577644633
263,1436285631187,55.6344923003716
264,1436285631836,56.5643448555282
265,1436285632555,55.1335338909114
266,1436285633317,60.3370589851702
267,1436285633913,56.9868917797003
268,1436285634570,59.9885398080447
269,1436285635304,61.5673938389555
270,1436285636059,59.6249553042944
271,1436285636791,56.2137294477301
272,1436285637494,56.4619400173818
273,1436285638228,58.6185768455841
274,1436285638929,60.7024735191169
275,1436285639650,57.4670968297639
276,1436285640376,60.4697329225705
277,1436285641099,55.1534807557812
278,1436285641735,58.7754448552679
279,1436285642441,59.606632079328
280,1436285643152,58.37052352268
281,1436285643874,57.0145896639076
282,1436285644569,63.4948226508094
283,1436285645229,67.1182998497907
284,1436285645942,58.3398016831826
285,1436285646645,57.313693365471
286,1436285647363,54.8857849431239
287,1436285648071,53.5394951889421
288,1436285648802,55.131150058184
289,1436285649558,55.8860728650314
290,1436285650317,50.2127467052148
291,1436285651067,48.2752845962004
292,1436285651760,46.6748347380573
293,1436285652436,46.6901393112104
294,1436285653152,45.9765282000228
295,1436285653881,45.5961199157314
296,1436285654673,46.1908480473815
297,1436285655372,46.7703847727591
298,1436285656034,45.3050566097637
299,1436285656716,59.5410250459546
300,1436285657431,58.2445245229356
301,1436285658199,51.9849248332582
302,1436285659023,47.7496155919629
303,1436285659699,48.5978922143067
304,1436285660435,47.6037570315825
305,1436285661163,46.809448715065
306,1436285661847,52.0684272535447
307,1436285662552,59.9037184029286
308,1436285663287,46.5148291371869
309,1436285663888,46.5011882569212
310,1436285664567,46.7390299625178
311,1436285665303,45.4331811728748
312,1436285666044,46.2163587531264
313,1436285666764,44.1534615823317
314,1436285667500,45.3300195478814
315,1436285668203,45.513731366034
316,1436285668937,48.1574047789955
317,1436285669669,47.5812509267978
318,1436285670411,53.6773205909297
319,1436285671123,45.2875933422415
320,1436285671810,50.3891562130388
321,1436285672510,55.2341560721083
322,1436285673237,48.701372920367
323,1436285673999,48.7077523867271
324,1436285674740,54.3846124685152
325,1436285675385,47.7935449391313
326,1436285676115,47.3878388037332
327,1436285676857,53.5416202553025
328,1436285677590,43.9184094757251
329,1436285678304,45.3861714384706
330,1436285679032,43.128219314462
331,1436285679759,45.0198861676968
332,1436285680539,45.7274199489314
333,1436285681287,46.5850857758796
334,1436285681996,57.8625485266257
335,1436285682658,46.2029078040395
336,1436285683365,45.2632126902294
337,1436285684091,43.7026165069849
338,1436285684802,44.6390512075171
339,1436285685543,44.4191093427584
340,1436285686224,45.7605711027652
341,1436285686949,47.1533470934085
342,1436285687679,44.7456077433616
343,1436285688405,46.41222457441
344,1436285689140,51.0093319811861
345,1436285689881,48.8788592446533
346,1436285690643,46.6679980342877
347,1436285691373,49.1831376529888
348,1436285692098,49.0128091334855
349,1436285692815,55.0977458498706
350,1436285693462,47.3912728592948
351,1436285694191,55.4336533551022
352,1436285694913,58.6686993172227
353,1436285695647,51.422915592536
354,1436285696411,60.977970873654
355,1436285697131,55.2214033853047
356,1436285697962,56.6233918967493
357,1436285698798,58.3297509853595
358,1436285699490,55.8070506418953
359,1436285700222,55.4919931273347
360,1436285700949,58.1090438114895
361,1436285701677,58.4543593728521
362,1436285702370,59.0035430885761
363,1436285703048,55.100617838388
364,1436285703721,71.7503272405264
365,1436285704285,72.0760442051766
366,1436285704910,63.2360401085706
367,1436285705587,53.9989573436374
368,1436285706265,49.6569482422539
369,1436285706987,53.1051785904599
370,1436285708771,64.0151483786856
371,1436285709486,56.8220279948559
372,1436285710227,57.6578772411944
373,1436285710984,48.2378560721794
374,1436285711725,47.9902885619681
375,1436285712398,48.0025214524094
376,1436285713038,52.5506118315486
377,1436285713732,48.4236211262752
378,1436285714457,60.9877231673314
379,1436285715178,59.0877142817185
380,1436285715978,50.0832922336445
381,1436285716693,50.5873019870217
382,1436285717428,59.5121611751732
383,1436285718176,61.0187188438908
384,1436285718905,65.2204871707645
385,1436285719588,65.6720997615943
386,1436285720214,70.8432477524396
387,1436285720934,56.175599708309
388,1436285721642,49.7497659338312
389,1436285722375,49.0370144263366
390,1436285723024,57.7916887992982
391,1436285723599,47.7097853701628
392,1436285724195,57.9605879618496
393,1436285724882,50.2091175245825
394,1436285726781,47.7837103276668
395,1436285727520,48.4707571485819
396,1436285728248,49.8593805257741
397,1436285729011,49.3188617505332
398,1436285729750,47.62420076152
399,1436285730493,48.602956802533
400,1436285731229,56.6134327084767
401,1436285731963,58.24359864071
402,1436285732685,68.3545102739318
403,1436285733423,57.7361813274514
404,1436285734061,60.4455235082284
405,1436285734791,55.4363927391705
406,1436285735508,56.5334343097353
407,1436285736207,57.9228310602562
408,1436285736927,55.340721604959
409,1436285737640,54.5043636238327
410,1436285738351,56.0049180249293
411,1436285739078,57.3940726699146
412,1436285739784,61.5428918501306
413,1436285740437,59.0930645562824
414,1436285741162,61.7956502665653
415,1436285741896,60.9541857603721
416,1436285742635,56.6455011102385
417,1436285743354,54.3154415153157
418,1436285743988,54.4232983090416
419,1436285744709,54.7203853128862
420,1436285745446,52.4591768251499
421,1436285746181,51.059426076363
422,1436285746892,49.2075930856356
423,1436285747605,52.4129574894004
424,1436285748206,50.827428323224
425,1436285748884,49.186439231544
426,1436285749644,47.8004294174731
427,1436285750367,49.0306186684934
428,1436285751107,47.8856587670943
429,1436285751852,49.7273312338055
430,1436285752606,50.3548901259618
431,1436285753269,48.3545658259988
432,1436285753878,48.8721399167689
433,1436285754596,48.9992985802631
434,1436285755304,49.218032941482
435,1436285756036,50.3206105813556
436,1436285757962,56.4011367669033
437,1436285758842,54.8511385408358
438,1436285759524,52.6392682997818
439,1436285760153,49.4927344432554
440,1436285760819,48.3832987062602
441,1436285761536,52.0072495153545
442,1436285762246,49.2908863500217
443,1436285763005,47.2254118107891
444,1436285763745,47.7602298614576
445,1436285764356,44.9828397190838
446,1436285765020,46.3053939167036
447,1436285765727,44.7768757470053
448,1436285766355,46.3828838325692
449,1436285767110,49.2039024086708
450,1436285767823,49.5474858083918
451,1436285768434,50.6351041582872
452,1436285769134,53.1782750883122
453,1436285769867,56.4948595625101
454,1436285770570,55.8864289946287
455,1436285771285,57.0972434619619
456,1436285772001,56.4481056009117
457,1436285772706,54.0421795786854
458,1436285774310,47.7217912654653
459,1436285775023,46.4333852981182
460,1436285775733,49.5529280681106
461,1436285776483,47.3649154765706
462,1436285777203,47.2917533795018
463,1436285777918,47.9869806888551
464,1436285778652,47.1106304106535
465,1436285779482,50.0796563001213
466,1436285780192,51.5293632843863
467,1436285780862,48.1101241300387
468,1436285781581,51.2820651003309
469,1436285782306,49.0819838261791
470,1436285783013,49.8518171811953
471,1436285783722,49.0664921795198
472,1436285784435,52.77347812496
473,1436285785060,53.1763018390811
474,1436285785752,51.1662199666236
475,1436285786478,57.0149829477677
476,1436285787191,54.7234002922472
477,1436285787936,55.2809443064915
478,1436285788643,54.4363868017271
479,1436285789310,54.4816363108863
480,1436285790041,53.6566225953935
481,1436285790759,54.7959093903841
482,1436285791503,55.1952187801173
483,1436285792205,56.7997025241821
484,1436285792889,54.0531844332308
485,1436285793625,52.4316769333239
486,1436285794317,56.4439912008465
487,1436285794965,54.2798173567294
488,1436285795712,54.7131089857086
489,1436285796434,55.4537936641639
490,1436285797136,52.342712001005
491,1436285797870,54.1447709706428
492,1436285798527,54.7797556384558
493,1436285799242,55.4377237882567
494,1436285799964,55.2836867250965
495,1436285800700,50.0689021802592
496,1436285801432,52.97275288398
497,1436285802151,54.6440585476827
498,1436285802887,56.2974401644616
499,1436285803624,56.2821105110587
500,1436285804329,53.5333826549089
501,1436285804938,53.9958064124549
502,1436285805601,55.4192289249476
503,1436285806282,53.377626949386
504,1436285806992,53.5252573617959
505,1436285807748,49.2614307382953
506,1436285808488,50.4448956970997
507,1436285809208,53.3107194662662
508,1436285809929,55.9319661647075
509,1436285810662,54.3283507933378
510,1436285811466,54.5763298446462
511,1436285812190,53.9163092856617
512,1436285813169,50.159752974169
513,1436285813806,49.4187247311685
514,1436285814482,52.9498244485309
515,1436285815199,52.2070869966383
516,1436285815897,54.098672599801
517,1436285816668,52.1984311765821
518,1436285817351,54.03079704983
519,1436285818088,55.4948647200309
520,1436285818843,55.0904998801481
521,1436285819549,58.2489553376244
522,1436285820259,60.6502567775979
523,1436285821001,55.6358086636041
524,1436285821741,55.6338718644554
525,1436285822433,55.4751602602063
526,1436285823151,55.7182467953499
527,1436285823840,57.0519302358876
528,1436285824579,56.2824683579846
529,1436285825224,59.5081087603003
530,1436285825804,56.6960846283615
531,1436285826527,55.5443903144151
532,1436285827274,57.753299963794
533,1436285828022,57.1527191181639
534,1436285828795,64.7145611700269
535,1436285829478,62.8638481636911
536,1436285830197,56.1205910972513
537,1436285830969,55.7033076526707
538,1436285831695,56.4884330127829
539,1436285832425,58.8621564212182
540,1436285833165,56.3238250246154
541,1436285833902,57.3343453873222
542,1436285834616,55.5066703197898
543,1436285835338,56.2499146446518
544,1436285836068,56.8458132794676
545,1436285836793,55.7852401807296
546,1436285837498,55.3628515034014
547,1436285838219,55.417198087453
548,1436285838939,54.3705103863476
549,1436285839693,54.5545727467102
550,1436285840314,55.4406612626405
551,1436285841000,56.0117418264745
552,1436285841713,53.4948702465369
553,1436285842440,54.4810553674091
554,1436285843183,55.3509405765338
555,1436285843905,55.1825231603704
556,1436285844544,54.5476892887368
557,1436285845159,54.2601295120084
558,1436285845904,54.7435610764921
559,1436285846555,54.3741237239736
560,1436285847281,52.8207732250657
561,1436285848014,55.0638251640958
562,1436285848802,53.3396801123757
563,1436285849479,53.3777659373276
564,1436285850171,53.9976235447192
565,1436285850894,54.5436053266985
566,1436285851612,55.1046561387418
567,1436285852328,55.5508344476318
568,1436285853016,55.029903623173
569,1436285853680,54.7826083903311
570,1436285854448,54.7751579445778
571,1436285855196,56.5861131823843
572,1436285855912,55.9474827025306
573,1436285856569,55.2884104700014
574,1436285857292,55.7575848697945
575,1436285858016,55.8526883304405
