id,attr_time,attr_db
1,1436285440038,54.0803146195264
2,1436285440601,56.2206904519151
3,1436285441307,56.2947739533281
4,1436285442024,54.5671959607313
5,1436285442750,54.4124694889954
6,1436285443505,56.6108959859844
7,1436285444229,60.4744331534905
8,1436285445030,60.2296809576737
9,1436285445773,58.577063660789
10,1436285446524,54.585935366387
11,1436285447259,61.4745805836491
12,1436285447911,55.1383487673176
13,1436285448635,55.10064193927
14,1436285449369,55.0364007973566
15,1436285450071,56.8395909302692
16,1436285450750,60.7806241922789
17,1436285451480,60.3919492723416
18,1436285452212,59.3714610046083
19,1436285452950,60.5839306841362
20,1436285453700,57.9754550508064
21,1436285454442,58.3821361104413
22,1436285455175,65.1030717781565
23,1436285455909,60.752576490806
24,1436285456636,60.9602520473407
25,1436285457325,61.1903624551702
26,1436285457899,54.5562627722545
27,1436285458587,57.4517723340922
28,1436285459318,55.7158900857125
29,1436285460039,55.17387468235
30,1436285460716,56.8026110040548
31,1436285461463,58.6128887637021
32,1436285462173,59.5609508457876
33,1436285462912,66.099464596997
34,1436285463656,56.9443699484399
35,1436285464389,55.7840790219576
36,1436285465088,56.597905927869
37,1436285465728,56.0600851600416
38,1436285466474,66.7261138468016
39,1436285467247,58.3851061544892
40,1436285468004,61.184553540105
41,1436285468803,55.3014109272871
42,1436285469537,55.3477616238303
43,1436285470236,56.814941989835
44,1436285471057,64.170461676944
45,1436285471789,60.6553666916072
46,1436285472523,56.5501587121999
47,1436285473253,56.7184567641284
48,1436285474013,54.6405206141929
49,1436285474620,56.4416277483274
50,1436285475345,60.8310848696042
51,1436285476065,56.2101748316015
52,1436285476780,58.6625066052745
53,1436285477470,60.0752290267442
54,1436285478091,58.8726728336462
55,1436285478766,58.8132092382684
56,1436285479500,57.6075847874581
57,1436285480211,57.8822541988362
58,1436285480906,56.4776455164641
59,1436285481640,61.8374474191756
60,1436285482384,58.1335257783086
61,1436285483110,60.6448010831962
62,1436285483841,58.0878559495215
63,1436285484570,56.6274558291371
64,1436285485300,64.4593364423874
65,1436285486031,58.5970853506653
66,1436285486774,63.2238178563939
67,1436285487500,62.4869069325536
68,1436285488252,55.4449773621822
69,1436285488891,56.6892218648545
70,1436285489615,55.2866094777948
71,1436285490368,56.7234283713572
72,1436285491119,55.232914391856
73,1436285491849,55.3185284975768
74,1436285492552,56.0810822617612
75,1436285493310,69.2151230195233
76,1436285494054,58.3274533959794
77,1436285494770,59.503155338265
78,1436285495509,61.2513091931268
79,1436285496253,59.4426563476739
80,1436285496977,60.9474578089619
81,1436285497701,59.1666277420812
82,1436285498392,58.4590423214832
83,1436285499040,58.7258859504926
84,1436285499797,59.9015765079769
85,1436285500508,56.5420953707782
86,1436285501239,56.7529023332542
87,1436285501981,56.3075126650523
88,1436285502720,55.3599294920714
89,1436285503488,57.7859230898663
90,1436285504272,56.6414268070598
91,1436285505017,56.237395314006
92,1436285505753,65.4669192128566
93,1436285506506,56.9315853163689
94,1436285507230,57.7649647682542
95,1436285507966,58.8565295015527
96,1436285508693,59.9501737143481
97,1436285509439,58.9998689515181
98,1436285510229,57.8753508992359
99,1436285510966,56.1113604078303
100,1436285511632,55.5899588177337
101,1436285512363,55.8931977354219
102,1436285513100,58.3772507261285
103,1436285513830,58.4497720670895
104,1436285514569,58.2021116156655
105,1436285515308,58.6143521328738
106,1436285516024,58.556807417725
107,1436285516752,58.1162131905761
108,1436285517480,58.0485600495255
109,1436285518174,57.3016873341012
110,1436285518750,56.2320940984147
111,1436285519388,57.1461448768481
112,1436285520216,56.7090795969077
113,1436285520973,57.4303777739544
114,1436285521646,54.8480003167247
115,1436285522322,55.1835744495157
116,1436285523046,56.0258543887123
117,1436285523761,56.75192819521
118,1436285524500,56.9220831916972
119,1436285525319,56.0612110622629
120,1436285526050,56.1437963643141
121,1436285526781,57.0680814072568
122,1436285527513,55.6381236804018
123,1436285528259,56.738424663908
124,1436285529037,63.1789526262472
125,1436285529672,57.4218030921897
126,1436285530387,60.3117374083251
127,1436285531106,57.4470492817784
128,1436285531888,58.5269889431994
129,1436285532535,61.0021031816488
130,1436285533266,58.5322924969118
131,1436285534020,58.3929127544282
132,1436285534781,61.9003564617002
133,1436285535405,59.2719153690646
134,1436285536075,60.0541720449526
135,1436285536790,61.8557109925441
136,1436285537544,58.8867806578546
137,1436285538278,62.6503383456026
138,1436285538992,60.3227916554586
139,1436285539678,62.0440898294254
140,1436285540357,58.3911481098236
141,1436285541084,55.8595503838313
142,1436285541850,55.7768986005341
143,1436285542507,54.9134998810821
144,1436285543286,54.862993140956
145,1436285544026,56.202780658284
146,1436285544799,53.2873195308976
147,1436285545540,55.1313906021542
148,1436285546274,55.0788368882124
149,1436285547008,53.1288073339397
150,1436285547744,55.2715246484724
151,1436285548456,56.1613773757634
152,1436285549186,54.667012702202
153,1436285549843,55.6680064357744
154,1436285550507,54.3626424562338
155,1436285551244,57.4583725907524
156,1436285551963,55.3207933273335
157,1436285552551,54.5938451313437
158,1436285553247,55.6299726768489
159,1436285553966,55.0282069680731
160,1436285554713,54.1607067711966
161,1436285555534,56.0012008863649
162,1436285556199,53.0055950892111
163,1436285556921,51.0423451411564
164,1436285557639,51.4374513956818
165,1436285558371,52.8642710699326
166,1436285559090,51.9395680871342
167,1436285559800,47.9789502712071
168,1436285560456,53.2461551532494
169,1436285561193,49.0616656658377
170,1436285561951,50.4370667880694
171,1436285562641,51.5540952249701
172,1436285563302,47.660380590567
173,1436285564055,51.475159744319
174,1436285564829,50.0255219375262
175,1436285565647,49.4284015242857
176,1436285566380,53.0262849256545
177,1436285567122,51.5387899282493
178,1436285567853,52.9298350036085
179,1436285568578,52.4192084352775
180,1436285569324,52.9224990013322
181,1436285570076,56.8866056645602
182,1436285570694,62.3522407726059
183,1436285571392,58.081212705484
184,1436285572150,59.8620805190076
185,1436285572906,61.9536036534632
186,1436285573577,66.6278746080304
187,1436285574310,60.4854367429786
188,1436285575095,59.4249909200377
189,1436285575909,60.4350291207981
190,1436285576577,61.2474474838193
191,1436285577317,61.5888559587883
192,1436285578049,63.7128618200085
193,1436285578790,61.989211686452
194,1436285579522,63.7632712495088
195,1436285580297,60.4524078264937
196,1436285580968,64.8897458096145
197,1436285581706,64.3451995594138
198,1436285582426,64.0531977973703
199,1436285583116,68.873354460579
200,1436285583796,64.9230905896106
201,1436285584540,71.5166812534394
202,1436285585286,65.6877904963003
203,1436285586016,64.4888332446501
204,1436285586762,67.6060527438398
205,1436285587468,66.7327327397342
206,1436285588226,67.9157364035035
207,1436285588957,66.1829141343834
208,1436285589709,63.3323049115598
209,1436285590424,60.5578366975232
210,1436285591126,60.4026811659269
211,1436285591878,61.0184528874032
212,1436285592581,60.2517963219655
213,1436285593247,60.1750280828169
214,1436285593991,62.8326645463286
215,1436285594778,67.2156922771028
216,1436285595666,64.7427190988939
217,1436285596381,59.6691622373319
218,1436285596991,62.1275128151784
219,1436285597732,60.9350468488728
220,1436285598436,62.9000357547067
221,1436285599151,60.9813045769444
222,1436285599857,62.2725164333264
223,1436285601551,61.1314195540632
224,1436285602281,61.2677281536156
225,1436285603028,60.4319822025432
226,1436285603698,60.528248026938
227,1436285604427,60.4549517034533
228,1436285605224,59.5230850701399
229,1436285605958,60.3671729809918
230,1436285606696,59.5241760517539
231,1436285607426,60.7189731123048
232,1436285608169,60.4199149189507
233,1436285608911,61.880157567892
234,1436285609652,63.195270777485
235,1436285610413,62.8925318795224
236,1436285611152,65.2289661083773
237,1436285611821,67.1968758254645
238,1436285612536,63.0130460688663
239,1436285613223,62.2013717999762
240,1436285613941,71.9068232517121
241,1436285614644,66.7036337272244
242,1436285616120,71.5784459059632
243,1436285616870,61.9783606889989
244,1436285617597,61.5540153538285
245,1436285618348,62.5792645378556
246,1436285619058,66.2047044089119
247,1436285619784,61.9846630346348
248,1436285620504,59.5378357632195
249,1436285621279,60.2556780441785
250,1436285621934,63.9027274164513
251,1436285622688,63.8297117860099
252,1436285623411,62.5811282648009
253,1436285624138,60.6592791278735
254,1436285624857,60.4056081172159
255,1436285625577,68.5561744055187
256,1436285626293,61.3326686878579
257,1436285627025,62.5176387528166
258,1436285627763,62.1310449501137
259,1436285628497,62.0922175893961
260,1436285629226,74.4099901498482
261,1436285630005,59.1165045863961
262,1436285630684,55.537400419444
263,1436285631318,58.1851326866317
264,1436285632034,64.47912841524
265,1436285632781,59.4944244214053
266,1436285633493,67.4415458643919
267,1436285634204,70.2402876600872
268,1436285634866,63.0151714719721
269,1436285635613,68.7921861856694
270,1436285636354,62.7766781347842
271,1436285637029,61.1084775729042
272,1436285638691,74.4574701926258
273,1436285639344,60.225553373887
274,1436285640156,60.6705620760028
275,1436285640863,60.0915493077593
276,1436285641556,58.4815489561815
277,1436285642288,59.7120464120504
278,1436285642872,60.3429013987212
279,1436285643568,59.8955089324311
280,1436285644289,65.8973904926538
281,1436285645076,64.9354126039341
282,1436285645822,67.1194271650399
283,1436285646569,60.7791430759975
284,1436285647295,56.4447451934923
285,1436285648026,63.3021221671689
286,1436285648766,55.4166188014247
287,1436285649500,57.1383258565504
288,1436285650176,56.7658723688631
289,1436285651509,49.5745657159785
290,1436285652164,48.0645761020672
291,1436285652854,48.7598836508966
292,1436285653592,48.1648107289199
293,1436285654338,51.0595487385544
294,1436285655094,49.3325512189824
295,1436285655809,48.81582685271
296,1436285656534,48.8665165492986
297,1436285657254,54.1838325168865
298,1436285658106,57.4402138317056
299,1436285658722,56.0622184856542
300,1436285659396,53.4478227932293
301,1436285660249,47.2851943202323
302,1436285660963,48.5080915654666
303,1436285661681,57.2727011162998
304,1436285662338,47.2975276488522
305,1436285662953,50.2364495813621
306,1436285663687,46.7716914943874
307,1436285664366,47.4547825578716
308,1436285665056,48.0830629275415
309,1436285665647,48.4147773997249
310,1436285666341,47.2246405024848
311,1436285667050,47.404043999004
312,1436285667800,45.8157786454013
313,1436285668530,48.3603093137329
314,1436285669264,48.3932673033786
315,1436285669978,51.7498658393621
316,1436285670709,48.220949198649
317,1436285671429,47.9544662707936
318,1436285672156,47.6691001749406
319,1436285672825,48.9546451079889
320,1436285673553,59.4252958413519
321,1436285674286,46.9555450558441
322,1436285675025,63.0091366683355
323,1436285675706,54.7822100977701
324,1436285676437,50.253126369805
325,1436285677168,50.7152043166813
326,1436285677911,54.0552087282129
327,1436285678657,48.3935554864203
328,1436285679371,47.7200964883309
329,1436285680097,47.2321769389888
330,1436285680836,46.9686285302442
331,1436285681567,47.6994217470332
332,1436285682272,63.5466814509205
333,1436285682871,48.0509736372773
334,1436285683536,51.0300336224141
335,1436285684254,50.7500217292041
336,1436285684990,54.8816355653168
337,1436285685667,55.6757599809689
338,1436285686403,48.6088501838151
339,1436285687138,48.189952087663
340,1436285687861,46.4298727745696
341,1436285688594,50.4884224956676
342,1436285689339,52.1089013309517
343,1436285690096,52.3465953395379
344,1436285690813,49.7059496466992
345,1436285691502,49.4947208726987
346,1436285692198,49.213315716145
347,1436285692874,58.6614594893493
348,1436285693595,50.1101669006391
349,1436285694308,60.5280800159739
350,1436285695032,61.5589957792658
351,1436285695730,59.1558258663785
352,1436285696374,63.5875940700503
353,1436285697035,63.1474817194492
354,1436285697778,60.8543988339072
355,1436285698496,57.0355637649075
356,1436285699233,58.0783664972521
357,1436285699969,57.2750351938232
358,1436285700703,60.5952143002885
359,1436285701439,60.4394218591401
360,1436285702193,59.8023126011516
361,1436285702888,55.2625254561244
362,1436285703481,70.0893121066806
363,1436285704172,70.3825610969905
364,1436285704933,56.4093349042815
365,1436285705672,55.8738056935737
366,1436285706342,55.8407806234069
367,1436285707082,55.1883945322469
368,1436285707812,55.4994245170275
369,1436285708546,60.9166118711403
370,1436285709277,58.376028334392
371,1436285710025,54.4276677016709
372,1436285710747,50.0130608456146
373,1436285711473,51.4291472791712
374,1436285712233,52.2161734506813
375,1436285712939,65.6805767460454
376,1436285713549,55.3398372545503
377,1436285714234,48.6517469072432
378,1436285715025,52.4792006800385
379,1436285715738,51.6497083799025
380,1436285716338,58.5396707131998
381,1436285717075,58.9039126874113
382,1436285717810,63.2239511006899
383,1436285718519,54.4642475921105
384,1436285719243,69.0084040467119
385,1436285720101,65.7921526047475
386,1436285720896,54.3919111135443
387,1436285721610,51.607369335681
388,1436285722340,54.7459841334352
389,1436285723032,64.6169043814392
390,1436285723647,60.6485124854367
391,1436285724354,64.4974627057143
392,1436285725072,55.5972068205201
393,1436285725708,51.6567686933478
394,1436285726394,58.6348733442662
395,1436285727127,51.4778150280004
396,1436285727852,52.0835796603624
397,1436285728570,57.0061890568811
398,1436285729313,53.0826525790912
399,1436285730079,54.2763515010539
400,1436285730806,53.9839584513123
401,1436285731548,59.9836340197798
402,1436285732287,59.4936551671273
403,1436285733022,58.0469272426825
404,1436285733752,64.4095841006262
405,1436285734477,63.8687926278702
406,1436285735228,56.4987284106932
407,1436285735955,57.3351362715007
408,1436285736660,58.8679639241928
409,1436285737324,59.8010136070125
410,1436285738037,60.6634539664576
411,1436285738787,61.0225636358834
412,1436285739509,60.1312850207031
413,1436285740253,60.4922753139572
414,1436285740970,61.959179302028
415,1436285741690,59.155654357555
416,1436285742413,59.9176529680782
417,1436285743154,61.5188182984081
418,1436285743881,55.8274326061008
419,1436285744568,56.0717044291692
420,1436285745210,56.5678874461977
421,1436285745874,56.6240042166136
422,1436285746549,54.9521864592785
423,1436285747221,54.5648366889784
424,1436285747961,56.0435507958796
425,1436285748702,52.7032761733171
426,1436285749427,54.7986592722276
427,1436285750204,52.281301803068
428,1436285750999,51.2866804992193
429,1436285751876,51.6059541988179
430,1436285752571,51.1890446550961
431,1436285753303,53.527541046649
432,1436285753997,51.3002842473991
433,1436285754687,53.823582389537
434,1436285755381,51.32241057126
435,1436285756101,55.4244474867117
436,1436285756827,55.3068473161743
437,1436285757466,57.8643196192838
438,1436285758216,57.6052346268634
439,1436285758977,57.2125244843865
440,1436285759725,54.785206291076
441,1436285760454,52.943656178087
442,1436285761190,53.2661637553744
443,1436285761815,53.2733339198421
444,1436285762521,53.3668798119479
445,1436285763246,50.4139552221268
446,1436285763950,50.2490611931561
447,1436285764628,46.9827696935918
448,1436285765429,52.0346066165451
449,1436285766062,48.6386786201902
450,1436285766726,52.5501105858065
451,1436285767431,53.9862616110551
452,1436285768195,54.5458479731157
453,1436285769013,57.6067001428397
454,1436285769746,57.5171816216869
455,1436285770559,58.4979934801268
456,1436285771285,61.8759589905973
457,1436285772009,62.1843411354561
458,1436285772736,58.9289071396418
459,1436285773479,56.6943089421787
460,1436285774199,55.39549724789
461,1436285774921,57.1406190207526
462,1436285775683,52.9588330132412
463,1436285776415,52.0844128517663
464,1436285777174,53.8217573548732
465,1436285777867,53.8324319478279
466,1436285778453,53.7638859024384
467,1436285779152,54.0846086578317
468,1436285779887,54.8503937996484
469,1436285780630,54.4820912727756
470,1436285781443,54.0614743678224
471,1436285782057,51.8422268963601
472,1436285782774,55.332007995273
473,1436285783508,54.450344262571
474,1436285784220,57.2469389402139
475,1436285784889,56.1792936360736
476,1436285785498,55.870942138984
477,1436285786189,57.2853373809214
478,1436285786918,59.6641596064961
479,1436285787626,55.8252970015559
480,1436285788266,58.1743109282102
481,1436285788963,57.2712195606043
482,1436285789694,57.0057618921262
483,1436285790400,57.7008669447949
484,1436285791135,57.0927223715417
485,1436285791876,57.6223362296212
486,1436285792608,57.7153970541859
487,1436285793339,57.4088944470456
488,1436285794072,56.5520086497412
489,1436285794788,56.974741904629
490,1436285795474,56.3360217384651
491,1436285796159,57.3714595048559
492,1436285796840,56.0721745478512
493,1436285797570,57.1462195137786
494,1436285798293,58.0050229916448
495,1436285798992,56.1473335544068
496,1436285799712,56.4033949722304
497,1436285800443,57.3994631725634
498,1436285801149,55.5495748608276
499,1436285801884,56.6552959585898
500,1436285802606,56.2503961932586
501,1436285803326,56.7893182031129
502,1436285804056,58.4702935745597
503,1436285806042,55.0665131806644
504,1436285806815,55.1274416422224
505,1436285807565,55.2446353342334
506,1436285808286,55.8854705591815
507,1436285808992,55.2864822209983
508,1436285809735,56.0925101617482
509,1436285810463,57.2635079897073
510,1436285811186,57.8668728852985
511,1436285811878,57.4565200961798
512,1436285812520,53.9541135035659
513,1436285813248,55.1778896271836
514,1436285813987,55.8136421150047
515,1436285814732,54.4745339257307
516,1436285815488,55.8657608971606
517,1436285816208,56.7361978962937
518,1436285816854,56.3832914080231
519,1436285817578,58.2087332058458
520,1436285818308,56.5492233757886
521,1436285819042,57.6224911815057
522,1436285819766,56.5608478515729
523,1436285820398,59.4709475585225
524,1436285821118,57.3769884519853
525,1436285821845,57.668541449595
526,1436285822448,55.8020904242321
527,1436285824125,57.4292085608899
528,1436285824773,57.5679074219557
529,1436285825501,61.0845568982039
530,1436285826296,57.385146727093
531,1436285826937,59.4401610344804
532,1436285827668,64.9560518651783
533,1436285828432,60.168044157842
534,1436285829110,61.5369670159851
535,1436285829763,63.6002921318722
536,1436285830484,58.9198045121765
537,1436285831224,59.0282716279458
538,1436285831948,58.7270956650995
539,1436285832673,60.1677827430336
540,1436285833399,59.3804888162409
541,1436285834116,59.4520553632923
542,1436285834825,59.463924902503
543,1436285835468,58.787947633883
544,1436285836153,60.7911937953571
545,1436285836883,61.0949009947267
546,1436285837597,56.265329880011
547,1436285838316,58.2268707400615
548,1436285839040,58.6060159343119
549,1436285839812,58.5248958851251
550,1436285840546,57.9529964746733
551,1436285841258,58.5787478171946
552,1436285841979,58.1725366651416
553,1436285842637,58.2908940519589
554,1436285843355,58.969161990732
555,1436285844070,57.9204363499411
556,1436285844792,57.4618716512922
557,1436285845622,57.0733921497164
558,1436285846339,57.8113072791051
559,1436285846974,57.9639122834658
560,1436285847688,58.5729875992239
561,1436285848397,57.5401620736529
562,1436285849117,57.6967561648223
563,1436285849874,56.0452697143373
564,1436285850621,58.5376290987588
565,1436285851368,57.3913229365815
566,1436285852100,57.6357698662179
567,1436285852821,57.8844038977398
568,1436285853477,57.5218929908863
569,1436285855028,58.3421931675627
570,1436285855762,57.5741125619953
571,1436285856483,57.2827791232721
572,1436285857181,59.0261884868436
573,1436285857821,59.7576548890176
574,1436285858520,58.8287768014191
575,1436285859252,59.1207749100406
