id,attr_time,attr_light
1,1436464501029,32.0
2,1436464501049,32.0
3,1436464501068,32.0
4,1436464501089,32.0
5,1436464501112,32.0
6,1436464501128,32.0
7,1436464501148,32.0
8,1436464501171,32.0
9,1436464501191,32.0
10,1436464501211,33.0
11,1436464501229,33.0
12,1436464501251,33.0
13,1436464501272,33.0
14,1436464501289,33.0
15,1436464501310,33.0
16,1436464501336,33.0
17,1436464501409,33.0
18,1436464501410,33.0
19,1436464501411,33.0
20,1436464501412,33.0
21,1436464501430,33.0
22,1436464501452,33.0
23,1436464501468,34.0
24,1436464501488,34.0
25,1436464501522,34.0
26,1436464501529,34.0
27,1436464501550,35.0
28,1436464501570,35.0
29,1436464501590,35.0
30,1436464501610,36.0
31,1436464501630,36.0
32,1436464501652,36.0
33,1436464501672,36.0
34,1436464501689,36.0
35,1436464501712,36.0
36,1436464501729,36.0
37,1436464501750,36.0
38,1436464501772,36.0
39,1436464501793,36.0
40,1436464501812,37.0
41,1436464501829,37.0
42,1436464501850,37.0
43,1436464501872,37.0
44,1436464501892,37.0
45,1436464501909,37.0
46,1436464501931,37.0
47,1436464501950,37.0
48,1436464501970,37.0
49,1436464501992,37.0
50,1436464502009,37.0
51,1436464502031,37.0
52,1436464502059,37.0
53,1436464502129,38.0
54,1436464502130,38.0
55,1436464502131,38.0
56,1436464502132,38.0
57,1436464502150,38.0
58,1436464502171,39.0
59,1436464502189,39.0
60,1436464502211,39.0
61,1436464502241,39.0
62,1436464502249,39.0
63,1436464502274,39.0
64,1436464502289,39.0
65,1436464502316,39.0
66,1436464502330,39.0
67,1436464502352,39.0
68,1436464502371,39.0
69,1436464502392,39.0
70,1436464502411,39.0
71,1436464502432,38.0
72,1436464502450,38.0
73,1436464502471,38.0
74,1436464502493,38.0
75,1436464502513,38.0
76,1436464502531,38.0
77,1436464502549,38.0
78,1436464502570,38.0
79,1436464502591,38.0
80,1436464502612,38.0
81,1436464502631,38.0
82,1436464502653,38.0
83,1436464502670,38.0
84,1436464502689,38.0
85,1436464502710,38.0
86,1436464502736,37.0
87,1436464502752,37.0
88,1436464502772,37.0
89,1436464502791,37.0
90,1436464502814,38.0
91,1436464502868,38.0
92,1436464502869,37.0
93,1436464502870,37.0
94,1436464502892,38.0
95,1436464502911,38.0
96,1436464502930,38.0
97,1436464502950,38.0
98,1436464502970,37.0
99,1436464502992,37.0
100,1436464503011,37.0
101,1436464503031,36.0
102,1436464503052,36.0
103,1436464503071,36.0
104,1436464503093,36.0
105,1436464503114,36.0
106,1436464503132,36.0
107,1436464503153,35.0
108,1436464503173,35.0
109,1436464503193,35.0
110,1436464503214,35.0
111,1436464503233,34.0
112,1436464503253,34.0
113,1436464503272,34.0
114,1436464503291,34.0
115,1436464503314,34.0
116,1436464503374,34.0
117,1436464503375,34.0
118,1436464503376,33.0
119,1436464503393,33.0
120,1436464503411,33.0
121,1436464503431,33.0
122,1436464503451,33.0
123,1436464503474,33.0
124,1436464503496,34.0
125,1436464503516,34.0
126,1436464503533,34.0
127,1436464503554,34.0
128,1436464503630,34.0
129,1436464503631,34.0
130,1436464503632,34.0
131,1436464503633,34.0
132,1436464503654,34.0
133,1436464503678,35.0
134,1436464503690,35.0
135,1436464503710,35.0
136,1436464503730,35.0
137,1436464503754,35.0
138,1436464503771,35.0
139,1436464503790,35.0
140,1436464503811,36.0
141,1436464503830,36.0
142,1436464503854,36.0
143,1436464503874,36.0
144,1436464503894,36.0
145,1436464503914,36.0
146,1436464503934,37.0
147,1436464503954,37.0
148,1436464503974,37.0
149,1436464503994,37.0
150,1436464504012,37.0
151,1436464504032,37.0
152,1436464504054,38.0
153,1436464504071,37.0
154,1436464504092,37.0
155,1436464504112,37.0
156,1436464504136,37.0
157,1436464504156,37.0
158,1436464504177,37.0
159,1436464504195,37.0
160,1436464504212,37.0
161,1436464504232,37.0
162,1436464504251,37.0
163,1436464504274,37.0
164,1436464504294,37.0
165,1436464504365,37.0
166,1436464504366,36.0
167,1436464504367,36.0
168,1436464504374,36.0
169,1436464504395,36.0
170,1436464504418,35.0
171,1436464504431,35.0
172,1436464504451,35.0
173,1436464504474,35.0
174,1436464504492,35.0
175,1436464504512,35.0
176,1436464504532,34.0
177,1436464504558,34.0
178,1436464504574,34.0
179,1436464504593,34.0
180,1436464504614,34.0
181,1436464504635,33.0
182,1436464504655,33.0
183,1436464504675,33.0
184,1436464504695,33.0
185,1436464504715,33.0
186,1436464504734,33.0
187,1436464504755,33.0
188,1436464504771,33.0
189,1436464504794,33.0
190,1436464504812,33.0
191,1436464504850,33.0
192,1436464504877,33.0
193,1436464504878,33.0
194,1436464504892,33.0
195,1436464504912,33.0
196,1436464504932,33.0
197,1436464504951,33.0
198,1436464504972,33.0
199,1436464504992,33.0
200,1436464505012,33.0
201,1436464505052,33.0
202,1436464505053,33.0
203,1436464505077,33.0
204,1436464505095,34.0
205,1436464505112,34.0
206,1436464505132,34.0
207,1436464505152,34.0
208,1436464505172,34.0
209,1436464505203,34.0
210,1436464505222,34.0
211,1436464505232,34.0
212,1436464505252,34.0
213,1436464505272,34.0
214,1436464505292,34.0
215,1436464505315,34.0
216,1436464505332,34.0
217,1436464505352,33.0
218,1436464505372,33.0
219,1436464505392,33.0
220,1436464505412,33.0
221,1436464505434,33.0
222,1436464505453,33.0
223,1436464505473,33.0
224,1436464505494,33.0
225,1436464505515,33.0
226,1436464505532,32.0
227,1436464505552,32.0
228,1436464505573,32.0
229,1436464505594,32.0
230,1436464505615,32.0
231,1436464505640,32.0
232,1436464505652,32.0
233,1436464505673,32.0
234,1436464505693,32.0
235,1436464505712,32.0
236,1436464505739,32.0
237,1436464505766,32.0
238,1436464505773,32.0
239,1436464505795,32.0
240,1436464505812,32.0
241,1436464505836,33.0
242,1436464505854,33.0
243,1436464505874,33.0
244,1436464505893,33.0
245,1436464505916,33.0
246,1436464505936,33.0
247,1436464505955,33.0
248,1436464505972,33.0
249,1436464505996,33.0
250,1436464506016,33.0
251,1436464506036,33.0
252,1436464506054,33.0
253,1436464506076,33.0
254,1436464506096,32.0
255,1436464506115,32.0
256,1436464506136,32.0
257,1436464506156,32.0
258,1436464506176,33.0
259,1436464506196,33.0
260,1436464506215,33.0
261,1436464506236,33.0
262,1436464506256,33.0
263,1436464506276,33.0
264,1436464506296,33.0
265,1436464506315,33.0
266,1436464506336,33.0
267,1436464506354,33.0
268,1436464506393,33.0
269,1436464506394,33.0
270,1436464506420,33.0
271,1436464506443,33.0
272,1436464506475,33.0
273,1436464506476,33.0
274,1436464506493,33.0
275,1436464506517,33.0
276,1436464506563,33.0
277,1436464506564,33.0
278,1436464506575,33.0
279,1436464506593,33.0
280,1436464506613,33.0
281,1436464506634,33.0
282,1436464506654,33.0
283,1436464506680,33.0
284,1436464506694,33.0
285,1436464506714,33.0
286,1436464506734,33.0
287,1436464506757,33.0
288,1436464506774,33.0
289,1436464506794,33.0
290,1436464506814,33.0
291,1436464506834,33.0
292,1436464506855,33.0
293,1436464506874,33.0
294,1436464506894,33.0
295,1436464506914,33.0
296,1436464506934,33.0
297,1436464506955,34.0
298,1436464506975,34.0
299,1436464506994,34.0
300,1436464507014,34.0
301,1436464507033,34.0
302,1436464507053,34.0
303,1436464507073,34.0
304,1436464507093,34.0
305,1436464507116,34.0
306,1436464507133,34.0
307,1436464507162,34.0
308,1436464507173,34.0
309,1436464507193,34.0
310,1436464507213,34.0
311,1436464507233,34.0
312,1436464507254,34.0
313,1436464507273,34.0
314,1436464507293,34.0
315,1436464507313,34.0
316,1436464507333,34.0
317,1436464507354,34.0
318,1436464507373,34.0
319,1436464507393,34.0
320,1436464507413,34.0
321,1436464507433,34.0
322,1436464507455,34.0
323,1436464507473,33.0
324,1436464507493,33.0
325,1436464507514,33.0
326,1436464507534,33.0
327,1436464507557,33.0
328,1436464507576,33.0
329,1436464507596,33.0
330,1436464507614,34.0
331,1436464507638,34.0
332,1436464507677,34.0
333,1436464507678,34.0
334,1436464507696,34.0
335,1436464507714,34.0
336,1436464507735,34.0
337,1436464507754,34.0
338,1436464507775,34.0
339,1436464507795,34.0
340,1436464507814,34.0
341,1436464507834,35.0
342,1436464507854,35.0
343,1436464507874,35.0
344,1436464507895,35.0
345,1436464507916,36.0
346,1436464507936,36.0
347,1436464507955,36.0
348,1436464507974,36.0
349,1436464507996,36.0
350,1436464508019,36.0
351,1436464508038,36.0
352,1436464508058,36.0
353,1436464508075,36.0
354,1436464508096,36.0
355,1436464508115,36.0
356,1436464508136,36.0
357,1436464508156,36.0
358,1436464508180,36.0
359,1436464508206,36.0
360,1436464508214,36.0
361,1436464508236,36.0
362,1436464508265,36.0
363,1436464508275,36.0
364,1436464508295,36.0
365,1436464508315,36.0
366,1436464508366,36.0
367,1436464508367,36.0
368,1436464508375,36.0
369,1436464508394,36.0
370,1436464508414,36.0
371,1436464508437,35.0
372,1436464508455,35.0
373,1436464508476,36.0
374,1436464508495,36.0
375,1436464508519,35.0
376,1436464508537,35.0
377,1436464508559,35.0
378,1436464508577,35.0
379,1436464508596,35.0
380,1436464508615,35.0
381,1436464508636,35.0
382,1436464508656,34.0
383,1436464508677,34.0
384,1436464508698,34.0
385,1436464508717,34.0
386,1436464508739,34.0
387,1436464508756,34.0
388,1436464508776,33.0
389,1436464508796,33.0
390,1436464508820,33.0
391,1436464508840,33.0
392,1436464508861,33.0
393,1436464508879,33.0
394,1436464508896,33.0
395,1436464508917,33.0
396,1436464508935,33.0
397,1436464508958,33.0
398,1436464508976,33.0
399,1436464509047,33.0
400,1436464509048,33.0
401,1436464509049,33.0
402,1436464509058,33.0
403,1436464509076,33.0
404,1436464509096,33.0
405,1436464509116,33.0
406,1436464509136,33.0
407,1436464509156,33.0
408,1436464509177,33.0
409,1436464509205,33.0
410,1436464509216,33.0
411,1436464509239,33.0
412,1436464509259,33.0
413,1436464509279,33.0
414,1436464509299,33.0
415,1436464509333,33.0
416,1436464509336,33.0
417,1436464509356,33.0
418,1436464509376,33.0
419,1436464509396,33.0
420,1436464509416,33.0
421,1436464509438,33.0
422,1436464509460,33.0
423,1436464509480,33.0
424,1436464509498,33.0
425,1436464509518,33.0
426,1436464509538,33.0
427,1436464509556,33.0
428,1436464509578,33.0
429,1436464509597,33.0
430,1436464509618,33.0
431,1436464509638,33.0
432,1436464509658,33.0
433,1436464509677,34.0
434,1436464509696,34.0
435,1436464509776,34.0
436,1436464509777,34.0
437,1436464509778,34.0
438,1436464509779,34.0
439,1436464509797,34.0
440,1436464509821,34.0
441,1436464509837,34.0
442,1436464509856,34.0
443,1436464509878,34.0
444,1436464509898,34.0
445,1436464509920,34.0
446,1436464509937,34.0
447,1436464509958,34.0
448,1436464509980,34.0
449,1436464509999,34.0
450,1436464510020,34.0
451,1436464510038,34.0
452,1436464510057,34.0
453,1436464510079,34.0
454,1436464510098,34.0
455,1436464510119,34.0
456,1436464510138,34.0
457,1436464510159,35.0
458,1436464510178,35.0
459,1436464510199,35.0
460,1436464510219,35.0
461,1436464510237,35.0
462,1436464510257,35.0
463,1436464510278,35.0
464,1436464510299,35.0
465,1436464510319,35.0
466,1436464510340,35.0
467,1436464510359,35.0
468,1436464510380,35.0
469,1436464510399,35.0
470,1436464510420,35.0
471,1436464510442,35.0
472,1436464510502,35.0
473,1436464510514,35.0
474,1436464510515,35.0
475,1436464510520,35.0
476,1436464510538,35.0
477,1436464510562,35.0
478,1436464510577,35.0
479,1436464510604,35.0
480,1436464510639,35.0
481,1436464510640,35.0
482,1436464510682,35.0
483,1436464510683,35.0
484,1436464510699,35.0
485,1436464510718,35.0
486,1436464510741,35.0
487,1436464510758,35.0
488,1436464510779,35.0
489,1436464510801,34.0
490,1436464510821,34.0
491,1436464510841,34.0
492,1436464510858,34.0
493,1436464510879,34.0
494,1436464510901,34.0
495,1436464510921,34.0
496,1436464510939,34.0
497,1436464510959,34.0
498,1436464510981,34.0
499,1436464511001,34.0
500,1436464511021,34.0
501,1436464511037,34.0
502,1436464511060,34.0
503,1436464511080,34.0
504,1436464511101,34.0
505,1436464511121,35.0
506,1436464511141,35.0
507,1436464511158,35.0
508,1436464511180,35.0
509,1436464511199,36.0
510,1436464511222,36.0
511,1436464511287,37.0
512,1436464511288,37.0
513,1436464511289,37.0
514,1436464511298,37.0
515,1436464511320,37.0
516,1436464511339,37.0
517,1436464511360,38.0
518,1436464511380,38.0
519,1436464511398,38.0
520,1436464511421,38.0
521,1436464511444,38.0
522,1436464511459,38.0
523,1436464511479,38.0
524,1436464511501,39.0
525,1436464511521,39.0
526,1436464511541,39.0
527,1436464511563,39.0
528,1436464511579,39.0
529,1436464511601,39.0
530,1436464511618,39.0
531,1436464511638,39.0
532,1436464511659,39.0
533,1436464511685,39.0
534,1436464511699,39.0
535,1436464511718,40.0
536,1436464511739,40.0
537,1436464511761,40.0
538,1436464511779,40.0
539,1436464511801,41.0
540,1436464511821,41.0
541,1436464511841,43.0
542,1436464511862,43.0
543,1436464511879,45.0
544,1436464511899,45.0
545,1436464511919,45.0
546,1436464511939,45.0
547,1436464512004,45.0
548,1436464512005,45.0
549,1436464512006,45.0
550,1436464512027,45.0
551,1436464512039,45.0
552,1436464512061,45.0
553,1436464512079,45.0
554,1436464512099,45.0
555,1436464512124,45.0
556,1436464512139,45.0
557,1436464512160,44.0
558,1436464512179,44.0
559,1436464512206,44.0
560,1436464512219,44.0
561,1436464512242,44.0
562,1436464512259,44.0
563,1436464512282,44.0
564,1436464512299,44.0
565,1436464512320,44.0
566,1436464512342,44.0
567,1436464512359,44.0
568,1436464512382,44.0
569,1436464512400,44.0
570,1436464512420,44.0
571,1436464512442,44.0
572,1436464512461,44.0
573,1436464512484,44.0
574,1436464512501,43.0
575,1436464512521,43.0
576,1436464512542,43.0
577,1436464512562,43.0
578,1436464512582,42.0
579,1436464512601,42.0
580,1436464512623,41.0
581,1436464512641,41.0
582,1436464512662,40.0
583,1436464512680,40.0
584,1436464512701,39.0
585,1436464512748,39.0
586,1436464512749,39.0
587,1436464512769,40.0
588,1436464512779,40.0
589,1436464512802,41.0
590,1436464512820,41.0
591,1436464512841,43.0
592,1436464512863,43.0
593,1436464512880,47.0
594,1436464512900,47.0
595,1436464512921,50.0
596,1436464512941,50.0
597,1436464512977,53.0
598,1436464512979,57.0
599,1436464513013,57.0
600,1436464513019,60.0
601,1436464513040,60.0
602,1436464513060,64.0
603,1436464513080,64.0
604,1436464513099,66.0
605,1436464513119,66.0
606,1436464513139,69.0
607,1436464513160,69.0
608,1436464513179,71.0
609,1436464513199,71.0
610,1436464513220,73.0
611,1436464513242,75.0
612,1436464513265,75.0
613,1436464513284,77.0
614,1436464513306,77.0
615,1436464513322,78.0
616,1436464513377,78.0
617,1436464513378,78.0
618,1436464513382,78.0
619,1436464513403,79.0
620,1436464513421,79.0
621,1436464513471,79.0
622,1436464513472,79.0
623,1436464513483,80.0
624,1436464513500,80.0
625,1436464513520,80.0
626,1436464513541,81.0
627,1436464513560,81.0
628,1436464513585,81.0
629,1436464513600,81.0
630,1436464513622,81.0
631,1436464513641,81.0
632,1436464513661,81.0
633,1436464513682,81.0
634,1436464513703,81.0
635,1436464513723,81.0
636,1436464513744,80.0
637,1436464513764,80.0
638,1436464513784,80.0
639,1436464513804,80.0
640,1436464513823,80.0
641,1436464513844,80.0
642,1436464513864,80.0
643,1436464513884,80.0
644,1436464513902,80.0
645,1436464513921,80.0
646,1436464513944,80.0
647,1436464513964,79.0
648,1436464513985,79.0
649,1436464514004,79.0
650,1436464514021,79.0
651,1436464514041,79.0
652,1436464514061,79.0
653,1436464514085,79.0
654,1436464514105,79.0
655,1436464514124,79.0
656,1436464514143,79.0
657,1436464514163,79.0
658,1436464514238,79.0
659,1436464514240,79.0
660,1436464514241,79.0
661,1436464514242,79.0
662,1436464514264,79.0
663,1436464514285,79.0
664,1436464514301,79.0
665,1436464514329,79.0
666,1436464514343,79.0
667,1436464514363,79.0
668,1436464514384,79.0
669,1436464514401,79.0
670,1436464514427,79.0
671,1436464514444,78.0
672,1436464514464,78.0
673,1436464514484,78.0
674,1436464514504,78.0
675,1436464514524,78.0
676,1436464514544,78.0
677,1436464514565,78.0
678,1436464514584,78.0
679,1436464514604,78.0
680,1436464514622,78.0
681,1436464514643,78.0
682,1436464514661,78.0
683,1436464514681,78.0
684,1436464514702,77.0
685,1436464514722,77.0
686,1436464514758,77.0
687,1436464514761,77.0
688,1436464514781,77.0
689,1436464514802,77.0
690,1436464514821,77.0
691,1436464514841,77.0
692,1436464514862,78.0
693,1436464514891,79.0
694,1436464514950,79.0
695,1436464514951,80.0
696,1436464514952,80.0
697,1436464514981,81.0
698,1436464514982,81.0
699,1436464515002,81.0
700,1436464515021,81.0
701,1436464515042,81.0
702,1436464515062,81.0
703,1436464515093,80.0
704,1436464515101,80.0
705,1436464515121,80.0
706,1436464515141,79.0
707,1436464515161,79.0
708,1436464515181,79.0
709,1436464515201,79.0
710,1436464515221,79.0
711,1436464515243,79.0
712,1436464515264,79.0
713,1436464515284,79.0
714,1436464515305,79.0
715,1436464515322,79.0
716,1436464515343,79.0
717,1436464515362,79.0
718,1436464515384,79.0
719,1436464515405,79.0
720,1436464515425,79.0
721,1436464515444,79.0
722,1436464515463,79.0
723,1436464515481,79.0
724,1436464515501,79.0
725,1436464515523,78.0
726,1436464515545,78.0
727,1436464515565,78.0
728,1436464515585,78.0
729,1436464515602,78.0
730,1436464515625,78.0
731,1436464515670,77.0
732,1436464515671,77.0
733,1436464515688,76.0
734,1436464515704,75.0
735,1436464515724,75.0
736,1436464515741,74.0
737,1436464515762,74.0
738,1436464515784,73.0
739,1436464515802,73.0
740,1436464515822,72.0
741,1436464515846,72.0
742,1436464515863,72.0
743,1436464515882,72.0
744,1436464515906,71.0
745,1436464515926,71.0
746,1436464515946,70.0
747,1436464515963,69.0
748,1436464515986,69.0
749,1436464516006,68.0
750,1436464516026,68.0
751,1436464516043,67.0
752,1436464516063,67.0
753,1436464516085,67.0
754,1436464516105,67.0
755,1436464516126,66.0
756,1436464516145,66.0
757,1436464516167,65.0
758,1436464516188,65.0
759,1436464516207,65.0
760,1436464516226,64.0
761,1436464516245,64.0
762,1436464516264,64.0
763,1436464516285,64.0
764,1436464516304,63.0
765,1436464516323,63.0
766,1436464516395,63.0
767,1436464516396,63.0
768,1436464516397,63.0
769,1436464516404,63.0
770,1436464516424,63.0
771,1436464516445,63.0
772,1436464516463,63.0
773,1436464516488,63.0
774,1436464516505,62.0
775,1436464516524,62.0
776,1436464516546,62.0
777,1436464516564,62.0
778,1436464516586,62.0
779,1436464516606,62.0
780,1436464516626,62.0
781,1436464516646,61.0
782,1436464516666,61.0
783,1436464516696,61.0
784,1436464516714,61.0
785,1436464516730,61.0
786,1436464516753,61.0
787,1436464516763,61.0
788,1436464516786,61.0
789,1436464516804,61.0
790,1436464516826,61.0
791,1436464516846,61.0
792,1436464516865,61.0
793,1436464516884,61.0
794,1436464516906,61.0
795,1436464516926,61.0
796,1436464516946,60.0
797,1436464516966,60.0
798,1436464516987,60.0
799,1436464517007,60.0
800,1436464517026,60.0
801,1436464517046,60.0
802,1436464517066,60.0
803,1436464517119,60.0
804,1436464517145,60.0
805,1436464517146,59.0
806,1436464517147,59.0
807,1436464517165,59.0
808,1436464517196,59.0
809,1436464517205,59.0
810,1436464517235,59.0
811,1436464517248,59.0
812,1436464517264,59.0
813,1436464517289,59.0
814,1436464517305,59.0
815,1436464517324,59.0
816,1436464517344,59.0
817,1436464517364,59.0
818,1436464517384,59.0
819,1436464517405,59.0
820,1436464517424,59.0
821,1436464517444,59.0
822,1436464517464,59.0
823,1436464517484,59.0
824,1436464517506,59.0
825,1436464517524,59.0
826,1436464517544,59.0
827,1436464517564,59.0
828,1436464517584,59.0
829,1436464517605,59.0
830,1436464517625,59.0
831,1436464517644,59.0
832,1436464517664,59.0
833,1436464517684,60.0
834,1436464517703,60.0
835,1436464517723,60.0
836,1436464517743,60.0
837,1436464517768,60.0
838,1436464517789,60.0
839,1436464517804,60.0
840,1436464517823,60.0
841,1436464517843,60.0
842,1436464517863,60.0
843,1436464517883,60.0
844,1436464517903,60.0
845,1436464517923,60.0
846,1436464517943,61.0
847,1436464517963,61.0
848,1436464517983,61.0
849,1436464518003,61.0
850,1436464518023,61.0
851,1436464518043,61.0
852,1436464518063,61.0
853,1436464518083,61.0
854,1436464518103,61.0
855,1436464518123,61.0
856,1436464518143,61.0
857,1436464518168,61.0
858,1436464518185,61.0
859,1436464518207,61.0
860,1436464518226,61.0
861,1436464518246,60.0
862,1436464518267,60.0
863,1436464518288,59.0
864,1436464518307,59.0
865,1436464518326,58.0
866,1436464518345,58.0
867,1436464518374,57.0
868,1436464518430,55.0
869,1436464518431,55.0
870,1436464518432,54.0
871,1436464518452,54.0
872,1436464518465,53.0
873,1436464518493,53.0
