id,attr_time,attr_x,attr_y,attr_z
1,1437236129743,-14.1,-28.855,25.395
2,1437236129744,-14.1,-28.855,25.395
3,1437236129745,-14.1,-28.855,25.395
4,1437236129754,-14.1,-28.855,25.395
5,1437236129780,-14.1,-28.855,25.395
6,1437236129794,-14.1,-28.855,25.395
7,1437236129816,-14.1,-28.855,25.395
8,1437236129836,-14.1,-28.855,25.395
9,1437236129854,-14.1,-28.855,25.695
10,1437236129875,-14.1,-28.855,25.695
11,1437236129895,-14.1,-28.855,25.695
12,1437236129917,-14.1,-28.855,25.695
13,1437236129933,-14.1,-28.855,25.695
14,1437236129957,-14.1,-28.855,25.695
15,1437236129977,-14.1,-28.855,25.695
16,1437236129995,-14.1,-28.855,25.695
17,1437236130015,-14.1,-28.855,25.695
18,1437236130035,-14.1,-28.855,25.695
19,1437236130056,-14.1,-28.855,25.695
20,1437236130076,-14.1,-28.855,25.695
21,1437236130097,-14.1,-28.855,25.695
22,1437236130115,-14.1,-28.855,25.695
23,1437236130136,-14.1,-28.855,25.695
24,1437236130157,-14.1,-28.855,25.695
25,1437236130176,-14.1,-28.855,25.695
26,1437236130195,-14.1,-28.855,25.695
27,1437236130215,-14.1,-28.855,25.695
28,1437236130237,-14.1,-28.855,25.695
29,1437236130257,-14.1,-28.855,25.695
30,1437236130277,-14.1,-28.855,25.695
31,1437236130298,-14.1,-28.855,25.695
32,1437236130315,-14.1,-28.855,25.695
33,1437236130336,-14.1,-28.855,25.695
34,1437236130356,-14.1,-28.855,25.695
35,1437236130374,-14.1,-28.855,25.695
36,1437236130397,-14.1,-28.855,25.695
37,1437236130454,-14.1,-28.855,25.695
38,1437236130457,-14.1,-28.855,25.695
39,1437236130458,-14.1,-28.855,25.695
40,1437236130474,-14.1,-28.855,25.695
41,1437236130495,-14.1,-28.855,25.695
42,1437236130514,-14.1,-28.855,25.695
43,1437236130534,-14.1,-28.855,25.695
44,1437236130557,-14.1,-28.855,25.695
45,1437236130574,-14.1,-28.855,25.695
46,1437236130595,-14.1,-28.855,25.695
47,1437236130614,-14.1,-28.855,25.695
48,1437236130635,-14.1,-28.855,25.695
49,1437236130654,-14.1,-28.855,25.695
50,1437236130676,-14.1,-28.855,25.695
51,1437236130698,-14.1,-28.855,25.695
52,1437236130718,-14.1,-28.855,25.695
53,1437236130737,-14.1,-28.855,25.695
54,1437236130758,-14.1,-28.855,25.695
55,1437236130777,-14.1,-28.855,25.695
56,1437236130798,-14.1,-28.855,25.695
57,1437236130817,-14.1,-28.855,25.695
58,1437236130838,-14.1,-28.855,25.695
59,1437236130859,-14.1,-28.855,25.695
60,1437236130877,-14.1,-28.855,25.695
61,1437236130898,-14.1,-28.855,25.695
62,1437236130915,-14.1,-28.855,25.695
63,1437236130935,-14.1,-28.855,25.695
64,1437236130954,-14.1,-28.855,25.695
65,1437236130979,-14.1,-28.855,25.695
66,1437236130995,-14.1,-28.855,25.695
67,1437236131016,-14.1,-28.855,25.695
68,1437236131034,-14.1,-28.855,25.695
69,1437236131055,-14.1,-28.855,25.695
70,1437236131075,-14.1,-28.855,25.695
71,1437236131095,-14.1,-28.855,25.695
72,1437236131116,-14.1,-28.855,25.695
73,1437236131137,-14.1,-28.855,25.695
74,1437236131207,-14.1,-28.855,25.695
75,1437236131208,-14.1,-28.855,25.695
76,1437236131209,-14.1,-28.855,25.695
77,1437236131218,-14.1,-28.855,25.695
78,1437236131235,-14.1,-28.855,25.695
79,1437236131256,-14.1,-28.855,25.695
80,1437236131275,-14.1,-28.855,25.695
81,1437236131299,-14.1,-28.855,25.695
82,1437236131316,-14.1,-28.855,25.695
83,1437236131336,-14.1,-28.855,25.695
84,1437236131355,-14.1,-28.855,25.695
85,1437236131376,-14.1,-28.855,25.695
86,1437236131397,-14.1,-28.855,25.695
87,1437236131418,-14.1,-28.855,25.695
88,1437236131437,-14.1,-28.855,25.695
89,1437236131457,-14.1,-28.855,25.695
90,1437236131478,-14.1,-28.855,25.695
91,1437236131498,-14.1,-28.855,25.695
92,1437236131518,-14.1,-28.855,25.695
93,1437236131538,-14.1,-28.855,25.695
94,1437236131558,-14.1,-28.855,25.695
95,1437236131578,-14.1,-28.855,25.695
96,1437236131596,-14.1,-28.855,25.695
97,1437236131618,-14.1,-28.855,25.695
98,1437236131638,-14.1,-28.855,25.695
99,1437236131658,-14.1,-28.855,25.695
100,1437236131677,-14.1,-28.855,25.695
101,1437236131698,-14.1,-28.855,25.695
102,1437236131718,-14.1,-28.855,25.695
103,1437236131738,-14.1,-28.855,25.695
104,1437236131759,-14.1,-28.855,25.695
105,1437236131778,-14.1,-28.855,25.695
106,1437236131798,-14.1,-28.855,25.695
107,1437236131816,-14.1,-28.855,25.695
108,1437236131837,-14.1,-28.855,25.695
109,1437236131855,-14.1,-28.855,25.695
110,1437236131878,-14.1,-28.855,25.695
111,1437236131927,-14.1,-28.855,25.695
112,1437236131928,-14.1,-28.855,25.695
113,1437236131940,-14.1,-28.855,25.695
114,1437236131968,-14.1,-28.855,25.695
115,1437236131990,-14.1,-28.855,25.695
116,1437236132077,-13.8,-28.855,25.695
117,1437236132078,-13.8,-28.855,25.379
118,1437236132079,-13.8,-28.855,25.379
119,1437236132080,-13.8,-28.855,25.379
120,1437236132081,-13.8,-28.855,25.379
121,1437236132096,-13.8,-28.855,25.379
122,1437236132117,-13.8,-28.855,25.379
123,1437236132141,-13.8,-28.855,25.379
124,1437236132156,-13.8,-28.855,25.379
125,1437236132177,-13.8,-28.855,25.379
126,1437236132198,-13.8,-28.855,25.379
127,1437236132218,-13.8,-28.855,25.379
128,1437236132238,-13.8,-28.855,25.379
129,1437236132258,-13.8,-28.855,25.379
130,1437236132277,-13.8,-28.855,25.379
131,1437236132298,-13.8,-28.855,25.379
132,1437236132318,-13.8,-28.855,25.379
133,1437236132338,-13.8,-28.855,25.379
134,1437236132358,-13.8,-28.855,25.379
135,1437236132377,-13.8,-28.855,25.379
136,1437236132399,-13.8,-28.855,25.379
137,1437236132419,-13.8,-28.855,25.379
138,1437236132445,-13.8,-28.855,25.379
139,1437236132457,-13.493,-28.855,25.379
140,1437236132479,-13.493,-28.855,25.379
141,1437236132498,-13.493,-28.855,25.379
142,1437236132518,-13.493,-28.855,25.379
143,1437236132539,-13.162,-28.855,25.379
144,1437236132558,-13.162,-28.855,25.688
145,1437236132579,-13.162,-28.855,25.688
146,1437236132597,-12.823,-28.855,25.688
147,1437236132616,-12.823,-28.855,25.688
148,1437236132645,-12.823,-28.855,25.688
149,1437236132703,-12.519,-28.855,25.688
150,1437236132704,-12.519,-28.855,25.688
151,1437236132705,-12.519,-28.855,26.013
152,1437236132723,-12.519,-28.855,26.013
153,1437236132736,-12.168,-28.855,26.013
154,1437236132764,-12.168,-28.855,26.013
155,1437236132778,-12.168,-28.855,26.013
156,1437236132798,-12.168,-28.855,26.013
157,1437236132817,-12.168,-28.855,26.013
158,1437236132837,-12.168,-29.156,26.013
159,1437236132858,-11.83,-29.156,26.013
160,1437236132878,-11.83,-29.156,26.013
161,1437236132899,-11.83,-29.156,26.013
162,1437236132920,-11.83,-29.156,26.013
163,1437236132940,-11.83,-29.518,26.013
164,1437236132960,-11.83,-29.518,25.682
165,1437236132977,-11.83,-29.518,25.682
166,1437236133002,-11.83,-29.518,24.617
167,1437236133018,-11.83,-29.911,23.669
168,1437236133039,-12.295,-29.911,22.564
169,1437236133057,-13.063,-29.911,21.925
170,1437236133078,-14.457,-30.29,20.765
171,1437236133099,-15.376,-30.29,19.981
172,1437236133120,-16.049,-30.29,19.32
173,1437236133140,-16.564,-30.667,19.32
174,1437236133160,-16.564,-30.667,18.885
175,1437236133177,-16.136,-30.667,20.314
176,1437236133198,-16.136,-30.667,21.366
177,1437236133219,-15.467,-30.667,22.46
178,1437236133240,-14.591,-30.667,23.394
179,1437236133274,-13.754,-30.667,24.24
180,1437236133277,-13.185,-30.667,25.381
181,1437236133297,-12.576,-30.667,26.004
182,1437236133317,-11.575,-30.667,26.004
183,1437236133337,-10.853,-30.667,24.891
184,1437236133357,-10.853,-30.667,24.501
185,1437236133377,-10.853,-30.667,24.501
186,1437236133410,-10.374,-30.667,24.119
187,1437236133420,-10.374,-30.667,24.119
188,1437236133437,-9.66,-30.667,24.119
189,1437236133457,-9.66,-30.667,24.119
190,1437236133477,-10.267,-30.667,23.544
191,1437236133497,-10.671,-30.667,23.544
192,1437236133517,-10.98,-30.358,23.544
193,1437236133544,-10.98,-30.358,23.544
194,1437236133557,-10.98,-30.358,23.544
195,1437236133578,-10.98,-30.358,24.226
196,1437236133600,-11.311,-30.358,24.226
197,1437236133617,-11.311,-30.358,24.226
198,1437236133638,-10.748,-30.358,24.226
199,1437236133660,-10.748,-30.764,24.226
200,1437236133679,-10.748,-30.764,24.226
201,1437236133697,-11.999,-30.764,23.895
202,1437236133718,-13.211,-31.114,23.895
203,1437236133738,-13.586,-31.114,23.42
204,1437236133758,-14.419,-31.114,23.42
205,1437236133778,-15.161,-31.114,22.991
206,1437236133799,-15.864,-31.114,22.636
207,1437236133819,-16.307,-31.114,22.14
208,1437236133838,-17.016,-31.114,21.778
209,1437236133858,-17.466,-31.114,21.2
210,1437236133877,-18.365,-31.114,21.2
211,1437236133897,-19.119,-31.114,20.605
212,1437236133917,-19.491,-31.114,20.249
213,1437236133943,-19.86,-31.114,19.486
214,1437236133963,-19.86,-31.114,19.486
215,1437236133978,-20.408,-31.114,19.486
216,1437236134000,-20.408,-31.114,18.899
217,1437236134019,-20.945,-31.114,18.899
218,1437236134039,-20.945,-31.114,18.899
219,1437236134057,-20.631,-31.114,18.899
220,1437236134161,-20.23,-31.114,18.899
221,1437236134162,-19.871,-31.114,18.899
222,1437236134163,-19.871,-30.787,18.899
223,1437236134164,-19.871,-30.787,18.899
224,1437236134165,-19.871,-30.787,18.899
225,1437236134180,-19.871,-30.787,18.487
226,1437236134211,-19.871,-30.787,18.487
227,1437236134232,-19.871,-30.787,18.487
228,1437236134269,-19.871,-30.787,18.112
229,1437236134270,-19.871,-30.787,18.112
230,1437236134278,-19.871,-30.787,18.112
231,1437236134298,-19.871,-30.787,18.112
232,1437236134320,-19.871,-31.169,17.724
233,1437236134339,-19.165,-31.169,17.724
234,1437236134359,-19.165,-31.169,17.724
235,1437236134381,-18.452,-31.497,17.724
236,1437236134402,-17.887,-31.497,17.724
237,1437236134419,-17.572,-31.497,17.39
238,1437236134441,-17.123,-31.895,17.39
239,1437236134460,-16.421,-31.895,17.39
240,1437236134479,-15.876,-31.895,17.39
241,1437236134502,-15.106,-32.353,17.39
242,1437236134519,-14.138,-32.353,17.39
243,1437236134540,-13.362,-32.693,17.39
244,1437236134558,-12.634,-32.693,17.39
245,1437236134579,-12.634,-33.027,17.077
246,1437236134600,-12.03,-33.027,17.077
247,1437236134620,-11.337,-33.027,17.077
248,1437236134640,-11.337,-33.453,17.077
249,1437236134660,-11.337,-33.453,17.077
250,1437236134682,-10.963,-33.453,17.077
251,1437236134700,-10.502,-33.802,17.077
252,1437236134722,-10.502,-33.802,16.691
253,1437236134741,-10.899,-33.802,16.691
254,1437236134761,-10.899,-34.231,15.91
255,1437236134779,-10.899,-34.231,13.835
256,1437236134800,-11.48,-34.561,12.686
257,1437236134823,-11.48,-34.561,11.718
258,1437236134891,-11.48,-34.864,11.373
259,1437236134892,-11.48,-34.864,9.742
260,1437236134893,-11.48,-35.192,8.723
261,1437236134903,-11.48,-35.192,8.312
262,1437236134920,-11.48,-35.192,8.312
263,1437236134942,-12.396,-35.612,7.579
264,1437236134960,-12.739,-35.612,7.579
265,1437236134979,-13.061,-35.612,7.579
266,1437236134999,-13.061,-35.966,7.579
267,1437236135019,-13.061,-35.966,7.579
268,1437236135039,-12.5,-35.966,6.941
269,1437236135064,-12.161,-36.325,6.941
270,1437236135083,-12.161,-36.325,6.153
271,1437236135100,-11.86,-36.325,6.153
272,1437236135123,-11.462,-36.74,5.36
273,1437236135141,-10.649,-36.74,4.527
274,1437236135163,-9.117,-36.74,3.579
275,1437236135183,-7.252,-37.104,3.251
276,1437236135201,-4.939,-37.104,0.83
277,1437236135222,-3.08,-37.104,-0.592
278,1437236135243,-0.547,-37.46,-2.033
279,1437236135261,1.849,-37.46,-3.683
280,1437236135282,4.844,-37.46,-5.049
281,1437236135301,7.531,-37.46,-6.355
282,1437236135322,10.71,-37.46,-7.078
283,1437236135342,13.98,-37.46,-8.171
284,1437236135365,16.984,-37.46,-8.171
285,1437236135385,20.161,-35.026,-8.784
286,1437236135405,23.245,-32.47,-9.507
287,1437236135422,25.865,-30.104,-8.416
288,1437236135439,28.259,-27.398,-9.451
289,1437236135469,30.126,-25.392,-9.451
290,1437236135479,31.82,-22.795,-10.249
291,1437236135505,33.576,-20.8,-11.607
292,1437236135525,33.576,-18.702,-13.339
293,1437236135545,33.897,-16.534,-15.361
294,1437236135561,33.897,-14.959,-18.095
295,1437236135591,33.897,-13.208,-19.715
296,1437236135660,33.897,-11.392,-20.957
297,1437236135661,33.897,-10.086,-20.957
298,1437236135662,34.841,-8.175,-20.957
299,1437236135663,35.586,-6.655,-20.957
300,1437236135681,36.038,-5.158,-20.957
301,1437236135701,36.473,-3.759,-20.957
302,1437236135720,36.473,-2.479,-20.234
303,1437236135740,36.807,-0.875,-21.701
304,1437236135760,36.807,0.209,-22.473
305,1437236135795,36.466,1.293,-22.961
306,1437236135802,35.867,1.98,-24.288
307,1437236135819,35.867,3.552,-24.288
308,1437236135846,35.867,4.435,-24.288
309,1437236135864,35.867,5.134,-23.733
310,1437236135881,35.867,5.709,-23.049
311,1437236135903,35.867,6.857,-22.395
312,1437236135924,35.867,7.247,-22.045
313,1437236135943,36.251,7.641,-22.045
314,1437236135962,36.251,8.23,-22.045
315,1437236135983,36.848,9.178,-20.64
316,1437236136001,37.472,9.178,-17.489
317,1437236136024,37.947,10.273,-15.18
318,1437236136043,38.568,10.273,-13.891
319,1437236136063,38.999,10.273,-13.423
320,1437236136085,38.999,10.273,-13.977
321,1437236136100,38.999,10.273,-14.753
322,1437236136123,38.999,10.783,-15.255
323,1437236136144,38.999,10.783,-15.255
324,1437236136163,38.999,11.094,-15.255
325,1437236136183,38.999,11.398,-15.255
326,1437236136204,39.355,12.063,-13.607
327,1437236136223,39.355,12.675,-12.353
328,1437236136243,39.355,12.675,-12.353
329,1437236136264,39.355,13.131,-11.195
330,1437236136283,39.675,13.131,-11.195
331,1437236136305,39.675,13.131,-10.177
332,1437236136324,39.675,13.493,-10.809
333,1437236136343,40.1,13.493,-10.809
334,1437236136365,40.1,13.493,-10.041
335,1437236136442,40.1,13.88,-9.6
336,1437236136443,40.1,14.364,-9.6
337,1437236136444,40.1,14.364,-8.622
338,1437236136445,40.1,14.949,-7.911
339,1437236136464,40.1,14.949,-7.458
340,1437236136481,40.1,15.368,-6.982
341,1437236136503,40.1,15.368,-6.141
342,1437236136520,40.1,15.682,-6.445
343,1437236136541,40.1,15.682,-5.961
344,1437236136561,40.1,15.682,-5.433
345,1437236136585,40.1,15.682,-4.85
346,1437236136602,40.1,15.995,-4.481
347,1437236136626,40.1,15.995,-3.771
348,1437236136643,40.1,16.3,-3.771
349,1437236136664,40.1,16.3,-3.178
350,1437236136684,40.1,16.3,-3.178
351,1437236136704,40.1,16.676,-3.178
352,1437236136724,40.1,16.676,-2.674
353,1437236136744,40.1,17.012,-2.233
354,1437236136764,40.1,17.012,-2.233
355,1437236136783,40.1,17.338,-2.233
356,1437236136804,40.1,17.338,-1.594
357,1437236136822,40.1,17.338,-1.594
358,1437236136841,40.1,17.726,-1.092
359,1437236136865,40.1,17.726,-0.749
360,1437236136883,40.1,17.726,-0.749
361,1437236136903,40.1,18.087,-0.749
362,1437236136921,39.768,18.087,-0.749
363,1437236136945,39.768,18.087,-0.749
364,1437236136969,39.768,18.087,-0.749
365,1437236136984,39.768,18.392,-0.749
366,1437236137004,39.768,18.392,-0.749
367,1437236137023,39.768,18.392,-0.749
368,1437236137047,39.768,18.392,-0.749
369,1437236137070,39.768,18.392,-0.44
370,1437236137081,39.768,18.392,-0.44
371,1437236137103,39.768,18.392,-0.14
372,1437236137183,39.768,18.392,-0.14
373,1437236137184,39.456,18.392,-0.14
374,1437236137185,39.456,18.392,0.204
375,1437236137186,39.456,18.392,0.204
376,1437236137201,39.456,18.693,0.204
377,1437236137225,39.456,18.693,0.204
378,1437236137241,39.456,18.693,0.204
379,1437236137268,39.456,18.693,0.204
380,1437236137283,39.456,18.693,0.537
381,1437236137303,39.456,18.693,0.537
382,1437236137323,39.456,18.693,0.537
383,1437236137343,39.456,18.693,0.537
384,1437236137367,39.456,18.693,0.537
385,1437236137384,39.456,18.693,0.537
386,1437236137404,39.456,18.693,0.537
387,1437236137424,39.456,18.693,0.537
388,1437236137444,39.456,18.693,0.537
389,1437236137464,39.456,18.693,0.537
390,1437236137481,39.456,18.693,0.537
391,1437236137504,39.456,18.693,0.537
392,1437236137524,39.456,18.693,0.537
393,1437236137544,39.456,18.693,0.537
394,1437236137563,39.456,18.693,0.537
395,1437236137582,39.456,18.693,0.537
396,1437236137607,39.456,18.693,0.537
397,1437236137625,39.456,18.998,0.537
398,1437236137644,39.456,18.998,0.537
399,1437236137664,39.456,18.998,0.537
400,1437236137685,39.456,18.998,0.537
401,1437236137705,39.456,18.998,0.231
402,1437236137724,39.456,18.998,0.231
403,1437236137750,39.456,18.998,0.231
404,1437236137761,39.456,18.998,0.231
405,1437236137781,39.456,18.998,-0.103
406,1437236137801,39.456,18.998,-0.103
407,1437236137823,39.456,18.998,-0.103
408,1437236137843,39.456,18.687,-0.527
409,1437236137861,39.456,18.687,-0.527
410,1437236137885,39.456,18.687,-1.062
411,1437236137901,39.456,18.687,-1.689
412,1437236137921,39.768,18.292,-1.689
413,1437236137942,39.768,18.292,-2.534
414,1437236137969,39.768,18.292,-2.534
415,1437236137985,39.768,17.935,-3.013
416,1437236138003,39.768,17.935,-3.541
417,1437236138023,39.768,17.935,-3.541
418,1437236138044,39.768,17.495,-3.059
419,1437236138061,39.768,17.495,-3.059
420,1437236138080,39.768,17.495,-3.059
421,1437236138100,40.074,17.041,-3.059
422,1437236138121,40.074,17.041,-3.059
423,1437236138141,40.074,16.734,-3.059
424,1437236138161,40.074,16.734,-3.059
425,1437236138184,40.074,16.734,-3.059
426,1437236138205,40.074,16.38,-3.059
427,1437236138225,40.074,16.38,-3.059
428,1437236138245,40.074,16.38,-3.059
429,1437236138264,40.074,16.38,-3.059
430,1437236138284,40.074,16.38,-3.059
431,1437236138304,40.074,16.079,-3.059
432,1437236138325,40.074,16.079,-3.059
433,1437236138342,40.074,16.079,-3.059
434,1437236138363,40.074,16.079,-3.059
435,1437236138385,40.074,16.079,-2.745
436,1437236138402,40.074,16.079,-2.745
437,1437236138422,40.074,16.079,-2.745
438,1437236138441,40.074,16.079,-2.362
439,1437236138466,40.074,16.079,-2.362
440,1437236138482,40.074,16.416,-2.362
441,1437236138507,40.074,16.416,-2.362
442,1437236138525,40.074,16.416,-2.033
443,1437236138552,40.074,16.416,-2.033
444,1437236138561,40.074,16.754,-2.033
445,1437236138582,40.074,16.754,-2.033
446,1437236138614,40.074,16.754,-1.701
447,1437236138696,40.074,16.754,-1.701
448,1437236138697,40.074,16.754,-1.701
449,1437236138698,40.074,16.754,-1.701
450,1437236138699,40.074,17.066,-1.327
451,1437236138704,40.074,17.066,-1.327
452,1437236138724,40.074,17.066,-1.327
453,1437236138743,40.074,17.066,-1.327
454,1437236138763,40.074,17.066,-0.967
455,1437236138783,40.074,17.066,-0.967
456,1437236138802,40.074,17.066,-0.967
457,1437236138824,40.074,17.066,-0.967
458,1437236138843,40.074,17.066,-0.967
459,1437236138864,40.074,17.066,-0.967
460,1437236138883,40.074,17.066,-1.29
461,1437236138902,40.074,16.719,-2.301
462,1437236138925,40.074,16.719,-2.671
463,1437236138946,40.074,16.719,-2.671
464,1437236138963,40.074,16.418,-2.671
465,1437236139051,40.074,16.418,-2.209
466,1437236139052,40.074,16.418,-2.209
467,1437236139096,40.074,16.418,-2.209
468,1437236139097,40.074,16.091,-2.209
469,1437236139098,40.399,16.091,-2.209
470,1437236139099,40.399,16.091,-2.209
471,1437236139106,40.399,16.091,-2.209
472,1437236139122,40.399,16.091,-2.603
473,1437236139150,40.399,16.091,-2.603
474,1437236139162,40.399,16.091,-2.603
475,1437236139184,40.399,16.091,-2.934
476,1437236139203,40.399,16.091,-2.934
477,1437236139223,40.399,16.091,-2.934
478,1437236139244,40.399,16.091,-2.934
479,1437236139263,40.399,16.091,-3.382
480,1437236139282,40.399,16.091,-3.964
481,1437236139303,40.399,16.091,-3.964
482,1437236139323,40.399,16.091,-3.964
483,1437236139342,40.399,16.091,-3.964
484,1437236139362,40.399,16.091,-3.964
485,1437236139409,40.399,16.091,-3.614
486,1437236139410,40.399,16.091,-3.614
487,1437236139422,40.399,16.091,-3.273
488,1437236139443,40.399,16.091,-3.273
489,1437236139462,40.399,16.091,-3.273
490,1437236139484,40.399,16.091,-3.273
491,1437236139503,40.399,16.091,-3.273
492,1437236139524,40.399,16.091,-3.273
493,1437236139542,40.399,16.091,-3.273
494,1437236139565,40.399,16.091,-3.886
495,1437236139585,40.399,16.091,-3.886
496,1437236139605,40.399,16.091,-4.385
497,1437236139623,40.399,16.091,-4.385
498,1437236139646,40.399,15.773,-4.878
499,1437236139666,40.399,15.773,-4.878
500,1437236139686,40.399,15.773,-5.398
501,1437236139705,40.399,15.773,-5.876
502,1437236139725,40.399,15.773,-6.451
503,1437236139746,40.399,15.773,-5.834
504,1437236139764,40.399,15.773,-5.834
505,1437236139786,40.399,15.773,-5.407
506,1437236139807,40.399,15.773,-5.407
507,1437236139826,40.399,15.773,-4.89
508,1437236139846,40.399,15.773,-4.154
509,1437236139865,40.399,15.773,-4.154
510,1437236139886,40.399,15.773,-4.154
511,1437236139904,40.399,15.773,-4.154
