id,attr_time,attr_db
1,1436463450684,31.3468171096608
2,1436463451428,69.3553314647717
3,1436463452170,68.2432752946279
4,1436463452897,56.9075469671415
5,1436463453664,48.1823842782354
6,1436463454297,58.5260706488916
7,1436463454937,39.9312826220858
8,1436463455573,9.33251820769737
9,1436463456248,21.4533325773591
10,1436463456979,18.9706247069643
11,1436463457749,15.5619701439786
12,1436463458470,17.7337930303745
13,1436463459191,17.4057104006347
14,1436463459872,64.55241289591
15,1436463460608,60.2130218359088
16,1436463461337,15.7184467486692
17,1436463462063,65.7186450683151
18,1436463462818,67.3214711773836
19,1436463463544,26.797152089668
20,1436463464277,18.43225245171
21,1436463465010,15.3813416485684
22,1436463465662,33.7940319709565
23,1436463466259,28.8960340578232
24,1436463467024,47.263119668056
25,1436463467775,11.0941205468803
26,1436463468536,19.3499015671425
27,1436463469281,26.8811720026087
28,1436463470005,17.720151663769
29,1436463470727,68.2586535522132
30,1436463471467,52.680439739114
31,1436463472165,42.0989842634234
32,1436463472948,15.481387482189
33,1436463473685,70.3454293275568
34,1436463474416,43.5427067201546
35,1436463475146,24.0100516771476
36,1436463475865,73.7431250452927
37,1436463476552,65.3135563813927
38,1436463477222,44.8773820114529
39,1436463477924,29.8963693780332
40,1436463478608,51.1684920026477
41,1436463479354,25.2715694383448
42,1436463480025,71.2352176243201
43,1436463480751,41.6602127636153
44,1436463481483,53.4136952175049
45,1436463482214,56.2560329159309
46,1436463482975,31.7430730661232
47,1436463483696,23.562353029903
48,1436463484426,22.764518377869
49,1436463485159,27.6368113788668
50,1436463485884,36.4114427502122
51,1436463486550,22.8090445388668
52,1436463487282,40.5894289441181
53,1436463488012,15.0484365661793
54,1436463488747,17.9091514204349
55,1436463489449,37.3725675712733
56,1436463490123,22.2258800541365
57,1436463490867,14.9102293372201
58,1436463491604,20.6846745125718
59,1436463492341,27.2683017910158
60,1436463493074,14.6449979451952
61,1436463493822,18.2991584974855
62,1436463494556,22.0903603355573
63,1436463495286,9.00230073674516
64,1436463496004,13.1696032042561
65,1436463496667,18.6696814796936
66,1436463497254,19.8416791482064
67,1436463497961,26.566293912612
68,1436463498722,27.3462453421799
69,1436463499486,63.3732961950367
70,1436463500185,62.1434873251115
71,1436463500943,33.214504719521
72,1436463501685,43.7258205761431
73,1436463502456,34.7208174504122
74,1436463503175,70.1254214956155
75,1436463503918,41.902897850929
76,1436463504662,58.2705757838811
77,1436463505381,58.0690374800547
78,1436463506181,39.9969172029326
79,1436463506933,32.9303806960609
80,1436463507607,42.1960853221234
81,1436463508342,22.7509506365822
82,1436463509072,22.5287319056062
83,1436463509804,28.9695423856203
84,1436463510577,58.6158399958331
85,1436463511299,41.5824719542032
86,1436463512029,25.5533494801634
87,1436463512767,29.89865193089
88,1436463513501,39.7788828550272
89,1436463514242,20.0976611914589
90,1436463514968,37.6902568921019
91,1436463515718,56.2648896745799
92,1436463516436,66.3858135569774
93,1436463517119,49.5764718762968
94,1436463517713,27.503440952756
95,1436463518401,54.3665725356939
96,1436463519139,29.8723856881511
97,1436463519865,50.665161471065
98,1436463520573,55.6600316361165
99,1436463521297,58.0609086089254
100,1436463522013,42.3648707333127
101,1436463522758,30.7583069767915
102,1436463523487,37.0049810234707
103,1436463524215,56.6548110170925
104,1436463524941,39.3834927350546
105,1436463525675,61.0023034545196
106,1436463526420,24.5098542167647
107,1436463527162,45.4190833136746
108,1436463527885,43.1690416099217
109,1436463528550,29.2770541393247
110,1436463529309,37.6092776250368
111,1436463529992,48.2860540344804
112,1436463530653,20.8043650795171
113,1436463531354,32.3131290762338
114,1436463532022,33.8729554613662
115,1436463532767,15.3939995727728
116,1436463533498,46.8265101433995
117,1436463534236,38.8763938631463
118,1436463534957,43.3644338176773
119,1436463535689,43.3037092636044
120,1436463536426,18.519918106986
121,1436463537136,43.4793220757193
122,1436463537819,36.1117761044032
123,1436463538571,21.8965686801076
124,1436463539335,69.3032311925277
125,1436463540046,65.90694127634
126,1436463540766,30.4120431177967
127,1436463541413,29.4874579067046
128,1436463542917,34.3070353376462
129,1436463543618,27.6419472968852
130,1436463544344,24.8661991913757
131,1436463545072,19.8302328455787
132,1436463545807,31.2625568786196
133,1436463546540,30.9986615992682
134,1436463547289,24.126438970353
135,1436463548032,33.7780757135346
136,1436463548699,39.5130449056169
137,1436463549442,22.2028384322276
138,1436463550153,23.6572265692507
139,1436463550815,28.6144709999397
140,1436463551540,38.1296963845746
141,1436463552288,36.5377035907903
142,1436463553012,19.8883952823681
143,1436463553754,22.5679994027774
144,1436463554464,26.9833848029342
145,1436463555184,23.4808920973299
146,1436463555856,28.999249885294
147,1436463557307,24.3370541045279
148,1436463557942,29.4726708245994
149,1436463558670,29.5624210687327
150,1436463559419,28.0234648055124
151,1436463560144,23.2547057304993
152,1436463560896,31.1513066641864
153,1436463561524,34.5502054424608
154,1436463562194,29.833856002397
155,1436463562917,36.7554433936854
156,1436463563633,32.9668797650636
157,1436463564380,31.1913241007705
158,1436463565119,31.2425846650923
159,1436463565860,31.4853176901048
160,1436463566599,30.9800500966024
161,1436463567338,36.2650749910197
162,1436463568073,37.1203792995845
163,1436463568763,33.2551063590859
164,1436463569449,26.1721810859357
165,1436463570174,29.1541104343981
166,1436463570960,30.3746785872866
167,1436463571675,35.9722488772179
168,1436463572427,25.1190779905423
169,1436463573214,29.0463214013947
170,1436463573922,35.2592413755348
171,1436463574668,30.0885515261567
172,1436463575396,33.4502757678108
173,1436463576133,73.7791987082949
174,1436463576869,69.3618886710121
175,1436463577599,51.2959039960138
176,1436463578281,70.4080945204362
177,1436463579872,73.1170475385114
178,1436463580604,68.6302238353249
179,1436463581466,68.9526624934631
180,1436463582216,31.5738541542658
181,1436463582937,36.8125950070145
182,1436463583677,50.5717529179029
183,1436463584404,48.5247883186532
184,1436463585133,70.1238672515102
185,1436463585988,34.7563615856544
186,1436463586721,28.4868388186023
187,1436463587452,33.519465949745
188,1436463588136,50.098134382153
189,1436463588761,68.8123299297078
190,1436463589432,75.8136363522823
191,1436463590170,67.5843378128095
192,1436463590885,69.0507219028383
193,1436463591614,63.2466514596284
194,1436463593092,30.4782836228088
195,1436463593789,29.3929613434629
196,1436463594503,31.4100236772082
197,1436463595240,49.5420652368307
198,1436463595955,55.1618207413999
199,1436463596689,67.9200010670386
200,1436463597462,66.0138389489482
201,1436463598226,25.5730652257934
202,1436463598850,42.9514388135728
203,1436463599580,59.721594359945
204,1436463600312,67.0579897259068
205,1436463601032,36.3536072374576
206,1436463601717,27.454107948966
207,1436463602398,60.2751396217403
208,1436463603130,21.1094787185848
209,1436463604356,31.8809965567059
210,1436463604954,73.6530655856459
211,1436463605638,26.4655558662146
212,1436463606365,69.9593118260659
213,1436463607092,32.9239304380928
214,1436463607848,29.5293653599575
215,1436463608622,29.7884850000511
216,1436463609341,31.2215636689011
217,1436463609999,36.4793496299111
218,1436463610756,61.701103794474
219,1436463611474,71.3167570284084
220,1436463612184,75.1100841077106
221,1436463612911,36.2489467734941
222,1436463613617,70.9093872917692
223,1436463614352,58.4037545787106
224,1436463615090,71.678501179651
225,1436463615799,30.1738909249537
226,1436463616593,29.7954339682778
227,1436463617317,24.684908292873
228,1436463617974,29.6299075214077
229,1436463618584,19.6194548674356
230,1436463619278,25.3018158309753
231,1436463619960,30.9193014748053
232,1436463620715,17.5727142206043
233,1436463621475,23.6798068918628
234,1436463622077,20.4695038137388
235,1436463622728,30.7519953022579
236,1436463623455,30.2370016075694
237,1436463624193,25.7231979472134
238,1436463624942,33.6483455818712
239,1436463625677,34.5522802570241
240,1436463626393,20.6659490070077
241,1436463627126,25.0058481196383
242,1436463627862,19.4876842624784
243,1436463628602,32.2432253407276
244,1436463629330,32.3140317828389
245,1436463630049,19.1857445565976
246,1436463630791,29.0471235292045
247,1436463631554,45.0801887869402
248,1436463632263,70.8743410189411
249,1436463632936,41.1298099655018
250,1436463633709,45.2757035464017
251,1436463634446,55.2760479604876
252,1436463635187,47.5159127650364
253,1436463635902,42.5348090335758
254,1436463636688,43.0676990987088
255,1436463637415,39.1761762115637
256,1436463638158,62.4759460642947
257,1436463638831,34.0311110381864
258,1436463639504,43.3895917977918
259,1436463640231,31.0932953418564
260,1436463640957,19.2618846551864
261,1436463641739,26.4739779402074
262,1436463642467,24.5913482587058
263,1436463643140,23.202359256285
264,1436463643885,57.1627549593585
265,1436463644612,64.0571091603165
266,1436463645355,30.4954432443834
267,1436463646109,31.3727486608926
268,1436463646862,27.1195952651229
269,1436463647595,20.0197856014476
270,1436463648338,22.2736920159364
271,1436463649076,23.1792964398617
272,1436463649806,18.5120422822179
273,1436463650542,23.2457268470173
274,1436463651247,19.5473683707665
275,1436463651976,40.4799721379369
276,1436463652707,24.8727772261152
277,1436463653412,21.4039541406096
278,1436463654114,23.0575495347164
279,1436463654844,16.741631190267
280,1436463655590,25.5119290120572
281,1436463656329,20.4284104194329
282,1436463657067,64.9620997048153
283,1436463657799,71.7371799736136
284,1436463658526,40.355228053546
285,1436463659252,65.8712391903715
286,1436463659805,65.9634276399861
287,1436463660403,69.5601738052636
288,1436463661131,75.0119823071211
289,1436463661893,37.9038452427515
290,1436463662601,42.2707562320715
291,1436463663347,58.9372088382795
292,1436463664085,56.5959182279823
293,1436463664812,42.6219755271829
294,1436463665546,29.1190281733778
295,1436463666327,51.9996099823663
296,1436463667077,66.5774590236748
297,1436463667795,65.3465830256033
298,1436463668516,69.8424328444199
299,1436463669295,30.6350144888969
300,1436463670029,42.0859470734312
301,1436463670707,73.0930427541839
302,1436463671334,66.9239275111458
303,1436463672016,51.0363266638222
304,1436463672762,63.2378456192052
305,1436463673521,72.6699989866699
306,1436463674241,40.3126358002425
307,1436463674981,27.9048132220154
308,1436463675727,72.880779129726
309,1436463676464,27.9696433149675
310,1436463677158,22.3619031886879
311,1436463677886,71.577932205863
312,1436463678605,59.5084715254486
313,1436463679349,66.7119869555241
314,1436463680036,68.2422357968801
315,1436463680641,63.0927424208236
316,1436463681293,70.6525398758981
317,1436463681998,76.3013438709643
318,1436463682743,57.7815281537376
319,1436463683444,40.39257239993
320,1436463684100,29.2867017113453
321,1436463684825,70.1823837985638
322,1436463685548,35.4513762607487
323,1436463686263,71.2657507075449
324,1436463686983,21.6337209853415
325,1436463687717,74.4757457312666
326,1436463688460,70.38485844722
327,1436463689169,66.6058174799998
328,1436463689898,49.6769231016145
329,1436463690621,63.6350909781955
330,1436463691370,34.3416899901077
331,1436463692048,68.746366066689
332,1436463692772,71.4769657978858
333,1436463693500,62.3215235507148
334,1436463694197,66.5124774863311
335,1436463694857,37.1415640351567
336,1436463695605,38.721191021483
337,1436463696326,80.6898779551289
338,1436463697064,56.2266234263824
339,1436463697805,32.1475369893585
340,1436463698519,70.2702255435436
341,1436463699204,41.9199101211882
342,1436463699943,30.2010947273785
343,1436463700647,67.9735472435281
344,1436463701336,39.3934819782309
345,1436463702000,29.155062070908
346,1436463702730,27.8212868455323
347,1436463703428,55.5965820306121
348,1436463704093,72.6780696538694
349,1436463704831,68.968732148109
350,1436463705576,65.0096187247115
351,1436463706289,61.0607249106535
352,1436463707041,66.1116047781766
353,1436463707769,33.125257804098
354,1436463708496,22.1042033363914
355,1436463709235,43.0371590470581
356,1436463709948,27.4546825265701
357,1436463710717,41.0982582497813
358,1436463711444,73.9724547048418
359,1436463712093,73.2881106727754
360,1436463712810,52.3392956252491
361,1436463713526,44.1869372710235
362,1436463714293,39.8798565854168
363,1436463715025,36.8244425207349
364,1436463715711,24.1329317136989
365,1436463716432,45.1947657366709
366,1436463717175,40.3719855221308
367,1436463717925,65.6493901379089
368,1436463718645,59.3297394409795
369,1436463719387,63.284872987231
370,1436463720113,34.4839893052953
371,1436463720839,24.1913861432969
372,1436463721561,74.6281550507363
373,1436463722290,33.6539499177292
374,1436463722960,64.0627388514986
375,1436463723692,59.9855286672975
376,1436463724433,65.4344976377854
377,1436463725175,60.1327879769394
378,1436463725911,28.7533470442765
379,1436463726659,22.7871680922198
380,1436463727381,25.1716621344783
381,1436463728118,31.3230688219443
382,1436463728918,75.7156464704414
383,1436463729659,60.3040204537955
384,1436463730398,34.3694126682267
385,1436463731132,42.5009401657844
386,1436463731854,27.4377460049234
387,1436463732559,17.2764796616759
388,1436463733231,27.1553102126491
389,1436463733969,23.3064763104751
390,1436463734708,20.0995141676242
391,1436463735451,22.2461577825475
392,1436463736183,34.3600076795664
393,1436463736894,26.2781614980606
394,1436463737624,27.1749672222122
395,1436463738379,28.7838253174757
396,1436463739094,21.3907360022339
397,1436463739830,19.6278469629831
398,1436463740543,27.7059695420091
399,1436463741191,22.2718817756087
400,1436463741930,39.286380211959
401,1436463742644,23.4595361328184
402,1436463743321,65.0914828368259
403,1436463744060,45.9738120138919
404,1436463744791,26.8759709538277
405,1436463745487,22.5933412834794
406,1436463746785,57.8215038182692
407,1436463747476,63.482039065451
408,1436463748204,30.9914207946641
409,1436463748941,44.3185212019429
410,1436463749687,49.8018228212044
411,1436463750456,71.8565833036726
412,1436463751191,47.9065945377409
413,1436463751935,34.3206564872636
414,1436463752632,43.6522120119749
415,1436463753284,39.9666227758792
416,1436463754002,73.0287425840941
417,1436463754767,55.3133155323171
418,1436463755540,62.7860699653848
419,1436463756200,65.0702708718854
420,1436463756931,39.2954154572443
421,1436463757663,29.9299795428329
422,1436463758405,26.6995560708188
423,1436463759107,27.1720719309383
424,1436463759780,44.0401177089542
425,1436463760506,27.5727483128584
426,1436463761217,66.4237125825154
427,1436463761951,61.1452084431361
428,1436463762667,61.8389841884889
429,1436463763416,49.99401751299
430,1436463764079,58.2126326700977
431,1436463765454,67.9673187795843
432,1436463766127,57.9250013045194
433,1436463766855,72.3133330746565
434,1436463767597,29.9193251303868
435,1436463768324,58.7780355629187
436,1436463769060,31.5362211038123
437,1436463769791,40.5585633150852
438,1436463770530,43.6137045052026
439,1436463771294,45.5579839358536
440,1436463772031,44.3366579490889
441,1436463772759,71.8569247118048
442,1436463773445,39.8002580443151
443,1436463774130,69.6040957987454
444,1436463774848,34.6969418129644
445,1436463775609,29.3811466014845
446,1436463776289,30.2945423697726
447,1436463777020,31.7649391630346
448,1436463777768,34.8810728273267
449,1436463778482,26.7236527240733
450,1436463779223,26.2141466559927
451,1436463779954,33.3543086957641
452,1436463780673,31.3710789169834
453,1436463781396,31.0671127191251
454,1436463782030,31.0035867470412
455,1436463782776,30.4196331225609
456,1436463783522,62.716391569216
457,1436463784179,70.2960624426813
458,1436463784902,70.0067378960287
459,1436463785633,59.2039354820041
460,1436463786362,31.4314491142873
461,1436463787024,42.4589615688449
462,1436463787749,34.6769982379917
463,1436463788498,28.3384109201537
464,1436463789189,31.116518374631
465,1436463789921,31.9371004616005
466,1436463790651,32.8252882407597
467,1436463791380,25.3613976656805
468,1436463792110,26.6829593271582
469,1436463792839,27.9883473353329
470,1436463793592,30.9018580499714
471,1436463794244,28.1872709483251
472,1436463796031,22.4590276576456
473,1436463796723,23.7465845239271
474,1436463797446,39.2388377259262
475,1436463798199,23.8543315625053
476,1436463798927,63.9573479737254
477,1436463799644,68.7764141376387
478,1436463800376,50.9072961816852
479,1436463801090,39.6077198294481
480,1436463801838,33.1885106549872
481,1436463802561,44.0601254106775
482,1436463803318,45.4406546301515
483,1436463804050,49.8982243714351
484,1436463804715,29.162111635205
485,1436463805526,48.6975860641846
486,1436463806276,36.1217120380455
487,1436463806994,47.64805074888
488,1436463807701,24.5626780214673
489,1436463808431,26.9062768867675
490,1436463809157,48.8718212086556
491,1436463809892,50.6863889785847
492,1436463810634,39.6667562944155
493,1436463811366,42.2653058716995
494,1436463812025,42.4016355656202
495,1436463813435,35.7148294189032
496,1436463814103,41.7351842509476
497,1436463814758,35.7593242141065
498,1436463815458,38.759087337192
499,1436463816205,40.0538662565374
500,1436463816976,37.7357599577164
501,1436463817616,36.0808936445195
502,1436463818325,37.6881462019938
503,1436463819052,37.6921446693356
504,1436463819785,31.2990323136586
505,1436463820513,30.9358402673988
506,1436463821237,31.1756054224146
507,1436463821969,30.8480818061903
508,1436463822687,30.3810961102094
509,1436463823409,27.2387412928468
510,1436463824142,29.1565350388403
511,1436463824842,28.0126815379059
512,1436463825539,38.419874207035
513,1436463826338,27.1337742825163
514,1436463827043,26.2910520019709
515,1436463827784,28.767934222486
516,1436463828575,27.4176942030436
517,1436463829317,26.1669921412008
518,1436463830043,31.1215934215628
519,1436463830784,63.4476509092304
520,1436463831514,65.1791959377884
521,1436463832250,38.6352964270761
522,1436463832976,50.4608380945177
523,1436463833686,73.0446925521825
524,1436463834442,56.9538888465045
525,1436463835117,31.9646060073151
526,1436463835852,45.90943589503
527,1436463836594,41.0664925270779
528,1436463837296,67.1953700127006
529,1436463837939,47.1736154243464
530,1436463838655,47.1157838038064
531,1436463839418,51.7819592108414
532,1436463840141,38.2267124895825
533,1436463840867,54.5551202320551
534,1436463841619,53.882878173711
535,1436463842379,44.0116765980812
536,1436463842985,43.4705610017512
537,1436463843717,73.0830611460667
538,1436463844434,46.4777096157809
539,1436463845117,40.0833579365195
540,1436463845725,49.0954041703245
541,1436463846409,66.1706971605242
542,1436463847124,71.7109235199447
543,1436463847837,41.8028614008894
544,1436463848566,28.830011156769
545,1436463849318,61.5721909780246
546,1436463850062,76.0391079086838
547,1436463850797,59.7974172206608
548,1436463851550,44.9005049800966
549,1436463852294,29.9353926451484
550,1436463853032,37.113984924842
551,1436463853789,47.4061746960979
552,1436463854526,48.2768350886177
553,1436463855246,41.745988896014
554,1436463855889,53.8766891785831
555,1436463856611,59.5439488919625
556,1436463857378,50.4818949415701
557,1436463858139,49.5876328593643
558,1436463858882,73.2910723581352
559,1436463859629,72.9465265215675
560,1436463860358,56.2674302009667
561,1436463861149,66.6061957437575
562,1436463861873,68.7260098494368
563,1436463862574,72.8350897512211
564,1436463863214,75.3401203121157
565,1436463863894,33.5589534758889
566,1436463864590,57.4215169847586
567,1436463865332,27.6278737708799
568,1436463866001,74.9738248560918
569,1436463866712,71.2991478739178
570,1436463867460,35.6144361650853
571,1436463868170,70.9114883890564
572,1436463868844,52.7978051408023
573,1436463869567,48.9108477592611
574,1436463870289,74.4197432056095
575,1436463871039,56.1972792241274
