id,attr_time,attr_db
1,1436463450576,47.6974843369983
2,1436463451250,31.4990457999461
3,1436463451979,15.2671172839555
4,1436463452646,67.2577902692714
5,1436463453364,49.5629041368005
6,1436463454137,25.2386112269755
7,1436463454870,12.2972370212921
8,1436463455611,10.9190334519196
9,1436463456316,15.1542723593306
10,1436463457055,35.4983367951726
11,1436463457790,26.4766280958912
12,1436463458569,23.8094940653283
13,1436463459321,29.7571355916162
14,1436463460043,32.736817990482
15,1436463460756,61.7881692597818
16,1436463461429,55.1689116262604
17,1436463462189,20.2512429261913
18,1436463462913,55.1530309084263
19,1436463463693,28.8592446677328
20,1436463464409,46.8060066679633
21,1436463465154,13.9079107958313
22,1436463465868,35.3419332428991
23,1436463466597,35.9056051667003
24,1436463467304,30.3501122718839
25,1436463468064,20.5868684089511
26,1436463468779,23.9448186324482
27,1436463469521,36.0321630161839
28,1436463470218,29.4112748589299
29,1436463470812,27.0869882933467
30,1436463471364,40.3905669932785
31,1436463471911,53.7655406215277
32,1436463472488,60.1160583988392
33,1436463473264,36.6782537508889
34,1436463473891,51.6688701916857
35,1436463474612,44.7274293577968
36,1436463475297,20.0225779976456
37,1436463475920,30.1971580312876
38,1436463476623,67.2524505893377
39,1436463477341,59.86185197356
40,1436463478115,38.1910482417749
41,1436463478860,41.4038774188218
42,1436463479516,47.1273033748505
43,1436463480144,38.5272713956344
44,1436463480729,67.7973857793095
45,1436463481315,61.1739445932795
46,1436463481881,41.0559494954999
47,1436463483256,46.094093066372
48,1436463483947,32.9308568399305
49,1436463484709,34.2172822430488
50,1436463485369,30.9003031603773
51,1436463485978,37.5640551535303
52,1436463486555,32.9803244795723
53,1436463487131,28.2315627981833
54,1436463487716,35.8193804292318
55,1436463488360,33.67423838817
56,1436463489082,41.3160305472705
57,1436463489798,35.8663479527388
58,1436463490457,30.0367975265339
59,1436463491031,30.6447925915699
60,1436463491583,32.6963267047328
61,1436463492139,26.3808831671168
62,1436463493861,29.6198242432197
63,1436463494528,25.2947312494877
64,1436463495326,38.4827695327404
65,1436463495915,38.1976348134231
66,1436463496520,32.1477184101518
67,1436463497111,28.8839861980438
68,1436463497697,35.9117118581013
69,1436463498266,29.0128693065789
70,1436463498869,30.7371275196243
71,1436463499582,50.6471169334449
72,1436463500330,54.1777509440629
73,1436463500986,43.3884687534336
74,1436463501540,41.4432115227604
75,1436463502089,44.4693646133542
76,1436463502648,36.6524477932201
77,1436463503232,34.8960681757828
78,1436463504537,36.314106569281
79,1436463505220,38.9403052169181
80,1436463505961,45.5188601575884
81,1436463506686,54.1964277739722
82,1436463507410,44.9113800851753
83,1436463508123,37.5702649508031
84,1436463508838,50.9460008326902
85,1436463509571,38.1201162038639
86,1436463510309,27.6763751508365
87,1436463511034,20.0941387960786
88,1436463511725,49.198604403423
89,1436463512368,37.1788030697289
90,1436463513062,35.7685828282968
91,1436463513788,37.7451364700028
92,1436463514506,31.7755180296238
93,1436463515261,41.6409881099017
94,1436463515998,41.1238812200751
95,1436463516671,54.244752154872
96,1436463517398,34.3121464860636
97,1436463518127,45.9001636875402
98,1436463518855,34.5643616120749
99,1436463519588,48.5486539359387
100,1436463520308,52.953115354017
101,1436463521024,54.5373291882796
102,1436463521743,32.289567625438
103,1436463522437,44.0251827362303
104,1436463523111,34.5343540418007
105,1436463523918,31.325509092276
106,1436463524646,51.1883969665635
107,1436463525365,35.6433162394735
108,1436463526135,44.9669567062412
109,1436463526822,46.4137463258239
110,1436463527556,47.2936846440056
111,1436463528308,39.0363401062976
112,1436463529042,25.4025132582509
113,1436463529778,59.1804815422514
114,1436463530480,38.4888253685695
115,1436463531206,30.2986058499388
116,1436463531932,29.0687986498678
117,1436463532665,34.7019289575588
118,1436463533282,32.1483288986949
119,1436463533939,42.6649958242715
120,1436463534618,34.4491624681914
121,1436463535366,40.4829865927748
122,1436463536158,37.6458761007427
123,1436463536815,42.4119465759755
124,1436463537545,49.8251122770619
125,1436463538279,29.085199252692
126,1436463539011,29.4687010566113
127,1436463539719,44.0994995662316
128,1436463540409,56.2376099891768
129,1436463541128,52.930530494058
130,1436463541843,47.195923444516
131,1436463542547,27.9913440197297
132,1436463543097,30.2393946299032
133,1436463543731,31.5751079416674
134,1436463544438,32.4777158355418
135,1436463545186,27.642100958923
136,1436463545894,25.9014672956479
137,1436463546624,30.5269039403354
138,1436463547345,36.7169663110474
139,1436463548145,36.6863253869384
140,1436463548843,30.3094693098532
141,1436463549571,33.8209967283661
142,1436463550304,30.6681418677612
143,1436463551025,33.3425484153392
144,1436463551738,27.196186313733
145,1436463552449,30.9824500248294
146,1436463553139,32.3359424121579
147,1436463553882,29.2726704446768
148,1436463554594,29.8128975858397
149,1436463555324,29.4171050583537
150,1436463556011,30.8271801412731
151,1436463556609,32.9605106394539
152,1436463557297,32.2302339738524
153,1436463558022,25.5891306196325
154,1436463558643,30.3605238585939
155,1436463559419,37.1247451865629
156,1436463560155,32.406957030786
157,1436463560879,27.1656921995673
158,1436463561605,35.0641779740208
159,1436463562348,33.3350711275009
160,1436463563158,32.3986239482519
161,1436463563894,29.8389124506192
162,1436463564618,40.5418043179741
163,1436463565374,33.6894111085159
164,1436463566226,34.3529492570041
165,1436463566948,39.1112884789926
166,1436463567683,32.6327316331205
167,1436463568438,29.4875434589605
168,1436463569212,41.4288032521926
169,1436463569942,39.7191066527327
170,1436463570653,32.8174803142066
171,1436463571374,31.1780728504909
172,1436463572119,43.0496996431803
173,1436463572829,33.7493211975292
174,1436463573507,34.1611306527849
175,1436463574161,39.1140498961144
176,1436463574882,36.8397400173099
177,1436463575595,30.5466873592954
178,1436463576323,35.7271826282122
179,1436463577052,56.8670872191802
180,1436463577777,54.111415330917
181,1436463578496,40.5150846603245
182,1436463579195,37.0045677162661
183,1436463579946,57.7053399208269
184,1436463581382,68.0403070159383
185,1436463582062,62.8054032789214
186,1436463582813,61.2211594757657
187,1436463583526,35.3657417963915
188,1436463584209,42.2360098746255
189,1436463584951,29.214360283627
190,1436463585676,44.2331476796776
191,1436463586400,38.1287743749055
192,1436463587207,35.0409632453296
193,1436463587922,26.7492818033056
194,1436463588643,27.6364415245928
195,1436463589336,70.4235391612746
196,1436463590024,59.466640261536
197,1436463591536,60.017317641583
198,1436463592237,43.2392566540327
199,1436463592953,34.0915155084544
200,1436463593645,26.6522731926489
201,1436463594316,34.5896999466672
202,1436463595058,32.7566664804551
203,1436463595758,39.1823352645425
204,1436463596483,47.2693902263929
205,1436463597194,37.109301324989
206,1436463597925,56.8471520132901
207,1436463598632,26.9195647493558
208,1436463599225,34.7534131133382
209,1436463599923,65.5921943489918
210,1436463600609,46.709372808013
211,1436463601330,35.9421664340171
212,1436463602077,39.8510788176607
213,1436463602796,64.6237316642525
214,1436463603511,44.8577194302486
215,1436463604190,32.7588570308892
216,1436463604807,59.0398245900568
217,1436463606326,34.5635672422378
218,1436463607006,62.6270110673161
219,1436463607740,38.3648190968592
220,1436463608507,31.298097095878
221,1436463609173,32.9979704240546
222,1436463609859,31.4252125750986
223,1436463610580,26.65095054513
224,1436463611279,26.6844618089949
225,1436463612025,45.709875152777
226,1436463612770,39.4145026323594
227,1436463613546,35.1736108428973
228,1436463615033,59.1580460077256
229,1436463615729,36.1908309566883
230,1436463616418,32.373844552441
231,1436463617096,30.8628838281296
232,1436463617815,26.8161352872391
233,1436463618511,33.0362257656987
234,1436463619132,35.9120640761296
235,1436463619856,37.8265488759695
236,1436463620579,38.1845366810633
237,1436463621313,22.2864963524103
238,1436463622049,19.9037010885809
239,1436463622777,27.3771404787848
240,1436463623569,36.5933327544426
241,1436463624268,33.0839616554733
242,1436463624932,25.7719249103779
243,1436463625702,30.6016464424322
244,1436463626449,38.0866199862479
245,1436463627047,36.6854680767057
246,1436463627608,32.0679236811198
247,1436463628152,35.451452720255
248,1436463628746,33.0338925915286
249,1436463629453,35.9228386389694
250,1436463630217,31.7379010411971
251,1436463630986,28.0432518812157
252,1436463631665,32.1328161446301
253,1436463632241,38.372049083493
254,1436463632792,54.5050539264645
255,1436463633378,48.5468908064337
256,1436463633976,37.3882232622172
257,1436463635496,32.4277636305139
258,1436463636212,40.4464849986915
259,1436463636942,42.1953752203475
260,1436463637630,49.6505052539611
261,1436463638214,44.4152135563156
262,1436463638782,59.8052054877051
263,1436463639337,49.1179961721768
264,1436463639937,32.9653439530953
265,1436463640596,34.2975468838287
266,1436463641328,37.9649604854038
267,1436463642076,41.5699910480444
268,1436463642684,29.7499674240891
269,1436463643257,42.8810720836167
270,1436463643829,32.1640573436583
271,1436463644388,31.7376472051249
272,1436463645748,37.168649350981
273,1436463646501,31.0835713158232
274,1436463647232,29.098369965145
275,1436463647958,41.3147523760593
276,1436463648700,29.6150469057991
277,1436463649296,34.3545835181383
278,1436463649860,31.59031403848
279,1436463650447,30.9624835973027
280,1436463651000,33.8446517426516
281,1436463651672,31.5886852393995
282,1436463652385,25.3018109116462
283,1436463653158,22.4824510463298
284,1436463653887,29.9236899393155
285,1436463654444,20.2125643979638
286,1436463655029,24.8178369467333
287,1436463655584,19.5015106008487
288,1436463656884,24.7178824960007
289,1436463657621,71.6159978700991
290,1436463658344,56.9255375344271
291,1436463659093,56.4758678170068
292,1436463659765,67.7667957889341
293,1436463660503,52.9601512906086
294,1436463661236,59.1585141717385
295,1436463661974,55.894223558558
296,1436463662705,41.8375045506497
297,1436463663415,47.2648019200312
298,1436463664140,67.3567042235752
299,1436463664800,42.4127150837561
300,1436463665499,40.3465957390522
301,1436463666205,23.8785936409026
302,1436463666931,70.2866228734496
303,1436463667642,43.1607589837939
304,1436463668365,37.9393642585008
305,1436463669107,41.7058649196397
306,1436463669813,50.1842014503352
307,1436463670525,39.11188657273
308,1436463671263,51.3291923651953
309,1436463672005,62.6931988846097
310,1436463672713,33.1792365465858
311,1436463673444,59.4517676539122
312,1436463674181,65.8839995839718
313,1436463674877,45.7358600526494
314,1436463675581,36.4329749171237
315,1436463676298,49.526141200141
316,1436463676992,36.4767441550137
317,1436463677719,36.7739692943022
318,1436463678438,30.2807911292092
319,1436463679243,68.4710640733096
320,1436463679955,54.3776462172376
321,1436463680700,51.144943708807
322,1436463681421,63.6240869339037
323,1436463682163,59.2331974427288
324,1436463682945,66.4485819902122
325,1436463683668,54.9028064525237
326,1436463684388,34.0375432575492
327,1436463685116,32.3307307187637
328,1436463685816,73.7961304247616
329,1436463686547,61.8040882516013
330,1436463687266,71.3144871520136
331,1436463687993,73.0701572835301
332,1436463688742,33.9104748624031
333,1436463689511,52.1039957998792
334,1436463690225,62.7917155996001
335,1436463690981,49.0976322622277
336,1436463691704,67.2829237071708
337,1436463692436,63.5686904339931
338,1436463693186,46.6042196278814
339,1436463693909,50.4837515451233
340,1436463694618,47.6529994164178
341,1436463695290,67.5016565887281
342,1436463696014,64.9837602288403
343,1436463696747,40.4282651157712
344,1436463697490,45.0612432920604
345,1436463698228,25.2479435804781
346,1436463698958,43.9547184544092
347,1436463699699,46.2487897817308
348,1436463700427,29.6251417750078
349,1436463701155,46.3700862309213
350,1436463701883,54.4788681728797
351,1436463702592,33.0059278833508
352,1436463703331,30.9270854898336
353,1436463704076,36.1303285265528
354,1436463704810,65.9853631150391
355,1436463705517,64.7078816482948
356,1436463706233,58.277674713003
357,1436463706949,52.9399558086772
358,1436463707670,67.0485305804772
359,1436463708383,32.5792964089785
360,1436463709130,38.781097907961
361,1436463709932,42.7166422367267
362,1436463710654,36.5571813879436
363,1436463711366,30.284178877909
364,1436463712111,61.8581643733921
365,1436463712828,65.7171283347162
366,1436463713560,47.6484462887589
367,1436463714275,36.9539032613746
368,1436463715091,37.6455537587675
369,1436463715813,38.0065099952228
370,1436463716531,41.8973881190925
371,1436463717232,45.5013695263896
372,1436463717947,33.6152885341218
373,1436463718670,58.9437399783046
374,1436463719485,63.1039091144395
375,1436463720124,57.6728558342313
376,1436463720839,27.442020384861
377,1436463721540,29.7447849828509
378,1436463722274,68.2077067558854
379,1436463723016,26.581184980487
380,1436463723747,44.2424056395516
381,1436463724494,43.9178056199214
382,1436463725127,59.9707662717427
383,1436463725815,65.2046180801388
384,1436463726541,24.8713346814819
385,1436463727266,38.4517452342762
386,1436463727996,29.9878677165208
387,1436463728714,30.5405692514652
388,1436463729427,60.7981963424191
389,1436463730165,63.3960973477286
390,1436463730880,59.9656347785981
391,1436463731605,26.638819795922
392,1436463732312,36.6179366243766
393,1436463733039,20.1885177522324
394,1436463733760,23.1778941569754
395,1436463734524,31.3930486499563
396,1436463735248,27.9652932270806
397,1436463735989,36.2579834274623
398,1436463736738,33.1661822709957
399,1436463737487,35.2711279539362
400,1436463738195,32.6454690716671
401,1436463738917,30.9540439031393
402,1436463739657,27.3184417159997
403,1436463740365,29.9767447871874
404,1436463741109,36.0936600018466
405,1436463741841,28.173227486433
406,1436463742564,33.3659254294881
407,1436463743341,21.4959871673544
408,1436463744081,56.6489193303054
409,1436463744826,43.214769735901
410,1436463745549,27.706070250044
411,1436463746273,35.9762089493546
412,1436463747008,31.7243498877448
413,1436463747731,69.3432162454669
414,1436463748451,44.0985810170265
415,1436463749190,27.2180672530108
416,1436463749972,32.7451924106602
417,1436463750698,52.7963087858405
418,1436463751415,45.3992551346214
419,1436463752135,29.8177408730167
420,1436463752875,58.6934866454345
421,1436463753609,31.1484974643868
422,1436463754326,39.4335084208126
423,1436463755094,69.622145533714
424,1436463755824,51.7604037247841
425,1436463756547,35.3664342254741
426,1436463757287,57.52350557291
427,1436463758020,62.8163576022142
428,1436463758742,32.1036173182854
429,1436463759464,27.1002185602714
430,1436463760263,33.1116902853768
431,1436463761002,27.142637962751
432,1436463761719,45.9866013816417
433,1436463762442,68.8576076513637
434,1436463763221,54.8413264862876
435,1436463763930,71.7277223443901
436,1436463764674,45.0652092902355
437,1436463765397,44.7158560733284
438,1436463766153,54.9849401146547
439,1436463766878,48.5130129071651
440,1436463767610,67.3552196940666
441,1436463768318,26.133687545718
442,1436463769067,50.6885991343565
443,1436463769783,26.765797961936
444,1436463770480,48.3918090835813
445,1436463771172,27.7897759714167
446,1436463771886,42.7380891202408
447,1436463772600,41.8540699277353
448,1436463773309,32.0736854312515
449,1436463774039,70.4159661676052
450,1436463774744,71.7150959632071
451,1436463775495,59.4449915114391
452,1436463776226,25.4804256839699
453,1436463776964,26.9444868022752
454,1436463777687,31.5954290994255
455,1436463778421,32.758573923422
456,1436463779193,36.7721446035586
457,1436463779889,28.9808842623623
458,1436463780547,30.788389588185
459,1436463781279,30.0209578851191
460,1436463781966,29.1339827761576
461,1436463782600,34.1009224428441
462,1436463783280,28.9670060327993
463,1436463783952,67.1227053350802
464,1436463785375,54.9915762171146
465,1436463786116,56.9939632403688
466,1436463786832,60.2451216529385
467,1436463787519,43.5937481281865
468,1436463788234,35.2959548198933
469,1436463788957,27.9723495643418
470,1436463789695,25.5786297615487
471,1436463790453,35.4488564145945
472,1436463791187,33.9236945575186
473,1436463791888,30.1162395016787
474,1436463792615,35.7561596204183
475,1436463793316,35.9907456776461
476,1436463794030,38.1933614412905
477,1436463794747,26.4575464407964
478,1436463795483,23.8319248130385
479,1436463796203,23.973763291081
480,1436463796926,35.2740395139428
481,1436463797649,35.5564016681787
482,1436463799503,34.9033172227435
483,1436463800137,58.6682693764527
484,1436463800852,39.0177633027347
485,1436463801581,25.454680189922
486,1436463802303,36.7943389996851
487,1436463803040,40.8808244414089
488,1436463803814,29.6657956362456
489,1436463804580,41.6937583456169
490,1436463805285,32.5706267815784
491,1436463806013,26.8538907922893
492,1436463806739,54.2548057240474
493,1436463807484,31.3954981233666
494,1436463808182,32.850296816519
495,1436463808986,35.4661729686835
496,1436463809732,37.377561875002
497,1436463810486,39.6045264575226
498,1436463811208,45.5910115335009
499,1436463811932,55.9001633236469
500,1436463812646,36.0563949325925
501,1436463813372,34.4767889688445
502,1436463814114,40.8356604307078
503,1436463814821,43.296711752286
504,1436463815546,36.0933011665837
505,1436463816267,34.2948160902464
506,1436463816992,33.9814487360589
507,1436463817706,29.0690566595206
508,1436463818427,33.8423155906437
509,1436463819178,33.7254297982512
510,1436463819905,36.4345593071435
511,1436463820636,35.4881748874134
512,1436463822549,33.5862638386549
513,1436463823238,34.7696178220334
514,1436463823970,30.3048279991131
515,1436463824761,29.3722235554764
516,1436463825491,33.7207695295908
517,1436463826216,37.0040610372708
518,1436463826942,30.1924756286756
519,1436463827667,32.921440941187
520,1436463828374,39.7654150876653
521,1436463829164,28.931250728904
522,1436463829910,31.2198452135554
523,1436463830648,26.1762173425441
524,1436463831361,28.290921352039
525,1436463832116,54.7119771776429
526,1436463832824,33.289067069642
527,1436463833532,65.7297705832889
528,1436463835384,34.7995373781047
529,1436463836045,37.3644597021413
530,1436463836775,39.613744323969
531,1436463837500,44.0511600989876
532,1436463838229,58.9841526453514
533,1436463838949,52.5089850724494
534,1436463839696,42.3448479388311
535,1436463840389,41.8502559925663
536,1436463841001,32.0398755212599
537,1436463841695,56.9156382690776
538,1436463842415,47.0210438115778
539,1436463843161,38.75267373656
540,1436463843871,45.2226028966735
541,1436463844598,50.637078991553
542,1436463845296,37.7509430480798
543,1436463845964,37.6628791096105
544,1436463846656,34.1555589187347
545,1436463847378,32.3271935083798
546,1436463848118,33.8698305428515
547,1436463848840,31.3709095417124
548,1436463849552,33.9213629824596
549,1436463850278,56.6802879476787
550,1436463851013,50.3213665939806
551,1436463851758,49.4402381043002
552,1436463852491,67.9591363260504
553,1436463853229,36.7358685776474
554,1436463853937,34.3605931410994
555,1436463854642,42.8452890445406
556,1436463855359,43.2206180093012
557,1436463856090,49.6231791323695
558,1436463856813,64.3177767198461
559,1436463857542,39.7390611565579
560,1436463858266,32.6634645142831
561,1436463858989,46.4252045392832
562,1436463859717,58.2336504761281
563,1436463860425,65.5247232582777
564,1436463861171,48.0370409636306
565,1436463861894,64.0878710651707
566,1436463862622,61.3028704205337
567,1436463863336,68.1554593857097
568,1436463864114,42.6742673326939
569,1436463864895,39.8466873407829
570,1436463865641,50.3181519350019
571,1436463866374,32.9574965721315
572,1436463867116,54.3902456331556
573,1436463867841,51.213393664562
574,1436463868556,43.0267076489957
575,1436463869287,76.0021214571048
