id,attr_time,attr_db
1,1436463450090,34.9478518474695
2,1436463450695,25.6877782536465
3,1436463451319,18.5050632865387
4,1436463451966,62.3152722390486
5,1436463452634,14.12573450766
6,1436463453288,39.4551483651868
7,1436463453939,41.1159439603481
8,1436463454597,46.5025471065568
9,1436463455260,38.6062010946877
10,1436463455917,31.1056698579695
11,1436463456580,26.9317324781838
12,1436463457239,39.1714857925413
13,1436463457867,41.3821404812271
14,1436463458523,39.0945691723238
15,1436463459196,35.9925940169315
16,1436463459852,25.6985190411674
17,1436463460484,37.8689432384713
18,1436463461134,46.8413816732614
19,1436463461785,34.2987430060106
20,1436463462427,44.5789579592197
21,1436463463098,40.2602972933896
22,1436463463756,39.595325506997
23,1436463464425,35.5434338416367
24,1436463465075,36.4102023846063
25,1436463465720,28.8590227628177
26,1436463466398,40.69032221418
27,1436463467085,35.0864092402925
28,1436463467745,60.0842006451006
29,1436463468369,38.3714966798007
30,1436463469029,41.4378480687866
31,1436463469673,49.5831812120869
32,1436463470345,37.0773438752352
33,1436463471028,58.1607730337009
34,1436463471676,40.20767422485
35,1436463472337,40.63086477969
36,1436463473003,39.135364972251
37,1436463473684,50.0215282882432
38,1436463474332,40.3486221919827
39,1436463474974,36.924246885296
40,1436463475650,56.5074741576502
41,1436463476340,58.3843789623462
42,1436463477006,45.6334934974271
43,1436463477679,50.6649443192937
44,1436463478299,46.9099639091036
45,1436463478944,39.6718856985719
46,1436463479575,34.9353191447483
47,1436463480172,64.1608072516889
48,1436463480796,53.8840311788712
49,1436463481473,45.2028900886502
50,1436463482086,43.3730770294235
51,1436463482733,43.2739474351436
52,1436463483389,32.9699847333757
53,1436463484035,36.8720772063203
54,1436463484703,59.3465935245121
55,1436463485368,44.1033006774172
56,1436463486026,51.9641428789629
57,1436463486725,30.6053272976931
58,1436463487408,42.155956408434
59,1436463488073,59.4418075683417
60,1436463488749,43.5393288764408
61,1436463489435,38.9593173412316
62,1436463490105,34.9081951280052
63,1436463490785,33.7892767334495
64,1436463491425,52.0874639016537
65,1436463492067,37.1950101936872
66,1436463492712,36.8508423580836
67,1436463493364,37.4316114688107
68,1436463493951,34.7415868825187
69,1436463494694,29.7683296709447
70,1436463495267,37.9085454098466
71,1436463495905,44.7867816086479
72,1436463496545,40.4997570012774
73,1436463497191,38.2741330017625
74,1436463497836,33.5338029992956
75,1436463498495,28.401447102228
76,1436463499153,35.6291085568743
77,1436463499800,49.3644188845718
78,1436463500471,44.451949174551
79,1436463501156,43.9388647659725
80,1436463501792,40.2718665356664
81,1436463502422,40.4150779033003
82,1436463503095,36.4398476243166
83,1436463503769,42.4845312260403
84,1436463504414,51.8637456352799
85,1436463505076,44.1168808585948
86,1436463505735,46.411590092224
87,1436463506367,40.8254978004362
88,1436463507085,38.2237887245213
89,1436463507751,51.6304283970952
90,1436463508407,44.5840569131104
91,1436463509082,39.7929335112952
92,1436463509758,31.2955305136689
93,1436463510413,38.3084200597182
94,1436463511079,47.7564832561309
95,1436463511761,55.2170557639523
96,1436463512387,47.0740284703794
97,1436463513064,41.2728754648751
98,1436463513738,41.043104289898
99,1436463514366,37.7884516520811
100,1436463514989,35.683989172307
101,1436463515598,51.5786886143638
102,1436463516268,43.5223332921404
103,1436463516888,41.3060992991962
104,1436463517498,41.1956584009683
105,1436463518134,52.4301885016202
106,1436463518740,41.2781432735587
107,1436463519394,42.1768821426544
108,1436463520037,46.9880466971928
109,1436463520737,43.0205704267296
110,1436463521351,32.3010526556198
111,1436463521979,39.7318656022574
112,1436463522643,30.7323608997891
113,1436463523314,28.6493015361333
114,1436463523961,39.6253695889794
115,1436463524559,52.4950829912571
116,1436463525202,42.8558016142308
117,1436463525931,60.0020595163901
118,1436463526549,43.043482697737
119,1436463527221,42.1721470092214
120,1436463527892,50.9530732016059
121,1436463528522,29.5584618964831
122,1436463529173,53.4771753218746
123,1436463529830,39.1092464759277
124,1436463530496,43.7172817989176
125,1436463531125,46.5269837684835
126,1436463531805,39.6438401266706
127,1436463532476,41.3755310547819
128,1436463533091,25.3903629529758
129,1436463533758,47.7989779370442
130,1436463534411,40.954961483067
131,1436463535035,39.6638343057324
132,1436463535661,38.3418487862553
133,1436463536325,44.454336872755
134,1436463536959,47.6772622193917
135,1436463537574,53.5171863546738
136,1436463538238,44.583080537334
137,1436463538890,35.6182135302728
138,1436463539516,59.3664516295749
139,1436463540134,59.0991739849272
140,1436463540757,37.5200134290126
141,1436463541404,32.314733815153
142,1436463542064,33.8993118520757
143,1436463542708,56.5359004189404
144,1436463543366,43.3467722402361
145,1436463544012,44.3563000749924
146,1436463544640,27.1907498828371
147,1436463545276,41.0108694905965
148,1436463545938,32.3444295969356
149,1436463546563,28.011262127706
150,1436463547195,33.282629907892
151,1436463547863,34.126183687055
152,1436463548525,32.8130841932767
153,1436463549159,34.8283509070751
154,1436463549822,36.9773174346198
155,1436463550474,29.4266115479317
156,1436463551064,35.0426708204929
157,1436463551694,27.5846402161112
158,1436463552349,27.9337259667351
159,1436463552997,35.8005161063202
160,1436463553635,41.8033023576015
161,1436463554317,45.4715075285832
162,1436463555003,27.2904155508805
163,1436463555626,38.9934444361289
164,1436463556279,33.8170723033955
165,1436463556905,35.2453339793389
166,1436463557512,25.4567853527217
167,1436463558162,35.5252577604933
168,1436463558742,37.5560264165767
169,1436463559339,36.8370535629298
170,1436463560003,34.1589378271004
171,1436463560669,33.6321136491444
172,1436463561308,41.312954516896
173,1436463561961,35.6753450724793
174,1436463562624,34.821862294959
175,1436463563302,31.736532123796
176,1436463563962,40.3265235557189
177,1436463564652,34.9589448311367
178,1436463565319,40.1343425371676
179,1436463565985,37.9729644007448
180,1436463566623,34.6281371962436
181,1436463567270,32.071684429207
182,1436463567887,34.4177848825781
183,1436463568567,37.335403241242
184,1436463569220,36.425796239293
185,1436463569907,55.5085984851053
186,1436463570558,35.52630462808
187,1436463571229,39.9748437609099
188,1436463571880,42.4738468391457
189,1436463572494,35.6231339041223
190,1436463573173,31.0653777153236
191,1436463573831,34.7256789293742
192,1436463574482,32.2261746341356
193,1436463575150,28.2259154792383
194,1436463575815,34.8103373569485
195,1436463576470,63.5146630164108
196,1436463577152,56.1962677489814
197,1436463577790,39.4114136694214
198,1436463578420,57.6183056344276
199,1436463579059,43.7274448012148
200,1436463579684,60.7324397534524
201,1436463580313,43.521952726092
202,1436463580989,60.3553661270777
203,1436463581660,43.1269338816075
204,1436463582297,53.369347657656
205,1436463582939,43.5599861701374
206,1436463583605,42.3120148818565
207,1436463584291,40.7147041038767
208,1436463584948,55.5455937844244
209,1436463585623,56.2050755797985
210,1436463586283,44.1787485577695
211,1436463586924,32.7366276455469
212,1436463587523,36.6288852099838
213,1436463588185,34.6702597276149
214,1436463588837,65.6775859291395
215,1436463589490,63.6468718013197
216,1436463590136,53.723468884523
217,1436463590789,55.3714586627807
218,1436463591459,46.0619001680503
219,1436463592056,37.2395150699938
220,1436463592675,31.431183090162
221,1436463593352,31.5719869566988
222,1436463594012,27.9802282484066
223,1436463594662,45.5113441028448
224,1436463595286,54.2867914755421
225,1436463595930,48.2082611752818
226,1436463596594,43.2436671964102
227,1436463597221,38.0461603915774
228,1436463597849,42.4621223826389
229,1436463598478,38.057962765665
230,1436463599148,40.9731869196682
231,1436463599773,50.9927885094803
232,1436463600358,50.9784011701091
233,1436463600924,38.0085852434825
234,1436463601582,43.4171178071127
235,1436463602315,58.8402984463988
236,1436463603018,42.6753287189465
237,1436463603720,33.0084208955719
238,1436463604468,42.8856543744118
239,1436463605163,63.1642733410176
240,1436463606946,39.3608851888858
241,1436463607576,41.634744200335
242,1436463608261,36.949872286156
243,1436463608973,44.081878920008
244,1436463609628,37.9373957630625
245,1436463610316,39.612038512837
246,1436463610914,48.296833086139
247,1436463611565,38.2212868381314
248,1436463612259,34.7374629237582
249,1436463612974,37.6299099314852
250,1436463613729,45.39490341602
251,1436463614441,47.1854765608936
252,1436463615163,43.1917332551674
253,1436463615934,46.5586662006025
254,1436463616611,32.5004130253223
255,1436463617339,35.7200853487256
256,1436463618059,36.3644568456044
257,1436463618805,39.6214512578546
258,1436463619572,33.6574944315777
259,1436463620835,35.4820114985819
260,1436463621459,26.823084756425
261,1436463622192,29.7390667986146
262,1436463622925,41.7963853048863
263,1436463623672,43.2589164279291
264,1436463624389,42.4768334902916
265,1436463625099,24.8667381096304
266,1436463625824,42.1634658872248
267,1436463626619,37.3537156485859
268,1436463627360,34.4511304319853
269,1436463628093,35.0338072173767
270,1436463628815,40.3570045296219
271,1436463629503,39.0526042711897
272,1436463630158,37.8248935700736
273,1436463630823,42.682666412043
274,1436463631457,43.4939549134487
275,1436463632114,54.6106506484721
276,1436463632782,40.3331855726051
277,1436463633448,33.0860780569686
278,1436463634162,40.5694028709672
279,1436463634841,40.0269227314443
280,1436463635515,39.3859748604269
281,1436463636227,47.9918905427047
282,1436463636959,39.9515568827964
283,1436463637666,43.7999666911728
284,1436463638405,44.5746079548643
285,1436463639126,49.7723664370604
286,1436463639892,44.5375894030529
287,1436463640574,30.4243333353799
288,1436463641303,36.6464306621325
289,1436463642018,39.3504128445867
290,1436463642669,43.0018249304854
291,1436463644124,55.9555330411464
292,1436463644740,38.2141073584903
293,1436463645455,34.3444465357264
294,1436463646128,39.3597835811207
295,1436463646853,38.2227572589351
296,1436463647570,41.8990948534499
297,1436463648297,41.5359462715776
298,1436463649016,41.4214844435583
299,1436463649754,49.0199839226334
300,1436463650421,33.2439464225252
301,1436463651213,37.451150079656
302,1436463651992,38.2873281379174
303,1436463652705,33.6581729610359
304,1436463653444,36.8880388280661
305,1436463654135,30.4141948006132
306,1436463654847,40.0004046326501
307,1436463657347,59.742269537419
308,1436463658024,58.0192871984458
309,1436463658754,34.3418757958858
310,1436463659478,48.7478775806048
311,1436463660201,61.4890357720138
312,1436463660933,62.6004412195671
313,1436463661671,43.9744646672685
314,1436463662392,47.441957084433
315,1436463663108,33.9490126718745
316,1436463663837,57.2263392388885
317,1436463664567,46.7077415560235
318,1436463665294,38.4933698912804
319,1436463666021,42.2056289525594
320,1436463666796,58.2649139933872
321,1436463667513,28.9069699905013
322,1436463668252,54.6041836595217
323,1436463668979,47.3084935274536
324,1436463669709,41.9364322787681
325,1436463670428,41.9384228973721
326,1436463671149,62.2991305137124
327,1436463671921,35.5486347890472
328,1436463672655,56.7058089499241
329,1436463673406,54.5914717855733
330,1436463674122,65.0573667118067
331,1436463674846,54.0216193028903
332,1436463675591,50.7334974980371
333,1436463676383,33.9352293925004
334,1436463677056,41.4674275314546
335,1436463677808,44.6102063552251
336,1436463678550,52.7211923474516
337,1436463679256,56.0937957172116
338,1436463680028,44.4456852834879
339,1436463680740,44.9419804919695
340,1436463681426,58.6211543523922
341,1436463682239,69.8619989182702
342,1436463682957,44.8336275308129
343,1436463683693,34.6609422098755
344,1436463684396,36.2034147196393
345,1436463685104,53.5049397180436
346,1436463685844,43.4091152795087
347,1436463686627,56.2964105978836
348,1436463687372,42.0274715637787
349,1436463688105,41.9891516124008
350,1436463688818,60.7661971255756
351,1436463689559,41.9210285794138
352,1436463690287,69.5060380158683
353,1436463690988,36.8644642994528
354,1436463691665,40.5440035749028
355,1436463692399,40.1881064821575
356,1436463693127,58.7178949399339
357,1436463693851,39.8017317875281
358,1436463694599,38.9386814060011
359,1436463695321,35.6970169779714
360,1436463696048,34.4547610657938
361,1436463696783,54.9849810339342
362,1436463697450,32.1032630856785
363,1436463698188,45.3956912900109
364,1436463698919,52.7076150055893
365,1436463699637,40.3272883640108
366,1436463700366,49.414123454108
367,1436463701076,57.5969437877749
368,1436463701783,37.0429896937164
369,1436463702466,31.5648470456554
370,1436463703177,37.640769559017
371,1436463703923,63.7635633396805
372,1436463704647,51.839216492949
373,1436463705368,64.7831829466263
374,1436463706096,62.4683734419415
375,1436463706899,43.4916596299869
376,1436463707616,58.6044549208872
377,1436463708353,38.3515818671759
378,1436463709076,45.3123580267848
379,1436463709790,41.5743963343942
380,1436463710517,50.128882621365
381,1436463711221,48.4319278131242
382,1436463711965,60.9427771873477
383,1436463712602,53.9459119082277
384,1436463713297,50.2732812333509
385,1436463714010,40.0666841725701
386,1436463714739,46.3441746357088
387,1436463715478,32.5951238448803
388,1436463716226,46.9286792807236
389,1436463716954,43.3982712943814
390,1436463717672,59.0884611465024
391,1436463718405,47.8897347935678
392,1436463719110,61.8457349235622
393,1436463719784,65.2050919412618
394,1436463720523,38.118450395708
395,1436463721278,27.1655229388477
396,1436463721967,57.9799424827761
397,1436463722606,40.2895464991787
398,1436463723314,36.4281513693795
399,1436463724041,48.871585404687
400,1436463724772,48.3249255892716
401,1436463725481,52.4007976177113
402,1436463726150,37.2047256834058
403,1436463726875,27.9040336432906
404,1436463727617,39.2137137582255
405,1436463728349,40.2654810730756
406,1436463729074,68.9596276495592
407,1436463729810,54.0973866854658
408,1436463730549,42.5618824004057
409,1436463731235,34.1771792366489
410,1436463731829,33.2564526207895
411,1436463732480,29.6960724195122
412,1436463733202,30.1713156921961
413,1436463733924,33.562424705415
414,1436463734668,27.4659191595521
415,1436463735383,34.6071498896341
416,1436463736215,37.2368274172652
417,1436463736960,31.9702941497891
418,1436463737546,40.8266936789654
419,1436463738233,32.7477735100856
420,1436463738942,24.518834703421
421,1436463739664,20.7671971240948
422,1436463740412,43.6635694521684
423,1436463741206,29.1402945942191
424,1436463741938,45.2776515872835
425,1436463742621,37.1883000727654
426,1436463743279,61.1009080803296
427,1436463744016,44.068864203598
428,1436463744725,38.4997418609758
429,1436463745457,24.4824202737961
430,1436463746177,32.0974028220093
431,1436463746906,32.7490957593055
432,1436463747632,47.72679387706
433,1436463748311,36.9084730416165
434,1436463749020,30.2265905034674
435,1436463749753,35.3223895913863
436,1436463750502,58.3683595876829
437,1436463751229,59.376787871012
438,1436463751954,34.243334067542
439,1436463752685,50.8393455339054
440,1436463753333,38.2862681748354
441,1436463754032,44.438420545944
442,1436463754764,52.1255973957371
443,1436463755512,57.9847817157781
444,1436463756233,37.5557002806307
445,1436463756962,51.2546950659796
446,1436463757720,36.1530056047843
447,1436463758398,30.130318421744
448,1436463759123,28.8888085335759
449,1436463759832,42.5499272186613
450,1436463760555,32.5016730804019
451,1436463761298,55.5526621946702
452,1436463762027,40.9740904607483
453,1436463762699,51.6027146565446
454,1436463763302,66.2755473716613
455,1436463763978,48.5602778205395
456,1436463764719,50.1677248701045
457,1436463765454,39.493475643362
458,1436463766190,60.8934485949127
459,1436463766967,55.3047508717825
460,1436463767553,39.8232140999912
461,1436463768240,42.3555746407374
462,1436463768995,38.1416267716333
463,1436463769715,43.1824271534784
464,1436463770437,33.222647260121
465,1436463771160,40.4398350835912
466,1436463771891,39.5351253461601
467,1436463772605,50.5476735176463
468,1436463773287,49.632326879867
469,1436463773995,63.7131676972133
470,1436463774705,46.1105755014701
471,1436463775385,44.1864422331268
472,1436463776095,37.8906787709332
473,1436463776847,25.0538056302463
474,1436463777475,39.7998857797995
475,1436463778107,35.5903381875699
476,1436463778769,38.6576767818182
477,1436463779497,29.9992507083976
478,1436463780255,32.5739118759048
479,1436463781008,31.8256022830801
480,1436463781748,39.2387825812689
481,1436463782464,43.2862615092209
482,1436463783214,62.2697181788106
483,1436463783874,49.0637772759643
484,1436463784622,55.4101121890183
485,1436463785344,58.0856788517793
486,1436463786038,49.3712509802579
487,1436463786748,35.9871206904312
488,1436463787454,37.1777168783897
489,1436463788139,26.4875712595425
490,1436463788864,29.8938365640802
491,1436463789594,37.5107812862128
492,1436463790340,40.1748058180454
493,1436463791078,34.381091195006
494,1436463791821,34.6964018598296
495,1436463792555,35.6860757554243
496,1436463793269,36.6551112468395
497,1436463793971,39.4679491106188
498,1436463794722,33.7900449512644
499,1436463795447,35.3986945199456
500,1436463796198,33.2302405202523
501,1436463796908,32.0553456311492
502,1436463797616,62.2418463800133
503,1436463798248,36.238755626952
504,1436463798944,33.9928740448659
505,1436463799670,59.0607558681034
506,1436463800403,38.283043311007
507,1436463801120,45.5654363052455
508,1436463801858,34.9755676828565
509,1436463802586,43.697192595284
510,1436463803309,48.8002026176348
511,1436463803992,39.6543419313844
512,1436463804655,32.5831471191158
513,1436463805363,39.3511917072859
514,1436463806008,49.4077067745793
515,1436463806714,56.2721174984005
516,1436463807434,52.2080755681026
517,1436463808142,29.002211061383
518,1436463808875,40.9865255588657
519,1436463809575,47.2224753235148
520,1436463811119,46.1399988492644
521,1436463811888,49.0841636211344
522,1436463812610,37.8142749948363
523,1436463813332,53.3127111234712
524,1436463814014,45.8242293720381
525,1436463814682,39.836303970403
526,1436463815411,48.6508388052617
527,1436463816148,41.4155131533083
528,1436463816937,54.4769236831763
529,1436463817663,36.1948700731027
530,1436463818353,38.9937196835134
531,1436463819046,36.0259979371895
532,1436463819785,36.2015166604524
533,1436463820515,38.6931369696072
534,1436463821255,37.4535253200731
535,1436463822009,33.0716052294763
536,1436463822745,42.399398587297
537,1436463823498,38.8374999448278
538,1436463824209,36.8539289769738
539,1436463824852,35.6552726518135
540,1436463825552,28.810633867492
541,1436463826287,30.8902699593519
542,1436463827095,35.9645971644858
543,1436463827750,35.0345937030078
544,1436463829004,37.4604758858547
545,1436463829612,33.2274772886118
546,1436463830334,36.7941646702192
547,1436463831052,64.1920950617288
548,1436463831778,62.282026310314
549,1436463832498,37.5581791244874
550,1436463833218,45.9216501053987
551,1436463833934,59.21316335931
552,1436463834687,47.4200329952713
553,1436463835365,48.6012646460139
554,1436463836092,52.9090151852568
555,1436463836803,42.5409140810085
556,1436463837566,51.3354331562368
557,1436463838225,53.8479057243954
558,1436463838878,51.6888878286716
559,1436463839605,56.8500193923624
560,1436463840330,45.4810595559355
561,1436463841088,44.8838684426339
562,1436463841812,43.7973362439444
563,1436463842555,49.6569704366728
564,1436463843286,44.8998388145681
565,1436463844010,61.3456471427573
566,1436463844670,44.3765586353953
567,1436463845328,45.674206125485
568,1436463846067,38.3966482497486
569,1436463846784,36.2071389668657
570,1436463847518,29.5237313983821
571,1436463848225,36.0295507467923
572,1436463848955,35.0839836056478
573,1436463849675,65.8368520620034
574,1436463850395,59.3680662488895
575,1436463851122,54.0065855596198
576,1436463851861,42.2567983992864
