id,attr_time,attr_db
1,1436964111008,21.6222787914485
2,1436964111754,22.4157234668364
3,1436964112503,19.5866219314193
4,1436964113214,26.6367428850495
5,1436964113911,23.7666273165147
6,1436964114585,29.9309728410034
7,1436964115314,21.1772998087366
8,1436964116046,20.1260068082991
9,1436964116722,19.7271000426766
10,1436964117443,17.2711712487991
11,1436964118146,23.5285580050272
12,1436964118864,22.0376306665933
13,1436964119592,23.6819898781778
14,1436964120327,23.5566413334033
15,1436964121065,19.6747972587146
16,1436964121804,21.9657527894307
17,1436964122529,25.0740691786978
18,1436964123266,20.1707310463531
19,1436964123955,19.6205906719633
20,1436964124672,21.4394825581827
21,1436964125398,19.8632247958788
22,1436964126047,19.6743214027095
23,1436964126612,18.8882906680877
24,1436964127241,20.0666958671391
25,1436964127974,20.9598230513284
26,1436964128696,26.0894964143493
27,1436964129429,38.2062199146396
28,1436964130143,29.8619047362823
29,1436964130869,22.7434126203244
30,1436964131597,26.1980235625165
31,1436964132320,31.4086989927761
32,1436964133052,26.3594789212507
33,1436964133781,21.0731676345869
34,1436964134468,23.9692085260789
35,1436964135158,25.0219859294728
36,1436964135899,25.0505854575369
37,1436964136636,39.225593768915
38,1436964137322,24.104546675199
39,1436964138004,27.7748047215508
40,1436964138746,33.0146492159441
41,1436964139514,36.8208690785825
42,1436964140218,37.692865189061
43,1436964140895,32.0630410795756
44,1436964141637,35.701524456577
45,1436964142362,31.1615219178043
46,1436964143078,29.5613363005081
47,1436964143815,28.3781301487428
48,1436964144535,32.8967866458119
49,1436964145308,27.372881712493
50,1436964146024,28.4345063671022
51,1436964146703,27.6925914076251
52,1436964147426,26.4237850179426
53,1436964148150,28.2802722660015
54,1436964148893,28.2989816539957
55,1436964149625,28.8088652772084
56,1436964150344,26.8890417439103
57,1436964151084,26.5630388978958
58,1436964151816,27.2051493395311
59,1436964152548,27.010076743064
60,1436964153364,22.2537294764303
61,1436964154081,24.5657296252206
62,1436964154794,23.1032979368975
63,1436964155528,25.5399692733784
64,1436964156144,23.430420053211
65,1436964156815,25.3574237443874
66,1436964157479,15.1678559171924
67,1436964158137,18.9272084079506
68,1436964158837,19.7554095994949
69,1436964159553,18.4030597575519
70,1436964160221,20.9010428722795
71,1436964160904,18.8076482371913
72,1436964161541,19.6486613026112
73,1436964162207,18.401855822515
74,1436964162905,19.939963759453
75,1436964163657,22.1800908075543
76,1436964164415,17.5994420587249
77,1436964165045,19.1759095828111
78,1436964165675,22.6653578984354
79,1436964166316,28.318071840971
80,1436964167023,20.7305636784486
81,1436964167672,51.9198407712512
82,1436964168360,19.8756952104078
83,1436964169130,42.0870392992756
84,1436964169891,18.7903095656096
85,1436964170636,24.451966915268
86,1436964171373,24.8499130902584
87,1436964172089,20.0269447043582
88,1436964172813,24.6602938730693
89,1436964173557,26.1847876043143
90,1436964174276,25.9060510827998
91,1436964174977,21.230355872434
92,1436964175668,27.5753801857589
93,1436964176399,26.649227279994
94,1436964177103,22.9601267569512
95,1436964177847,35.0620727960988
96,1436964178536,34.5554542442896
97,1436964179184,35.6822791434713
98,1436964179902,25.1703243316919
99,1436964180675,34.7024410182691
100,1436964181488,30.0868024357224
101,1436964182229,24.6406485081986
102,1436964182968,27.3673955066061
103,1436964183683,36.6614419035702
104,1436964184467,30.6826369527583
105,1436964185190,34.0355010606327
106,1436964185867,47.2454244436275
107,1436964186473,43.7246545687157
108,1436964187193,38.701966171619
109,1436964187909,27.6458128543766
110,1436964188589,24.125688370348
111,1436964189331,47.7317461255462
112,1436964190073,32.516675008988
113,1436964190803,31.5916687242178
114,1436964191496,42.6869320136166
115,1436964192167,24.1454448716168
116,1436964192890,33.3801879151401
117,1436964193607,42.5637228014621
118,1436964194353,35.7992733964566
119,1436964195064,50.3719864648864
120,1436964195765,44.4872684556214
121,1436964196443,37.4470782993341
122,1436964197159,48.1744226657939
123,1436964197879,61.8698231399325
124,1436964198485,56.153826648058
125,1436964199160,45.8326569628171
126,1436964199899,35.9489970867718
127,1436964200642,25.3276455027507
128,1436964201380,52.2463975501365
129,1436964202052,43.9417419750125
130,1436964202693,27.2058118535193
131,1436964203385,34.0543529043929
132,1436964204150,43.6532800202631
133,1436964204878,60.6118649468005
134,1436964205632,29.8369612463404
135,1436964206309,25.3606756450444
136,1436964207046,50.4256451611751
137,1436964207766,38.5497563571079
138,1436964208468,44.3431777361942
139,1436964209194,24.6438375683004
140,1436964209890,40.038381545055
141,1436964210614,28.8093772683227
142,1436964211362,30.1665079046715
143,1436964212097,34.4185457802112
144,1436964212818,25.6453218195086
145,1436964213568,29.2208472618285
146,1436964214293,29.596785044457
147,1436964215025,27.1491879211963
148,1436964215761,26.9041250753542
149,1436964216446,30.3084294319169
150,1436964217148,33.3323319950955
151,1436964217889,28.311853467813
152,1436964218623,30.8224003476326
153,1436964219302,29.3181486795906
154,1436964219986,30.0943405892205
155,1436964220726,32.8932215665347
156,1436964221447,31.9522607186043
157,1436964222160,31.6118615134121
158,1436964222917,35.2379423056523
159,1436964223665,29.5151553435893
160,1436964224406,33.8023353871261
161,1436964225139,31.8323026446712
162,1436964225877,31.4670153283212
163,1436964226566,30.6738549738718
164,1436964227212,34.4246442543419
165,1436964227974,30.1893682148425
166,1436964228692,30.3462282109707
167,1436964229401,29.6801078447956
168,1436964230104,32.8407015585718
169,1436964230836,32.7279384585397
170,1436964231582,35.6050208632616
171,1436964232323,33.6327802583721
172,1436964233033,29.1512405578301
173,1436964233778,29.5510965733213
174,1436964234508,28.4742016182626
175,1436964235250,33.5562744491428
176,1436964235999,28.382704547378
177,1436964236721,28.3430056298617
178,1436964237375,29.2367018429342
179,1436964238094,28.3720107165901
180,1436964238834,27.3496623527287
181,1436964239523,32.7977962893134
182,1436964240234,28.571114267536
183,1436964240962,34.5481835957373
184,1436964241716,29.2717366463799
185,1436964242437,32.8545855385326
186,1436964243160,29.7919193253864
187,1436964243919,29.8209629424025
188,1436964244645,28.4962825058066
189,1436964245377,29.2785638363387
190,1436964246116,43.2322002852135
191,1436964246872,27.5112847556285
192,1436964247478,28.322535621547
193,1436964248198,38.1474917331321
194,1436964248954,35.7301742089824
195,1436964249729,27.1771886541271
196,1436964250419,23.1603277290497
197,1436964251106,25.1702414527513
198,1436964251833,25.7469508116036
199,1436964252571,24.1593704215435
200,1436964253309,28.6615381459505
201,1436964254042,25.2242372425641
202,1436964254780,36.7233709143414
203,1436964255520,31.5248912591348
204,1436964256242,46.1961428279258
205,1436964256945,25.16661590522
206,1436964257693,42.1383523427448
207,1436964258458,46.5306489969794
208,1436964259240,44.476704771033
209,1436964259883,42.5769528744063
210,1436964260624,27.6511631440582
211,1436964261350,33.0173727336231
212,1436964262054,72.7169822141575
213,1436964262782,29.4255615791179
214,1436964263513,31.7905270518835
215,1436964264266,29.3430823640563
216,1436964265004,30.1870380475649
217,1436964265758,32.0687220036668
218,1436964266492,41.2723769984518
219,1436964267201,32.9507160801219
220,1436964267788,30.4684697367836
221,1436964268468,40.9447629759531
222,1436964269269,33.0499271755947
223,1436964269985,27.2577966879964
224,1436964270699,29.9678632933554
225,1436964271423,30.2321485673332
226,1436964273465,47.4840779245257
227,1436964274198,37.0538879684068
228,1436964274935,63.6222385332269
229,1436964275676,72.9051998319897
230,1436964276412,34.7628522843991
231,1436964277161,30.4613029634767
232,1436964277859,29.7216877177575
233,1436964278592,27.4465983012495
234,1436964279379,25.5230077134367
235,1436964280114,26.8250944557226
236,1436964280706,27.8135974798706
237,1436964281396,24.6679841820719
238,1436964282145,25.454807422347
239,1436964282878,48.5793644579631
240,1436964283623,35.9972255907174
241,1436964284376,42.9459644447248
242,1436964285096,27.9908069087851
243,1436964287012,29.4647266138323
244,1436964287625,25.9228826737747
245,1436964288332,24.8905772679001
246,1436964289088,27.2390953176797
247,1436964289820,28.7433974662245
248,1436964290539,22.9499205014258
249,1436964291224,25.2806568545736
250,1436964291957,25.1005011328908
251,1436964292690,36.0322351352546
252,1436964293442,26.7903749324786
253,1436964294161,29.7216622067186
254,1436964294884,28.4242285230422
255,1436964295623,25.4999452702526
256,1436964296354,25.5775159789496
257,1436964297085,26.1763517475618
258,1436964297772,25.1793654696181
259,1436964298481,25.7329446641692
260,1436964299197,28.3341986885437
261,1436964299963,30.6828804863484
262,1436964300674,33.2525990103209
263,1436964301441,33.5188498486073
264,1436964302169,37.3428828068524
265,1436964302893,32.9007721788503
266,1436964303623,28.2971905375121
267,1436964304360,27.2639809105031
268,1436964305069,28.2205483354332
269,1436964305805,28.2147818377474
270,1436964306582,27.5260099185856
271,1436964307291,34.8906489646855
272,1436964307894,25.1944655741343
273,1436964308524,26.8112158215084
274,1436964310162,24.751782787782
275,1436964310796,24.6325168714335
276,1436964311427,24.4325386025281
277,1436964312122,27.1907806189043
278,1436964312866,29.490442118629
279,1436964313613,64.5591505305533
280,1436964314348,57.0999966520939
281,1436964315075,29.7030225982697
282,1436964315797,36.7239645933513
283,1436964316552,32.2965666650521
284,1436964317292,29.7458454452879
285,1436964318015,28.2037133577361
286,1436964318703,28.0845975098407
287,1436964319384,28.0018769742329
288,1436964320091,33.2677450237371
289,1436964320823,36.1080862692336
290,1436964321586,24.3610139602307
291,1436964323446,26.4222340262366
292,1436964324189,25.2454630402997
293,1436964324925,27.5605176141115
294,1436964325673,27.287232086065
295,1436964326419,25.3154099132164
296,1436964327167,25.9717163864975
297,1436964327901,28.4250411585445
298,1436964328500,28.3648733197106
299,1436964329200,24.8047478289035
300,1436964329960,28.7151384387948
301,1436964330688,28.1415232690478
302,1436964331423,31.2696472246297
303,1436964332153,33.7730543062196
304,1436964332830,29.7767379373354
305,1436964333534,29.018379507292
306,1436964334284,30.7436942363715
307,1436964335007,28.9356372166289
308,1436964335742,29.0102858408278
309,1436964336474,25.5712508454709
310,1436964337189,29.6068438008134
311,1436964337940,29.3343147877417
312,1436964338672,27.821952188652
313,1436964339340,28.8313847819123
314,1436964340084,37.4368152396124
315,1436964340807,31.2663380184017
316,1436964341509,26.6539440576648
317,1436964342191,27.1797476650569
318,1436964342865,31.7134554916774
319,1436964343592,36.1872792749782
320,1436964344319,29.0394264937218
321,1436964345057,27.7623460593494
322,1436964345788,28.5985071446626
323,1436964346525,31.3193346895711
324,1436964347257,33.4134618018391
325,1436964347972,26.2826706712111
326,1436964348588,26.106100829622
327,1436964349262,26.8478279080966
328,1436964349981,22.4347305923481
329,1436964350728,26.051401029796
330,1436964351488,33.4663863269876
331,1436964352125,24.461673214708
332,1436964352836,24.4804609718234
333,1436964353581,28.8255601778894
334,1436964354325,25.4213025701745
335,1436964355066,29.2104665937794
336,1436964355812,37.874576099311
337,1436964356548,29.301742604882
338,1436964357273,28.1079625379111
339,1436964358018,25.1786764140149
340,1436964358755,28.8253670247787
341,1436964359506,27.8528212410618
342,1436964360137,26.9338691062629
343,1436964360871,27.2806217805958
344,1436964361610,26.2151134042578
345,1436964362339,26.8072092764907
346,1436964363049,27.7698162577995
347,1436964363708,35.4998157046335
348,1436964364408,34.6585479337325
349,1436964365139,28.1765771426571
350,1436964365883,33.5835345325518
351,1436964366622,30.7072628972216
352,1436964367349,29.116380278458
353,1436964368104,29.5797744122505
354,1436964368710,29.8215412644422
355,1436964369366,35.1921947565337
356,1436964370114,30.7481873276298
357,1436964370847,27.580450834269
358,1436964371571,29.8646762600677
359,1436964372309,29.3947819004711
360,1436964373054,29.243378209976
361,1436964373771,33.3220042854263
362,1436964374465,28.271311143416
363,1436964375145,27.0009397241631
364,1436964375883,24.1974273201448
365,1436964376606,29.8061710510088
366,1436964377299,28.3680792611311
367,1436964378022,24.0867615743861
368,1436964378757,31.8633612282251
369,1436964379484,31.5227495023202
370,1436964380227,29.3801880319184
371,1436964380943,29.2804639434585
372,1436964381668,29.7467496995985
373,1436964382400,30.1816221943346
374,1436964383130,27.8492815880362
375,1436964383861,26.7657412259077
376,1436964384552,25.3411135190204
377,1436964385212,27.1131016369944
378,1436964385972,26.5971463518882
379,1436964386694,27.6322720511051
380,1436964387423,32.9915330251006
381,1436964388157,30.9077411565077
382,1436964388853,32.8054988384219
383,1436964389562,29.6256578944313
384,1436964390298,32.2055265663582
385,1436964391034,27.0036994314994
386,1436964391777,24.8900333544639
387,1436964392513,31.9482831763904
388,1436964393239,29.5254630287968
389,1436964393962,34.5429001507897
390,1436964394704,25.3617907420209
391,1436964395360,27.24003385085
392,1436964396091,32.8601901561338
393,1436964396830,25.7306118176166
394,1436964397605,28.5151942628434
395,1436964398389,35.3210730569619
396,1436964399215,39.7040961702139
397,1436964399930,35.848568454045
398,1436964400670,33.9861847805442
399,1436964401418,42.8666327181694
400,1436964402150,35.4562620194271
401,1436964402891,29.479279070714
402,1436964403702,28.8017358380418
403,1436964404432,27.20819648555
404,1436964405123,28.8216414821412
405,1436964405846,24.7850786139721
406,1436964406662,28.3617269530081
407,1436964407352,34.9548746434961
408,1436964408020,37.8148400146504
409,1436964408747,42.1271160401957
410,1436964409462,41.0005161093964
411,1436964410208,31.9894068323342
412,1436964410934,29.8343272579928
413,1436964411659,36.6705693376756
414,1436964412417,23.4234871622791
415,1436964413071,28.0054017595465
416,1436964413799,28.7936598375826
417,1436964414529,26.3702467631428
418,1436964415244,26.1078163535089
419,1436964415823,32.6429604166898
420,1436964416497,25.1856384497586
421,1436964417226,30.1611913389543
422,1436964417984,30.8655023560502
423,1436964418753,25.9542888884925
424,1436964419423,34.6916889891851
425,1436964420148,65.6715714796072
426,1436964420867,27.875943189763
427,1436964421601,24.4278433546822
428,1436964422286,26.1668706805766
429,1436964422969,33.0632646530107
430,1436964423698,27.698568498579
431,1436964424500,27.9906119085004
432,1436964425207,30.6673289685002
433,1436964425866,27.2660295403119
434,1436964426581,27.3916271738761
435,1436964427336,24.9641484722419
436,1436964428068,25.7049176087527
437,1436964428640,27.9111002256798
438,1436964429287,29.1193616172236
439,1436964430018,26.4956307126864
440,1436964430758,39.6373010597745
441,1436964431487,34.1123420049735
442,1436964432204,30.1624678662801
443,1436964432939,25.8979886954035
444,1436964433675,27.0950231753897
445,1436964434473,26.7719758987452
446,1436964435201,28.0900993843405
447,1436964435877,27.3612626625416
448,1436964436597,31.3716982487183
449,1436964437325,31.3036636856751
450,1436964438095,30.9707322439128
451,1436964438758,28.1796150264004
452,1436964439561,26.1241921584965
453,1436964440295,25.0468622800588
454,1436964441052,22.7524541444839
455,1436964441787,24.2632745114025
456,1436964442523,31.8567692110963
457,1436964443267,25.2704142871228
458,1436964444034,27.2062780367762
459,1436964444764,26.9004722679556
460,1436964445465,28.7454025510016
461,1436964446129,31.9029739411327
462,1436964446877,35.8608074673186
463,1436964447618,41.919792059833
464,1436964448347,29.4507038213807
465,1436964449075,37.8790497604831
466,1436964449800,33.0174067687988
467,1436964450534,27.3179935879908
468,1436964451285,25.8577078420602
469,1436964452020,28.6059066716862
470,1436964452722,32.8966290043311
471,1436964453412,31.6732119209161
472,1436964454152,31.3948225129769
473,1436964454895,30.6009183154781
474,1436964455604,29.2617836121435
475,1436964456294,28.5184501225706
476,1436964456944,29.143843804104
477,1436964457681,30.4884165282447
478,1436964458404,32.1298594448351
479,1436964459184,27.821322897637
480,1436964459820,28.7181734569507
481,1436964460549,26.5145182071276
482,1436964461260,30.0712460814466
483,1436964461999,29.7727009724256
484,1436964462734,26.223864586521
485,1436964463472,29.066882893058
486,1436964464198,26.1717558564754
487,1436964464938,25.8892137003058
488,1436964465679,35.2973591824155
489,1436964466407,28.6132541131395
490,1436964467075,26.2738497443566
491,1436964467817,26.9619424377624
492,1436964468550,27.9866132600248
493,1436964469249,31.0785999907001
494,1436964469936,30.0072129610863
495,1436964470658,27.5612120934456
496,1436964471402,30.942110613638
497,1436964472125,30.2208479223474
498,1436964472857,32.2421568318203
499,1436964473587,38.3200034514816
500,1436964474334,36.6089886664682
501,1436964475080,36.9201336972011
502,1436964475792,37.5673906182731
503,1436964477477,30.9968646612612
504,1436964478220,33.5653101336349
505,1436964478916,36.3889700879753
506,1436964479580,30.6710376855615
507,1436964480334,26.8717127054213
508,1436964481057,28.3819573144377
509,1436964481798,26.2659055055501
510,1436964482538,28.603115212456
511,1436964483271,31.6288742412056
512,1436964484037,28.5532091311899
513,1436964484814,32.3434488947245
514,1436964485500,29.3111546481183
515,1436964486238,36.6102045617031
516,1436964486959,38.4340153100812
517,1436964487691,30.1984079009806
518,1436964488441,31.6081570935095
519,1436964489179,29.6652683762119
520,1436964489764,28.2053440190638
521,1436964490463,36.9499804369878
522,1436964491195,28.3065451716221
523,1436964491925,31.4109760617363
524,1436964492663,30.5249679825582
525,1436964493446,26.7642160817076
526,1436964495378,29.5061665243511
527,1436964496112,27.7314720025909
528,1436964496822,30.4420196979998
529,1436964497535,30.4492105983356
530,1436964498272,26.4392751219888
531,1436964499113,27.9453094471775
532,1436964499832,69.1721489839682
533,1436964500464,71.0318080035531
534,1436964501153,34.2908437232945
535,1436964501876,51.3114056213067
536,1436964502852,48.9914388867265
537,1436964503450,34.276481474377
538,1436964504124,32.2812031454949
539,1436964504810,28.9108813449381
540,1436964505544,39.271997577051
541,1436964506294,27.6250043657737
542,1436964507027,35.8140127219468
543,1436964507730,28.2279573810013
544,1436964508515,28.2256986412765
545,1436964509253,24.6543274533202
546,1436964509957,26.8588567946291
547,1436964510549,27.9372935053126
548,1436964511214,31.5833433788539
549,1436964511947,32.2675338944433
550,1436964512597,32.5347792797481
551,1436964513278,29.5856481993558
552,1436964514008,30.450007153319
553,1436964514739,28.8515746330284
554,1436964515465,32.7166408715546
555,1436964516208,32.5913663341616
556,1436964516982,28.0303421072515
557,1436964517675,26.3979247370215
558,1436964518307,36.676092315154
559,1436964519039,30.1254435686143
560,1436964519787,58.3200308043113
561,1436964520510,28.6854957486738
562,1436964521224,28.9188003050987
563,1436964521978,28.6996454388444
564,1436964522712,33.4578855075502
565,1436964523437,26.1121416396579
566,1436964524217,32.250506749106
567,1436964524894,31.3191992151511
568,1436964526482,24.1867521229158
569,1436964527203,29.156456190026
570,1436964527893,26.0566016456862
571,1436964528633,28.298795348332
572,1436964529367,33.4606634171581
573,1436964530087,28.3973414088243
574,1436964530664,35.6564194248539
575,1436964531338,53.5439450223131
