id,attr_time,attr_db
1,1436964111056,18.7711089503024
2,1436964111793,19.8343034363293
3,1436964112541,19.7158822979919
4,1436964113277,16.9477698683899
5,1436964113998,18.6675640356475
6,1436964114751,18.1131739209688
7,1436964115488,48.3518074698151
8,1436964116225,49.1311467963724
9,1436964116952,62.7598297161262
10,1436964117692,59.4439576394912
11,1436964118389,59.9152655604885
12,1436964119122,66.5864461045866
13,1436964119847,59.2421858353014
14,1436964120580,59.5715071684849
15,1436964121314,64.829766346697
16,1436964122095,65.0727016298396
17,1436964122824,62.9523806281502
18,1436964123582,56.0235361224484
19,1436964124385,63.1041829484449
20,1436964125126,54.8283751062139
21,1436964125863,62.8192470980146
22,1436964126584,53.0073127747215
23,1436964127319,59.7175179147358
24,1436964128056,63.8791095060862
25,1436964128858,61.6209572882106
26,1436964129586,56.9089073814041
27,1436964130226,62.3771342446851
28,1436964130944,60.454865993774
29,1436964131680,60.4686353847013
30,1436964132436,63.4508748965719
31,1436964133148,59.8798800436675
32,1436964133891,52.384103142
33,1436964134609,68.5047276464617
34,1436964135358,63.0369251719105
35,1436964136129,50.6602343752996
36,1436964136846,63.2309201583404
37,1436964137569,66.0100832003558
38,1436964138360,68.7515502041486
39,1436964139000,58.4066852188787
40,1436964139819,56.352483633375
41,1436964140509,67.3221275125648
42,1436964141247,58.4516879983297
43,1436964141982,57.5450320544249
44,1436964142572,62.0763273356543
45,1436964143263,61.2843224401348
46,1436964144011,63.0542831764377
47,1436964144745,62.5068615495509
48,1436964145469,58.2810243640936
49,1436964146225,61.1100160211758
50,1436964146955,66.4403984245837
51,1436964147680,62.6220206322534
52,1436964148402,57.9371963384283
53,1436964149128,68.0208410056027
54,1436964149879,56.617801092049
55,1436964150596,57.8359181530917
56,1436964151273,62.3183747557368
57,1436964152032,58.9779853427723
58,1436964152754,59.7570852545622
59,1436964153619,67.5402776572637
60,1436964154307,60.4138312767383
61,1436964154973,54.9209639855691
62,1436964155708,68.8310200767967
63,1436964156432,64.3249829950554
64,1436964157168,56.2895267402557
65,1436964157910,68.2422551418701
66,1436964158626,60.401675564385
67,1436964159376,57.2275028248763
68,1436964160116,62.3400840443602
69,1436964160844,60.67352988797
70,1436964161597,61.0499860101846
71,1436964162255,68.8037070214994
72,1436964163017,56.9142077231683
73,1436964163739,55.3081297210735
74,1436964164507,59.4936219327538
75,1436964165268,53.8125748845732
76,1436964165904,61.0361695797127
77,1436964166598,71.1467366169911
78,1436964167341,59.4252036009505
79,1436964168082,57.4861023253428
80,1436964168823,65.9825904884463
81,1436964169557,54.8413592427653
82,1436964170298,57.0945815966738
83,1436964171033,58.920447436862
84,1436964171751,58.6175814134965
85,1436964172478,54.2824769824739
86,1436964173213,62.3930181230235
87,1436964173931,58.1756847638706
88,1436964174737,60.6015057902906
89,1436964175460,65.1619323094201
90,1436964176204,59.9561408311992
91,1436964176925,62.5757762902675
92,1436964177655,65.4202234399158
93,1436964178408,56.3695456313037
94,1436964179186,65.5623425555235
95,1436964179834,65.3266285167588
96,1436964180551,51.6925512077577
97,1436964181288,56.1144943839462
98,1436964182023,67.5884757811265
99,1436964182746,58.7987482486445
100,1436964183464,52.7104445585397
101,1436964184153,58.8379759098842
102,1436964184885,57.8316849875656
103,1436964185624,60.7717936246942
104,1436964186343,57.1161609090241
105,1436964187118,62.4454510851065
106,1436964187861,51.9559768953121
107,1436964188650,60.2403935240892
108,1436964189411,57.1349449046508
109,1436964190105,61.5911930779927
110,1436964190832,60.6428840667591
111,1436964191556,63.5210721188885
112,1436964192298,62.4228191392462
113,1436964193038,54.9437492591149
114,1436964193733,64.5537022081878
115,1436964194375,65.5490400726632
116,1436964195072,63.4556248568374
117,1436964195747,61.7200704894144
118,1436964196428,57.5748297181781
119,1436964197213,67.8461454441897
120,1436964197950,52.787365488808
121,1436964198679,60.8870037720912
122,1436964199443,58.9271642448254
123,1436964200028,68.0562317301663
124,1436964200726,61.8014360848533
125,1436964201458,59.674410393929
126,1436964203430,68.542781059762
127,1436964204108,59.0718547628425
128,1436964204851,62.4920294033842
129,1436964205580,60.3169788769697
130,1436964206276,65.0327884121404
131,1436964207000,66.1452558809291
132,1436964207666,57.8516476541401
133,1436964208347,62.9463666378265
134,1436964209201,56.3521646514075
135,1436964209886,57.1598533548329
136,1436964210624,62.1258350666973
137,1436964211368,56.5191163042151
138,1436964213258,57.8433847662169
139,1436964214013,61.7957066212745
140,1436964214754,52.5535979275226
141,1436964215460,55.7464004323024
142,1436964216193,54.1692622893486
143,1436964216938,58.7043410805776
144,1436964217677,61.6977102955248
145,1436964218412,64.8981058556059
146,1436964219326,66.6320189141036
147,1436964220043,66.5371427297002
148,1436964220729,65.839297080027
149,1436964221473,56.8449960876195
150,1436964222196,65.2028840642433
151,1436964222939,62.3755017539544
152,1436964223678,59.5519780953222
153,1436964224406,62.21297597903
154,1436964225100,65.7739586330838
155,1436964225779,66.3373569173238
156,1436964226515,51.7164470274229
157,1436964228255,60.4155609613757
158,1436964228993,59.0664460685723
159,1436964229667,60.3117117870862
160,1436964230388,55.7242946149845
161,1436964231105,63.1552474335281
162,1436964231862,58.076611332683
163,1436964232608,60.8137590364796
164,1436964233345,66.3785399767539
165,1436964234079,55.826512340173
166,1436964234875,57.8743799306312
167,1436964235492,60.8070531877028
168,1436964236921,63.1174770420719
169,1436964237597,62.5381095997598
170,1436964238323,58.1140347909181
171,1436964239055,59.3792567452987
172,1436964239670,64.2108657290154
173,1436964240334,60.7967530792878
174,1436964241070,66.747478475506
175,1436964241798,57.1500722130913
176,1436964242531,61.1058050376305
177,1436964243251,66.6897446936204
178,1436964243995,59.8198679175672
179,1436964244718,57.0906982060305
180,1436964245394,57.3406933450584
181,1436964246163,58.539612474532
182,1436964246903,66.2819429501973
183,1436964247639,65.1248882310426
184,1436964248321,59.927272822203
185,1436964249278,64.2715446846339
186,1436964249909,65.0554138872952
187,1436964250593,55.9671394673005
188,1436964251337,64.8125042249003
189,1436964252069,63.6383400172436
190,1436964252784,59.62783896829
191,1436964253495,65.5275612912779
192,1436964254237,53.116913772681
193,1436964255038,58.5972846601522
194,1436964255682,64.0834578375317
195,1436964256400,66.4994193905024
196,1436964257150,59.2596156855978
197,1436964257890,58.2792007169869
198,1436964258612,58.9221350197633
199,1436964259304,61.503065943103
200,1436964259891,67.3573654411324
201,1436964260495,58.6147062762646
202,1436964261167,62.5662446061772
203,1436964261890,60.8391602857618
204,1436964262604,57.5475654759477
205,1436964263346,65.4023958808318
206,1436964264049,62.3867427222007
207,1436964264743,62.0633190486786
208,1436964265418,51.976928953577
209,1436964266044,58.6508465793154
210,1436964266746,64.5156809973145
211,1436964267476,61.8896839919393
212,1436964268205,60.2455302916718
213,1436964268904,63.1734573968637
214,1436964269687,59.2702495097513
215,1436964270515,55.8056639963487
216,1436964271280,63.3975838788032
217,1436964272007,65.309034741625
218,1436964272735,56.7435886251349
219,1436964273446,61.3355419736445
220,1436964274176,63.402150025235
221,1436964274894,60.1598708787605
222,1436964275596,65.2266252075887
223,1436964276225,62.3819751727909
224,1436964276927,65.076496263534
225,1436964277650,59.2036135238317
226,1436964278389,56.7540704877913
227,1436964279152,51.8883578487929
228,1436964279936,63.8035142376548
229,1436964280633,50.9768556113297
230,1436964281365,59.0820261597843
231,1436964282068,68.3525025942525
232,1436964282789,54.7060778253381
233,1436964283472,64.951263404382
234,1436964284195,60.4344429485849
235,1436964284926,59.1573586295425
236,1436964285668,63.0766574599641
237,1436964286352,58.17302214258
238,1436964287102,66.0582927614686
239,1436964287835,64.3276994455142
240,1436964288567,61.7683491466961
241,1436964289393,59.0795612580501
242,1436964290056,53.0608486522749
243,1436964290805,54.0287294210734
244,1436964291540,64.4917655546089
245,1436964292301,55.7072235609888
246,1436964293042,60.4745792891631
247,1436964293780,59.7515703362219
248,1436964294508,58.8865420842268
249,1436964295308,59.4676273882518
250,1436964296042,64.3117303919557
251,1436964296760,64.1728234367703
252,1436964297500,52.6200744766221
253,1436964298233,57.7353415095763
254,1436964298968,63.2637643819345
255,1436964299710,56.5660945329062
256,1436964300509,63.4042255886825
257,1436964301120,62.5304714242808
258,1436964301847,56.9767309762065
259,1436964302567,56.0562387129606
260,1436964303300,58.3182206718902
261,1436964304031,66.2498750966812
262,1436964304794,56.8478565859999
263,1436964305516,59.2196162867851
264,1436964306241,67.9026190779646
265,1436964306973,59.1825772049433
266,1436964307553,59.7459427303874
267,1436964308230,66.1083244214253
268,1436964308957,60.5911150720319
269,1436964309704,62.5664158562784
270,1436964310528,63.6278171391331
271,1436964311319,69.2256668532435
272,1436964312046,51.6662143381375
273,1436964312758,63.2719419868439
274,1436964313484,63.1132896376106
275,1436964314222,58.4755311736935
276,1436964314951,63.0244179863291
277,1436964315664,61.5214619801379
278,1436964316393,57.7684189864673
279,1436964317189,64.8878711644054
280,1436964317941,60.6613437633613
281,1436964318675,54.4130536258474
282,1436964319437,65.3630355675475
283,1436964320230,69.712590553336
284,1436964320998,58.2141370757498
285,1436964321658,65.7024334314711
286,1436964322406,63.4363370118805
287,1436964323103,55.8427920881012
288,1436964323844,62.3168344890041
289,1436964324602,65.5583266646435
290,1436964325406,52.7523727577963
291,1436964326124,67.0550536529441
292,1436964326851,61.233325024995
293,1436964327597,55.3850983191611
294,1436964328338,62.5365532268896
295,1436964329100,65.9432871241068
296,1436964329825,55.6285705806213
297,1436964330545,59.1725793734376
298,1436964331194,57.2688662974238
299,1436964331897,65.9509459779206
300,1436964332547,65.4208277172291
301,1436964333236,55.335820074944
302,1436964333914,69.4688320655652
303,1436964334577,57.4412103731791
304,1436964335271,64.0889679843054
305,1436964335924,52.2207780390258
306,1436964336657,60.612056202143
307,1436964337380,62.33417523787
308,1436964338063,66.4920244967249
309,1436964338810,57.7544290567067
310,1436964339536,66.9312675858783
311,1436964340274,68.5742940832779
312,1436964340925,59.0449731056734
313,1436964341609,51.2264254007273
314,1436964342338,60.9329921826486
315,1436964343091,65.0252435672429
316,1436964343832,56.6732618814115
317,1436964344571,58.1612095011196
318,1436964345309,65.3426881130384
319,1436964346036,54.126956045095
320,1436964346772,60.9485078591668
321,1436964347548,65.3703362772063
322,1436964348285,50.2313193888897
323,1436964349064,62.9509664829653
324,1436964349810,64.6896695021445
325,1436964350541,52.8003944482691
326,1436964351318,56.328045500688
327,1436964352040,65.5886518959007
328,1436964352790,59.8226082680937
329,1436964353523,60.4762565368987
330,1436964354258,63.5493144389335
331,1436964355072,56.7406969314434
332,1436964355839,56.1361335402061
333,1436964356572,63.6031313622217
334,1436964357312,58.5163310998999
335,1436964358001,57.3262065030811
336,1436964358685,55.7650275794204
337,1436964359413,69.076082179509
338,1436964360222,58.4799681597713
339,1436964360945,58.8757288289759
340,1436964361631,69.0206795078033
341,1436964362277,66.6480718625354
342,1436964363012,59.5073207231337
343,1436964363739,60.8912636899458
344,1436964364466,62.2980507175128
345,1436964365199,62.4027476599156
346,1436964365878,59.4364865374923
347,1436964366541,44.2137263094304
348,1436964367282,62.5835577199181
349,1436964367967,54.1744371620006
350,1436964368630,46.7195096559344
351,1436964369363,60.3298691834309
352,1436964370118,57.2631438940781
353,1436964370854,60.3146477900141
354,1436964371520,59.7598207709913
355,1436964372131,55.1799403975855
356,1436964372863,62.3465757784249
357,1436964373575,56.7439221661183
358,1436964374326,59.4625663135108
359,1436964375107,63.3046760108587
360,1436964375883,63.4064635913415
361,1436964376673,55.7113744341447
362,1436964377418,58.9445155587219
363,1436964378147,60.6343179387921
364,1436964378810,57.8358793602339
365,1436964379538,58.1688296531684
366,1436964380272,67.8230244649906
367,1436964381011,61.8156326798267
368,1436964381740,59.5473593558082
369,1436964382407,54.6818458499046
370,1436964383141,59.7035181379413
371,1436964383895,56.1978430400388
372,1436964384629,60.0429348846394
373,1436964385366,61.4746463716154
374,1436964386103,69.891539090442
375,1436964386847,56.206284301515
376,1436964387588,63.5221971796278
377,1436964388277,55.1444848078289
378,1436964388933,59.1362674186048
379,1436964389618,59.0017519877283
380,1436964390373,69.6018983355325
381,1436964391130,62.7679610069437
382,1436964391835,62.4385903917414
383,1436964392500,59.6290631706783
384,1436964393257,61.7169426694346
385,1436964393942,60.5902467511479
386,1436964394686,69.4231051738407
387,1436964395420,61.7191887917353
388,1436964396155,66.8552016841323
389,1436964396856,67.1663018943193
390,1436964397490,64.1448972343194
391,1436964398192,49.9152900993132
392,1436964398868,60.1972202667503
393,1436964399520,63.2112555657171
394,1436964400238,54.7570123728756
395,1436964401078,55.9492938605146
396,1436964401790,61.5913924020214
397,1436964402445,54.4981603625884
398,1436964403117,65.7449504591051
399,1436964403853,70.6499121107471
400,1436964404587,60.1707510808337
401,1436964405345,62.5518103856548
402,1436964406023,59.8002943587099
403,1436964407464,65.3213508876425
404,1436964408155,63.3203918525635
405,1436964408858,59.8008635688537
406,1436964409487,65.5705344702672
407,1436964410182,57.5578779943629
408,1436964410988,64.2130322874378
409,1436964411736,58.1384618400631
410,1436964412451,60.8151659933932
411,1436964413190,65.0861632546414
412,1436964413910,55.5749255695745
413,1436964414633,63.756322024947
414,1436964415404,62.7459932072786
415,1436964416139,60.2140138932524
416,1436964416858,60.6496572120844
417,1436964417577,58.8741550147067
418,1436964418321,56.4550949551326
419,1436964419003,63.8354196985286
420,1436964419655,63.7639631034781
421,1436964421636,56.4449708639874
422,1436964422251,64.8362413070219
423,1436964422982,60.3049595613428
424,1436964423660,67.5035564374017
425,1436964424395,63.0123306808853
426,1436964425085,56.7578694071713
427,1436964425750,58.1560397270131
428,1436964426469,68.0988645424071
429,1436964427206,61.0700708378794
430,1436964427931,59.76088369105
431,1436964428670,64.7640726003141
432,1436964429398,62.5633698681005
433,1436964430062,66.0727048576542
434,1436964430790,51.9506353298115
435,1436964431515,65.2549245023347
436,1436964432257,47.3200738177043
437,1436964432952,57.3924161884292
438,1436964433615,60.1354516006767
439,1436964434341,61.235242186826
440,1436964435071,52.2330377009155
441,1436964435808,64.9865522432164
442,1436964436554,45.6255560659604
443,1436964437396,59.1400735422298
444,1436964438125,66.5722711375596
445,1436964438857,55.4154684300386
446,1436964439577,57.6119558033499
447,1436964440209,50.2695942944089
448,1436964440917,57.372251951618
449,1436964441642,62.6083388734455
450,1436964442342,51.0844291210378
451,1436964443060,57.6142929034754
452,1436964444536,59.4959968655768
453,1436964445232,62.2985814611512
454,1436964445965,66.7310568705522
455,1436964446711,45.0745727676469
456,1436964447450,61.4241443687656
457,1436964448167,68.2149657950546
458,1436964448898,56.1470801134649
459,1436964449647,60.4282497418143
460,1436964450359,65.5189709638923
461,1436964451123,55.6594679809136
462,1436964451849,61.4597113512409
463,1436964452593,59.7904823447833
464,1436964453389,59.2001127908765
465,1436964454084,57.7137635204296
466,1436964454815,58.6888475469373
467,1436964455527,61.1571796995002
468,1436964457370,50.0016013927063
469,1436964458082,61.4040977264355
470,1436964458815,61.4399627893377
471,1436964459558,62.5123157207388
472,1436964460272,59.8410828188324
473,1436964460918,64.8529800125807
474,1436964461622,59.8035041070455
475,1436964462328,57.0937594307587
476,1436964463063,58.4938834530627
477,1436964463741,61.4729607311715
478,1436964464481,62.5629960786929
479,1436964465218,61.5194359133583
480,1436964465952,56.3813624345484
481,1436964466692,65.2277705184373
482,1436964467435,59.8404403408135
483,1436964468188,60.3985728930808
484,1436964468930,65.0928549278571
485,1436964469649,53.8761950837631
486,1436964470413,64.1002790229609
487,1436964471150,59.3779482389318
488,1436964471887,59.7980305604537
489,1436964472619,61.11083319373
490,1436964473353,53.7746284498458
491,1436964474047,54.4750063370375
492,1436964474685,64.4041427874675
493,1436964475508,64.802590717614
494,1436964476237,55.3595272764369
495,1436964476979,63.9519485154156
496,1436964477710,55.9273140032739
497,1436964478436,62.5280100377007
498,1436964479168,60.1808717493101
499,1436964479975,60.8362316103799
500,1436964480720,64.5239176227166
501,1436964481465,51.814373662952
502,1436964482149,53.995213285977
503,1436964482764,66.3203375906782
504,1436964483498,54.2893992475879
505,1436964484226,61.8684081010644
506,1436964484914,61.6283280842189
507,1436964485543,61.9839932533229
508,1436964486254,54.2011273008682
509,1436964486928,57.4312362275165
510,1436964487527,62.1334831205839
511,1436964488212,58.4431406947906
512,1436964488949,58.6442772349924
513,1436964489695,61.2759146952823
514,1436964490442,58.6782057151657
515,1436964491191,67.0150383225898
516,1436964491942,53.8852100567006
517,1436964492689,59.1232771874607
518,1436964493408,59.4344960292223
519,1436964494142,57.394515035496
520,1436964494852,58.9311558650133
521,1436964495563,65.2342686739061
522,1436964496301,55.9375905088879
523,1436964497054,49.5107251384761
524,1436964497780,49.6705180964284
525,1436964498458,55.980196624911
526,1436964499171,57.6426083091648
527,1436964499959,64.3884744329346
528,1436964500707,55.0464150264785
529,1436964501448,54.1310104221753
530,1436964502169,66.8529005242237
531,1436964502887,68.0428556090528
532,1436964503620,60.7300928486788
533,1436964504305,55.9454689926421
534,1436964504922,64.9942210998417
535,1436964505595,58.0472627940838
536,1436964506285,64.7790836348243
537,1436964506916,53.5937277909783
538,1436964507569,58.2562629405231
539,1436964508274,58.1798359324895
540,1436964509023,55.7009462774178
541,1436964509767,51.0354276413986
542,1436964510493,54.6414720393354
543,1436964511216,64.1389157923657
544,1436964511958,63.6059197520867
545,1436964512726,50.8097622834882
546,1436964513465,59.3861882566702
547,1436964514192,58.8538797547051
548,1436964514917,64.0905591255408
549,1436964515711,50.6775601134175
550,1436964516437,52.0052426641068
551,1436964517170,63.0671193153439
552,1436964517873,65.9531563321801
553,1436964518513,61.3582778868136
554,1436964519223,60.3015861358638
555,1436964519954,53.2998000231434
556,1436964520751,62.7514039401289
557,1436964521480,51.246557951384
558,1436964522221,57.0684899141636
559,1436964522942,66.0528569024659
560,1436964523678,66.5509660923193
561,1436964524419,52.5372336183532
562,1436964525180,56.5518572056646
563,1436964525825,50.8242985816105
564,1436964526547,65.9170638736126
565,1436964527294,62.9169157479004
566,1436964528050,62.5361922966762
567,1436964528787,58.488991494949
568,1436964529531,63.4946623853776
569,1436964530306,57.8779397950803
570,1436964531037,62.0611034723913
571,1436964531777,57.6282392902436
572,1436964532497,57.4308503319156
573,1436964533218,65.7678464885317
574,1436964533959,51.2479283839461
575,1436964534651,58.5586995711822
