id,attr_time,attr_db
1,1436964110492,20.0593504349235
2,1436964111285,17.5488114157836
3,1436964112038,39.0735187744468
4,1436964112746,52.4600809713645
5,1436964113473,44.1383243466747
6,1436964114217,32.6829384680939
7,1436964114964,70.6799965953334
8,1436964115692,58.1959689952496
9,1436964116395,46.189995162829
10,1436964117076,73.6758274498503
11,1436964117799,71.6013810457559
12,1436964118536,51.7348166305855
13,1436964119249,65.3041480524579
14,1436964119976,70.4909600603417
15,1436964120702,39.3518265263939
16,1436964121427,67.8637091558445
17,1436964122140,67.9853494867988
18,1436964122903,38.3285190524512
19,1436964123624,73.4776107435344
20,1436964124342,64.0770638128483
21,1436964125066,50.86159086294
22,1436964125822,71.9332675207321
23,1436964126482,70.9811580137169
24,1436964127219,46.2696578571046
25,1436964127963,65.7974307865684
26,1436964128683,66.9510518226094
27,1436964129438,49.3974355290777
28,1436964130138,71.1387433458048
29,1436964130787,70.0945587595791
30,1436964131430,59.5336051890082
31,1436964132119,61.171889592947
32,1436964132852,55.6556201183132
33,1436964133591,59.0754490755889
34,1436964134303,64.2531109733629
35,1436964135030,60.5195163179527
36,1436964135749,62.443335397096
37,1436964136492,69.7549726919235
38,1436964137235,70.8970568625595
39,1436964137999,55.9443038372959
40,1436964138677,66.5922283238165
41,1436964139415,68.4308329752382
42,1436964140170,49.2680179667539
43,1436964140893,71.5023399544888
44,1436964141616,47.1077218828931
45,1436964142289,53.8393729554973
46,1436964143007,71.9387261171646
47,1436964143725,67.7507175464543
48,1436964144446,49.2786975543614
49,1436964145187,67.480399077639
50,1436964145966,56.1086734083317
51,1436964146731,57.5618631282852
52,1436964147456,68.5720200735786
53,1436964148194,46.0118053766731
54,1436964148938,54.8083862842548
55,1436964149655,62.5562115560669
56,1436964150361,42.5502056147183
57,1436964151037,56.8481319090086
58,1436964151740,73.7055948969918
59,1436964152470,66.3228238938802
60,1436964153208,55.5402705815163
61,1436964153952,69.7676213393997
62,1436964154671,56.3781070042451
63,1436964155348,41.1848837645211
64,1436964156064,70.4495413120277
65,1436964156795,68.6864278707017
66,1436964157527,41.8366526331581
67,1436964158314,63.7715635620187
68,1436964159069,52.1875046225912
69,1436964159788,66.5633040589621
70,1436964160520,69.7098014251421
71,1436964161341,50.8679632875733
72,1436964162071,49.1150256690713
73,1436964162801,53.6332268442234
74,1436964163522,59.9427920996698
75,1436964164279,52.8229651537346
76,1436964165040,60.2047502108001
77,1436964165746,65.8188748328039
78,1436964166416,53.8226715211694
79,1436964167211,59.094150311665
80,1436964167966,66.3900966277617
81,1436964168698,56.6329376704405
82,1436964169438,53.6400818574201
83,1436964170178,67.6948692759618
84,1436964170902,58.7229882679432
85,1436964171634,61.5880407259482
86,1436964172336,56.8140978950207
87,1436964173053,53.8378224784789
88,1436964173757,68.7230487856143
89,1436964174498,48.8523280171773
90,1436964175214,50.9366312917843
91,1436964175875,70.4222453868379
92,1436964176510,68.4304279632484
93,1436964177218,56.6190286960535
94,1436964177965,70.1632138255325
95,1436964178695,60.9346325397899
96,1436964179409,56.7164447553092
97,1436964180109,54.2199342586281
98,1436964180786,50.052443548631
99,1436964181527,67.9105002920069
100,1436964182255,45.765794528474
101,1436964182976,59.8709530220027
102,1436964183696,72.3986242550376
103,1436964184429,67.9236269498126
104,1436964185148,49.0057356272695
105,1436964185862,68.3490850620794
106,1436964186501,51.3038962192339
107,1436964187204,69.5582019485042
108,1436964187896,57.0965572359521
109,1436964188557,60.9103681659689
110,1436964189279,65.8362616494624
111,1436964190004,68.651602028324
112,1436964190763,56.8204369153115
113,1436964191383,61.6740733268601
114,1436964192088,50.6357039152142
115,1436964192845,67.6794359129399
116,1436964193555,48.99216785259
117,1436964194237,50.9896167961821
118,1436964194823,68.8421199067191
119,1436964195510,52.8823292867963
120,1436964196231,68.3152189525316
121,1436964196912,46.5869510181699
122,1436964197553,65.680711041852
123,1436964198283,65.8156961775767
124,1436964199005,69.1468442544948
125,1436964199704,56.4299228040209
126,1436964200369,43.0540668192703
127,1436964201110,56.6161280236292
128,1436964201837,62.6134868715668
129,1436964202594,56.457566581747
130,1436964203306,41.9636115789255
131,1436964204042,69.0457503654554
132,1436964204727,60.290067628159
133,1436964205457,40.7500665350794
134,1436964206215,71.7047339787181
135,1436964206938,62.4210285363059
136,1436964207569,63.7366411511335
137,1436964208313,65.797146507267
138,1436964209027,57.8027936729406
139,1436964209779,58.1619472730881
140,1436964210492,51.6053015640316
141,1436964211218,42.1407351519584
142,1436964211965,50.9124723022111
143,1436964212685,53.2286814315938
144,1436964213387,43.2432839198803
145,1436964214087,55.2011767956582
146,1436964214769,38.6909477175182
147,1436964215498,48.1145210048875
148,1436964216251,62.1579672220322
149,1436964216937,73.8976741845998
150,1436964217597,61.3906785785769
151,1436964218274,42.7762056094735
152,1436964218945,62.6347979933451
153,1436964219676,62.0348577601429
154,1436964220413,53.9938892941624
155,1436964221142,58.1371945101022
156,1436964221928,70.0137129509445
157,1436964222654,56.6365088858964
158,1436964223369,67.8796331759077
159,1436964224088,59.6146200242365
160,1436964224821,53.8669044391538
161,1436964225618,69.2030230764322
162,1436964226341,58.0573952111984
163,1436964227043,58.5525340569093
164,1436964227717,42.125441095309
165,1436964228457,42.0309995232418
166,1436964229207,70.5631500019384
167,1436964229963,42.9218475726039
168,1436964232057,70.5071251735726
169,1436964232751,47.9239280773732
170,1436964233424,57.9343505834883
171,1436964234160,59.7819245441284
172,1436964234875,56.397184018506
173,1436964235614,61.5020966054467
174,1436964236372,56.117110492596
175,1436964237092,63.2659004645942
176,1436964237774,43.1008322772801
177,1436964238509,55.6055622210628
178,1436964239246,50.7005649299489
179,1436964239986,55.7414818329998
180,1436964240694,50.8003592358651
181,1436964242543,58.9577296398292
182,1436964243225,39.7543529087004
183,1436964243936,66.162194838313
184,1436964244675,67.6625035713662
185,1436964245417,44.5583010577032
186,1436964246193,43.2387087478918
187,1436964246922,63.9047977306826
188,1436964247630,43.6572746503439
189,1436964248281,56.9293501943689
190,1436964249002,67.5006601526199
191,1436964249726,70.7578125053973
192,1436964250437,52.9842102561337
193,1436964251132,69.6938470904851
194,1436964251800,57.4915663582967
195,1436964252493,59.3497147970437
196,1436964253215,44.1531342437243
197,1436964253950,55.3805714106872
198,1436964254678,67.1871623656768
199,1436964255330,56.4588480921508
200,1436964256816,71.3589100033393
201,1436964257557,71.0019376525485
202,1436964258234,61.4640446099018
203,1436964258879,51.2936821388371
204,1436964259581,43.6721138077892
205,1436964260295,70.5811763003665
206,1436964261025,62.8808345841254
207,1436964261850,42.3258371554277
208,1436964262568,69.4741879181628
209,1436964263301,61.8623369304606
210,1436964263999,55.4899058041885
211,1436964265426,65.7629813435356
212,1436964266101,51.4545899322934
213,1436964266887,68.0572069569113
214,1436964267616,70.7606696790967
215,1436964268291,57.7080862421841
216,1436964268941,44.723954147647
217,1436964269621,67.4933656535066
218,1436964270337,69.4240316622727
219,1436964271055,55.9396395892247
220,1436964271816,63.538464608143
221,1436964272620,71.5270806849912
222,1436964273289,50.5617286489592
223,1436964274005,58.050038945505
224,1436964274756,69.0419966256681
225,1436964275427,69.8147611008317
226,1436964276155,54.1124408511508
227,1436964276881,69.3462878813629
228,1436964277619,69.298192122002
229,1436964278340,48.8842259605717
230,1436964279028,48.9393937116761
231,1436964279749,59.1119404428503
232,1436964280486,54.3252282429006
233,1436964281225,45.536447029442
234,1436964281969,55.5085003422882
235,1436964282672,66.4394794822063
236,1436964283407,42.5647798696684
237,1436964284108,42.0715631795962
238,1436964284807,73.8589078419195
239,1436964285627,66.9949471176103
240,1436964286356,55.6617427206629
241,1436964287088,72.6916282312526
242,1436964287814,61.8862831929126
243,1436964288535,54.114961716678
244,1436964289228,68.3122593188064
245,1436964289953,58.3043054136625
246,1436964290683,58.6651015939455
247,1436964291461,65.2657299215831
248,1436964292085,49.8029736414361
249,1436964292824,53.1967685608376
250,1436964293508,42.9917484547562
251,1436964294185,50.7056962033253
252,1436964294959,67.5015371288913
253,1436964295659,69.6142874521214
254,1436964296379,36.7026751889638
255,1436964297207,70.9997847352747
256,1436964297931,67.8427152975684
257,1436964298663,43.512107605508
258,1436964299348,60.9059431396657
259,1436964300016,43.9847221688443
260,1436964300729,60.4490741449019
261,1436964301463,52.6094113947254
262,1436964302185,49.0255485187542
263,1436964302950,64.5956507772947
264,1436964303681,48.0354133393644
265,1436964304427,59.9919537674581
266,1436964305097,69.3967711895674
267,1436964305781,57.0234989877465
268,1436964306515,54.1399610924958
269,1436964307268,66.784292261694
270,1436964307994,71.0514777444263
271,1436964308721,53.7913675026926
272,1436964309432,64.2853637046218
273,1436964310115,56.8714495947424
274,1436964310855,51.2893310240302
275,1436964311515,43.7679517143359
276,1436964312160,54.6347605319032
277,1436964312902,72.4994631197414
278,1436964313638,64.4640448262095
279,1436964314379,48.7519701335855
280,1436964315107,67.7192183155648
281,1436964315859,69.1518147069897
282,1436964316582,47.3016578162834
283,1436964317297,67.6072645998873
284,1436964318026,68.8582308125127
285,1436964318737,59.3108592411776
286,1436964319593,70.2057400707963
287,1436964320230,69.1313787437081
288,1436964320919,58.0819532703937
289,1436964321674,66.8569194409537
290,1436964322386,53.1182359964197
291,1436964323111,58.1358700172172
292,1436964323898,63.4369604173067
293,1436964324565,52.7642805530239
294,1436964325311,61.4894135754453
295,1436964326014,53.1120876511937
296,1436964326748,61.8970268973613
297,1436964327483,67.0344396453912
298,1436964328226,52.0925513019514
299,1436964328959,60.0330927746587
300,1436964329690,71.3503645356223
301,1436964330431,63.5704680889546
302,1436964331165,44.0868058638755
303,1436964331798,62.2749525659209
304,1436964332477,56.7914944169498
305,1436964333198,56.7823906284726
306,1436964333934,54.8452139395544
307,1436964334656,55.6701917583262
308,1436964335395,48.9728396843543
309,1436964336106,46.9406957330421
310,1436964336839,42.3738385500298
311,1436964337569,66.726019360745
312,1436964338256,63.1719523524494
313,1436964338987,56.8327543231131
314,1436964339716,73.6422751233255
315,1436964340472,60.9901639705132
316,1436964341189,48.0084483923548
317,1436964341850,70.0767552007143
318,1436964342537,57.8442209567409
319,1436964343252,54.618092023657
320,1436964343990,59.7130967831673
321,1436964344686,43.9035197880798
322,1436964345408,60.4385685594051
323,1436964346185,53.1070049254422
324,1436964346922,52.2689846634712
325,1436964347664,55.4423499194635
326,1436964348413,41.9399285571649
327,1436964349159,44.5544900546116
328,1436964349885,57.7083577954092
329,1436964350598,49.5249712023542
330,1436964351287,46.762419431664
331,1436964351970,70.8346732543841
332,1436964352630,48.0134061929431
333,1436964353355,64.0631189038579
334,1436964354080,56.4292043268291
335,1436964354844,56.1187985126927
336,1436964355627,57.1993040544984
337,1436964356219,43.3772067995717
338,1436964356847,39.142300369911
339,1436964357500,53.7133970415038
340,1436964358225,45.2891816847322
341,1436964358966,56.4372901632286
342,1436964359698,46.3460640119705
343,1436964360428,35.0896529226293
344,1436964361193,72.0282956421709
345,1436964361927,61.1063457858469
346,1436964362553,38.2337700830379
347,1436964363268,41.2249558795955
348,1436964363992,52.8325609779091
349,1436964364716,68.0075349584411
350,1436964365447,63.8298033796458
351,1436964366273,56.0999231351077
352,1436964367139,70.4022749289269
353,1436964367874,59.6707059641415
354,1436964369165,43.3146711992097
355,1436964369811,40.645909181799
356,1436964370486,61.081837486291
357,1436964371237,67.7066921394484
358,1436964371898,51.4942147559873
359,1436964372474,47.6027208710752
360,1436964373164,36.3619805676266
361,1436964373920,63.2550317164149
362,1436964374636,66.1586316080556
363,1436964375377,58.0078741544281
364,1436964376096,58.7882288840014
365,1436964376926,66.5498534375523
366,1436964377602,56.1146944252297
367,1436964378314,60.6731975746599
368,1436964379046,51.9617465269581
369,1436964379777,73.9968156353358
370,1436964380511,69.8135329077086
371,1436964381287,52.4809120118909
372,1436964382058,72.5859351741451
373,1436964382704,56.3174059418879
374,1436964383442,44.0338772829676
375,1436964384151,69.4236299807908
376,1436964384909,64.2715817074187
377,1436964385603,73.3049732437282
378,1436964386292,55.6638780029543
379,1436964387071,68.8897408917374
380,1436964387790,57.1500167342911
381,1436964388467,56.4569947173907
382,1436964389193,51.7928837796263
383,1436964389926,62.8790642133327
384,1436964390655,64.4165637704303
385,1436964391409,70.1614595035969
386,1436964392136,56.5801818659122
387,1436964392818,66.7678772595746
388,1436964393546,59.995704098764
389,1436964394267,65.0353169126438
390,1436964394999,50.6584084416831
391,1436964395714,40.4294882375018
392,1436964396503,69.8402737563609
393,1436964397217,57.3213065591459
394,1436964397962,54.8160132413133
395,1436964398727,64.7445484408554
396,1436964399457,55.6799363643829
397,1436964400185,62.7256162724594
398,1436964400922,67.2919750777834
399,1436964401650,62.89457546725
400,1436964402390,39.836986446377
401,1436964403098,60.2586914535445
402,1436964403772,67.9315549664835
403,1436964404499,60.9387551167938
404,1436964405215,48.0283033389367
405,1436964405954,52.7448116183229
406,1436964406688,71.2273451137713
407,1436964407435,64.9875349161097
408,1436964408145,44.780067413285
409,1436964408825,63.6517865640394
410,1436964409572,54.6746125709616
411,1436964410310,56.1577882250603
412,1436964411033,58.915293831247
413,1436964411811,68.938797998074
414,1436964412552,55.3248507667261
415,1436964413185,49.1482933760355
416,1436964413902,44.0845368519554
417,1436964414599,66.8547243029539
418,1436964415323,68.6480439867206
419,1436964416036,40.5271459028037
420,1436964416731,66.0563790747755
421,1436964417538,54.7128405397467
422,1436964418205,58.9885574804033
423,1436964418860,46.4174672597395
424,1436964419555,52.5947370153133
425,1436964420262,72.7537806222608
426,1436964421008,63.6508659192013
427,1436964421736,38.8973508985753
428,1436964422451,66.9355315533158
429,1436964423191,64.3699442598251
430,1436964423840,53.0668385699291
431,1436964424549,62.417530079868
432,1436964425272,54.9166326341107
433,1436964426007,52.5154037295477
434,1436964426708,41.9766514016641
435,1436964427427,39.8682866073949
436,1436964428154,72.7699733124513
437,1436964428899,60.4368351424726
438,1436964429601,47.8348404085333
439,1436964430270,66.638457716778
440,1436964430988,54.4441916826116
441,1436964431705,51.7615865795103
442,1436964432407,47.0341380128326
443,1436964433069,49.9556928402879
444,1436964433749,69.9444752065465
445,1436964434448,59.684273579872
446,1436964436096,68.6261472249009
447,1436964436924,57.7257305854866
448,1436964437658,53.0213667174998
449,1436964438385,70.5815192446016
450,1436964439105,64.5014223986479
451,1436964439825,45.7678233100532
452,1436964440569,36.3460433059347
453,1436964441356,58.5929187240857
454,1436964442041,68.8546480536414
455,1436964442756,65.548838502152
456,1436964443479,57.0682254715983
457,1436964444201,72.3241911723002
458,1436964444934,70.4265531993347
459,1436964445639,52.6626320312523
460,1436964446373,66.0572435490118
461,1436964447086,69.6265345876511
462,1436964447809,55.6517390342908
463,1436964448538,66.9731696835809
464,1436964449213,55.9967255308884
465,1436964450668,48.4316909924702
466,1436964451404,49.5569375993377
467,1436964452145,71.7535406731289
468,1436964452832,65.1976150986602
469,1436964453439,55.0154983944504
470,1436964454129,53.2142018189583
471,1436964454868,48.9381588592288
472,1436964455589,72.3246230744864
473,1436964456336,69.0738445264882
474,1436964457056,55.1350061140902
475,1436964457756,68.0205166603062
476,1436964458479,56.7360081256026
477,1436964459181,56.4679704247111
478,1436964459922,52.6667337354342
479,1436964460646,62.4789996847657
480,1436964461444,61.0803198538489
481,1436964462155,47.3741046536285
482,1436964462883,65.2537487737667
483,1436964463596,66.6706373179585
484,1436964464320,62.6258293531222
485,1436964465058,44.7760974496755
486,1436964465794,62.7752754159897
487,1436964466572,67.344265257852
488,1436964467297,59.7883680713437
489,1436964468000,67.7196007988846
490,1436964468727,58.6601138120562
491,1436964469392,52.5523214225628
492,1436964470132,45.9507148389943
493,1436964470823,38.7467538489921
494,1436964471489,71.596175071859
495,1436964472985,64.5140770493917
496,1436964473642,57.782702140328
497,1436964474332,62.026151994909
498,1436964475061,69.9523496994764
499,1436964475805,51.64534043512
500,1436964476533,43.5450185185267
501,1436964477272,64.7852356089276
502,1436964477997,69.7669091413445
503,1436964478704,53.673523647464
504,1436964479427,50.3611174788216
505,1436964480157,48.0829760599007
506,1436964480887,56.7657879064685
507,1436964481596,51.2249246249338
508,1436964482340,39.3953821295852
509,1436964483078,71.28563249233
510,1436964483793,67.4687174903209
511,1436964485480,69.2380240973879
512,1436964486219,43.8733915464487
513,1436964487019,51.2948043265501
514,1436964487730,43.2907141176342
515,1436964488465,47.0869051133777
516,1436964489202,68.4566484530382
517,1436964489943,70.6310224749061
518,1436964490633,51.1952745139498
519,1436964491374,52.267398541703
520,1436964492106,59.9524126385228
521,1436964492838,61.234349975973
522,1436964493587,45.6220050093031
523,1436964494296,43.1996046216524
524,1436964495017,53.0801784205516
525,1436964495737,49.1360574448238
526,1436964496510,58.8510158485411
527,1436964497233,58.3089366614394
528,1436964497985,65.6644637848611
529,1436964498667,50.0926811006147
530,1436964499340,65.7153104235556
531,1436964500052,54.1760844943462
532,1436964500789,72.5740509614999
533,1436964501515,56.3585005832308
534,1436964502259,61.0380717331286
535,1436964502998,41.717151715826
536,1436964503725,58.8648291687367
537,1436964504456,69.8845220088631
538,1436964505213,55.1274556259816
539,1436964505954,55.0338602317121
540,1436964506674,66.6310045071402
541,1436964507413,59.2457011240691
542,1436964508133,52.5028197223525
543,1436964508893,49.4728913517599
544,1436964509628,44.4184238631189
545,1436964510351,68.2977734246126
546,1436964511088,69.9656369072559
547,1436964511815,61.1997866706818
548,1436964512550,51.3939416495754
549,1436964513290,54.2453043248219
550,1436964514013,66.8893848637059
551,1436964514728,50.4639598185254
552,1436964515421,39.9557651436327
553,1436964516149,64.4988081631732
554,1436964516990,62.4997420928293
555,1436964517704,46.1631050853415
556,1436964518442,66.4958115228168
557,1436964519222,68.2246610981391
558,1436964519987,40.2866490245206
559,1436964520669,68.6841002689381
560,1436964521368,55.062524958533
561,1436964522105,67.174934619311
562,1436964522820,52.2708085666237
563,1436964523564,45.5404517007668
564,1436964524292,69.9159805742344
565,1436964525020,56.5099888141997
566,1436964525748,55.4740243197984
567,1436964526405,44.3227099230202
568,1436964527153,47.4013300519341
569,1436964527912,67.8826120841929
570,1436964528635,57.7973042767052
571,1436964529373,53.145392484066
572,1436964530117,71.4511233461584
573,1436964530807,62.7970343061588
574,1436964531410,51.3947807767615
575,1436964532112,55.6000641737731
