id,attr_time,attr_x,attr_y,attr_z
1,1436984545099,7.238,-4.429,4.161
2,1436984545114,7.238,-4.429,3.84
3,1436984545115,7.238,-4.429,3.84
4,1436984545116,7.238,-4.429,3.84
5,1436984545117,7.238,-4.429,3.84
6,1436984545118,7.566,-4.429,3.84
7,1436984545155,7.566,-4.429,3.84
8,1436984545156,7.566,-4.429,3.84
9,1436984545162,7.566,-4.429,3.84
10,1436984545182,7.897,-4.429,3.84
11,1436984545201,7.897,-4.429,3.84
12,1436984545221,7.897,-4.429,3.84
13,1436984545242,8.253,-4.788,3.84
14,1436984545261,8.253,-4.788,3.84
15,1436984545281,8.253,-4.788,3.84
16,1436984545301,8.642,-4.788,3.84
17,1436984545321,8.642,-5.096,4.145
18,1436984545341,8.642,-5.096,4.145
19,1436984545361,8.642,-5.096,4.145
20,1436984545382,8.642,-5.096,4.145
21,1436984545402,8.642,-5.096,4.145
22,1436984545422,8.642,-5.096,4.145
23,1436984545442,8.642,-5.096,4.145
24,1436984545464,8.642,-5.096,4.145
25,1436984545483,8.642,-5.096,4.145
26,1436984545538,8.642,-5.096,4.145
27,1436984545539,8.642,-5.096,4.145
28,1436984545542,8.642,-5.096,4.145
29,1436984545562,8.642,-5.096,4.145
30,1436984545582,8.642,-5.096,4.145
31,1436984545602,8.642,-5.096,4.145
32,1436984545622,8.245,-5.096,4.145
33,1436984545642,8.245,-5.096,4.145
34,1436984545662,8.245,-4.733,4.145
35,1436984545686,8.245,-4.733,4.145
36,1436984545705,7.923,-4.733,4.145
37,1436984545722,7.923,-4.733,4.145
38,1436984545744,7.923,-4.733,4.145
39,1436984545762,7.923,-4.733,4.145
40,1436984545782,7.923,-4.733,4.145
41,1436984545803,7.923,-4.733,4.145
42,1436984545822,7.923,-4.733,4.145
43,1436984545842,7.606,-4.733,4.145
44,1436984545862,7.606,-4.733,4.145
45,1436984545882,7.606,-4.733,4.145
46,1436984545903,7.606,-4.733,4.145
47,1436984545922,7.606,-4.733,4.145
48,1436984545942,7.606,-4.733,4.145
49,1436984545962,7.606,-5.084,4.145
50,1436984545982,7.606,-5.084,4.145
51,1436984546060,7.606,-5.084,4.145
52,1436984546080,7.939,-5.39,4.145
53,1436984546100,7.939,-5.39,4.145
54,1436984546101,7.939,-5.39,4.145
55,1436984546120,7.939,-5.39,4.145
56,1436984546140,7.939,-5.39,4.145
57,1436984546162,7.939,-5.39,4.145
58,1436984546163,7.939,-5.39,4.145
59,1436984546183,7.939,-5.39,4.145
60,1436984546184,7.939,-5.39,4.145
61,1436984546203,7.939,-5.39,4.145
62,1436984546222,7.939,-5.39,4.145
63,1436984546242,7.939,-5.39,4.145
64,1436984546262,7.939,-5.39,4.145
65,1436984546282,7.939,-5.697,4.145
66,1436984546302,7.939,-5.697,4.145
67,1436984546322,7.939,-5.697,4.145
68,1436984546342,7.629,-5.697,4.145
69,1436984546362,7.629,-5.697,4.145
70,1436984546382,7.629,-5.697,4.145
71,1436984546406,7.629,-5.697,4.145
72,1436984546425,7.629,-5.697,4.145
73,1436984546447,7.629,-5.697,4.145
74,1436984546467,7.629,-5.697,4.145
75,1436984546486,7.629,-6.034,4.145
76,1436984546505,7.629,-6.034,4.145
77,1436984546564,7.629,-6.034,4.46
78,1436984546565,7.629,-6.034,4.46
79,1436984546566,7.629,-6.396,4.46
80,1436984546583,7.629,-6.396,4.46
81,1436984546603,7.238,-6.706,4.46
82,1436984546623,7.238,-6.706,4.46
83,1436984546643,5.665,-7.185,4.771
84,1436984546663,4.411,-8.811,4.771
85,1436984546683,2.691,-10.331,4.771
86,1436984546705,0.695,-11.456,4.771
87,1436984546723,-1.007,-12.4,5.143
88,1436984546743,-2.459,-13.504,5.143
89,1436984546765,-3.636,-14.407,5.444
90,1436984546783,-4.278,-15.066,5.444
91,1436984546803,-5.268,-15.692,6.246
92,1436984546823,-5.731,-15.692,6.637
93,1436984546843,-6.466,-16.023,7.356
94,1436984546863,-6.466,-16.023,7.693
95,1436984546883,-7.408,-16.023,7.693
96,1436984546903,-6.986,-16.618,8.157
97,1436984546923,-7.289,-16.618,8.157
98,1436984546943,-6.744,-16.618,8.157
99,1436984546963,-6.744,-16.618,8.157
100,1436984546983,-6.744,-16.618,8.981
101,1436984547014,-6.744,-16.203,8.981
102,1436984547102,-5.897,-15.821,8.981
103,1436984547103,-5.572,-15.821,8.981
104,1436984547115,-5.572,-15.821,8.981
105,1436984547116,-5.119,-15.821,8.981
106,1436984547117,-5.119,-16.183,8.981
107,1436984547132,-5.119,-16.183,9.291
108,1436984547144,-5.119,-16.183,9.291
109,1436984547164,-5.119,-16.183,9.667
110,1436984547184,-4.119,-16.183,9.667
111,1436984547204,-4.119,-16.183,9.667
112,1436984547224,-4.119,-15.879,9.667
113,1436984547244,-3.367,-15.298,9.667
114,1436984547263,-2.38,-14.372,9.983
115,1436984547283,-1.429,-13.938,9.983
116,1436984547303,-0.457,-13.104,9.983
117,1436984547323,0.95,-12.475,9.983
118,1436984547343,2.026,-11.437,9.983
119,1436984547363,3.237,-10.391,9.983
120,1436984547383,4.006,-9.179,9.573
121,1436984547403,5.508,-9.179,9.573
122,1436984547424,6.135,-8.529,8.824
123,1436984547445,6.755,-7.606,8.824
124,1436984547465,7.138,-7.026,8.117
125,1436984547484,7.138,-7.026,8.117
126,1436984547504,7.138,-6.675,8.117
127,1436984547636,7.524,-5.995,7.35
128,1436984547637,7.855,-5.578,7.35
129,1436984547638,7.855,-5.578,7.35
130,1436984547639,7.855,-5.154,7.35
131,1436984547640,7.855,-5.154,7.04
132,1436984547641,8.628,-5.154,7.04
133,1436984547644,8.628,-5.154,7.04
134,1436984547664,9.356,-4.185,6.709
135,1436984547684,9.356,-4.185,6.709
136,1436984547704,8.476,-3.244,6.234
137,1436984547724,8.476,-3.244,6.234
138,1436984547744,8.476,-2.516,5.793
139,1436984547764,8.476,-2.516,5.059
140,1436984547784,8.476,-2.516,5.059
141,1436984547804,8.476,-2.516,4.684
142,1436984547824,8.795,-1.902,4.373
143,1436984547844,8.795,-1.902,4.373
144,1436984547864,8.795,-1.902,3.909
145,1436984547884,9.109,-1.455,3.909
146,1436984547904,9.109,-2.078,3.909
147,1436984547924,9.109,-2.078,3.909
148,1436984547944,9.471,-2.078,3.909
149,1436984547969,9.471,-2.078,3.575
150,1436984547984,9.471,-2.078,3.575
151,1436984548004,9.838,-2.078,3.575
152,1436984548024,9.838,-1.727,3.198
153,1436984548044,9.838,-1.727,3.198
154,1436984548064,10.163,-1.37,3.198
155,1436984548084,10.163,-1.37,3.198
156,1436984548104,10.163,-1.37,2.89
157,1436984548124,10.586,-1.37,2.89
158,1436984548144,10.586,-1.37,2.89
159,1436984548164,10.586,-1.37,2.89
160,1436984548184,10.9,-1.06,2.578
161,1436984548205,10.9,-1.06,2.578
162,1436984548224,10.9,-1.06,2.578
163,1436984548244,10.9,-1.06,2.21
164,1436984548265,11.235,-1.06,2.21
165,1436984548286,11.235,-1.06,2.21
166,1436984548308,11.235,-1.06,1.319
167,1436984548325,11.235,-1.06,0.894
168,1436984548347,11.235,-1.06,0.894
169,1436984548437,11.235,-1.06,0.894
170,1436984548438,11.544,-1.06,0.894
171,1436984548439,11.544,-1.06,0.894
172,1436984548440,11.544,-1.06,0.894
173,1436984548454,11.544,-1.06,0.894
174,1436984548465,11.544,-1.06,0.894
175,1436984548485,11.544,-1.06,0.894
176,1436984548505,11.544,-1.06,0.894
177,1436984548525,11.544,-1.06,0.517
178,1436984548545,11.544,-1.06,0.517
179,1436984548565,11.544,-1.06,0.517
180,1436984548585,11.18,-1.06,0.517
181,1436984548605,11.18,-1.473,0.517
182,1436984548625,11.18,-1.473,0.517
183,1436984548645,11.18,-1.805,0.517
184,1436984548665,11.18,-1.805,0.517
185,1436984548685,11.18,-1.805,0.517
186,1436984548705,10.855,-2.192,0.517
187,1436984548725,10.855,-2.192,0.517
188,1436984548745,10.855,-2.192,0.517
189,1436984548765,10.855,-2.192,0.831
190,1436984548785,10.855,-2.192,0.831
191,1436984548805,10.855,-2.192,0.831
192,1436984548825,10.855,-2.192,0.831
193,1436984548845,10.53,-2.192,0.831
194,1436984548865,10.53,-2.192,0.831
195,1436984548885,10.53,-2.192,0.831
196,1436984548905,10.53,-2.192,0.831
197,1436984548926,10.53,-2.192,1.145
198,1436984548945,10.53,-2.192,1.145
199,1436984548965,10.53,-2.192,1.145
200,1436984548985,10.53,-2.192,1.145
201,1436984549042,10.53,-2.192,1.145
202,1436984549043,10.53,-2.192,1.145
203,1436984549118,10.53,-2.192,1.47
204,1436984549119,10.53,-2.192,1.47
205,1436984549120,10.53,-2.192,1.47
206,1436984549121,10.224,-2.192,1.47
207,1436984549127,10.224,-2.192,1.47
208,1436984549147,10.224,-2.529,1.47
209,1436984549167,10.224,-2.529,1.161
210,1436984549187,10.224,-2.871,1.161
211,1436984549210,10.224,-2.871,1.161
212,1436984549226,10.224,-2.871,0.851
213,1436984549245,9.886,-2.871,0.851
214,1436984549266,9.886,-2.871,0.851
215,1436984549287,9.886,-3.215,0.52
216,1436984549307,9.886,-3.215,0.52
217,1436984549330,9.886,-3.215,0.52
218,1436984549348,9.545,-3.591,0.164
219,1436984549369,9.545,-3.591,0.164
220,1436984549388,9.545,-3.591,0.164
221,1436984549407,9.545,-3.591,0.164
222,1436984549429,9.545,-3.591,0.164
223,1436984549491,9.222,-3.591,0.164
224,1436984549492,9.222,-3.591,0.164
225,1436984549493,9.222,-3.935,0.164
226,1436984549506,9.222,-3.935,0.164
227,1436984549526,9.222,-3.935,0.164
228,1436984549546,9.222,-3.935,0.164
229,1436984549566,9.222,-3.935,0.164
230,1436984549586,8.909,-3.935,0.164
231,1436984549606,8.909,-3.935,0.54
232,1436984549629,8.909,-4.254,0.54
233,1436984549647,8.909,-4.254,0.54
234,1436984549666,8.909,-4.254,0.938
235,1436984549686,8.909,-4.254,0.938
236,1436984549706,8.909,-4.254,0.938
237,1436984549726,8.909,-4.254,0.938
238,1436984549746,8.909,-4.254,1.272
239,1436984549766,8.909,-4.557,1.272
240,1436984549786,9.268,-4.557,1.272
241,1436984549806,9.268,-4.557,1.272
242,1436984549826,9.268,-4.557,1.272
243,1436984549846,9.268,-4.557,1.272
244,1436984549866,9.268,-4.557,1.272
245,1436984549886,9.268,-4.557,1.589
246,1436984549906,9.268,-4.238,1.589
247,1436984549926,9.268,-4.238,1.589
248,1436984549946,8.921,-4.238,1.589
249,1436984549966,8.175,-4.238,1.589
250,1436984549992,7.754,-4.238,1.142
251,1436984550006,7.754,-4.238,1.142
252,1436984550028,7.754,-4.238,0.418
253,1436984550052,7.754,-4.238,-0.271
254,1436984550067,7.754,-3.923,-0.74
255,1436984550088,7.754,-3.923,-0.74
256,1436984550108,7.754,-3.923,-1.043
257,1436984550128,7.754,-3.923,-1.365
258,1436984550149,7.754,-3.923,-1.365
259,1436984550167,7.754,-3.923,-1.365
260,1436984550189,7.754,-3.923,-1.365
261,1436984550212,7.754,-3.923,-1.365
262,1436984550228,7.754,-3.923,-1.365
263,1436984550248,8.282,-3.923,-1.365
264,1436984550267,8.625,-3.923,-1.365
265,1436984550287,8.625,-3.923,-1.698
266,1436984550419,8.625,-3.923,-1.698
267,1436984550420,8.625,-3.923,-2.009
268,1436984550421,8.625,-4.286,-2.009
269,1436984550422,8.625,-4.286,-2.009
270,1436984550423,8.625,-4.286,-2.357
271,1436984550424,8.625,-4.286,-2.357
272,1436984550427,8.625,-4.62,-2.357
273,1436984550452,8.625,-4.62,-2.658
274,1436984550467,8.625,-4.62,-2.658
275,1436984550490,8.958,-4.62,-2.658
276,1436984550507,8.958,-4.62,-2.658
277,1436984550527,8.958,-4.62,-2.972
278,1436984550547,8.958,-4.62,-2.972
279,1436984550567,8.958,-4.62,-2.972
280,1436984550587,8.958,-4.62,-2.972
281,1436984550607,8.958,-4.62,-2.972
282,1436984550627,8.958,-4.62,-3.317
283,1436984550647,8.958,-4.62,-3.317
284,1436984550667,8.958,-4.62,-3.317
285,1436984550687,8.958,-4.62,-3.317
286,1436984550707,8.958,-4.62,-3.317
287,1436984550727,8.958,-4.62,-3.317
288,1436984550747,8.958,-4.62,-3.317
289,1436984550767,8.958,-4.231,-3.317
290,1436984550787,8.958,-4.231,-3.317
291,1436984550807,8.958,-4.231,-3.317
292,1436984550827,8.958,-4.231,-3.317
293,1436984550847,8.958,-4.231,-3.317
294,1436984550867,8.958,-4.231,-3.317
295,1436984550887,8.958,-4.231,-3.317
296,1436984550907,8.958,-4.231,-3.317
297,1436984550927,9.277,-4.231,-3.317
298,1436984550947,9.277,-4.231,-3.317
299,1436984550967,9.277,-4.231,-3.317
300,1436984550987,9.277,-4.231,-3.317
301,1436984551007,9.277,-4.231,-3.01
302,1436984551027,9.277,-4.231,-3.01
303,1436984551047,9.277,-4.231,-3.01
304,1436984551069,9.277,-4.231,-3.01
305,1436984551090,9.277,-4.231,-3.01
306,1436984551109,9.277,-4.231,-3.01
307,1436984551132,8.932,-4.231,-3.01
308,1436984551245,8.932,-4.231,-3.01
309,1436984551246,8.932,-4.231,-3.01
310,1436984551247,8.932,-4.231,-3.01
311,1436984551248,8.932,-4.231,-3.01
312,1436984551249,8.596,-4.231,-3.01
313,1436984551250,8.596,-4.231,-2.664
314,1436984551268,8.596,-4.231,-2.664
315,1436984551288,8.596,-4.231,-2.664
316,1436984551308,8.596,-4.231,-2.664
317,1436984551328,8.596,-4.231,-2.664
318,1436984551348,8.596,-4.231,-2.664
319,1436984551368,8.596,-4.231,-2.34
320,1436984551388,8.596,-4.231,-2.34
321,1436984551408,8.596,-4.231,-2.34
322,1436984551428,8.596,-4.231,-2.34
323,1436984551448,8.596,-4.231,-2.34
324,1436984551468,8.596,-4.231,-2.34
325,1436984551488,8.596,-4.231,-2.34
326,1436984551508,8.596,-4.231,-2.34
327,1436984551528,8.898,-4.231,-2.34
328,1436984551548,8.898,-4.231,-2.34
329,1436984551568,8.898,-4.231,-2.34
330,1436984551588,8.898,-4.231,-2.34
331,1436984551608,9.335,-4.231,-2.001
332,1436984551628,9.335,-4.231,-2.001
333,1436984551648,9.695,-4.231,-2.001
334,1436984551668,9.695,-4.231,-2.001
335,1436984551690,9.695,-4.231,-2.001
336,1436984551709,9.695,-4.231,-1.678
337,1436984551728,10.025,-4.231,-1.678
338,1436984551748,10.025,-3.904,-1.678
339,1436984551768,10.025,-3.904,-1.362
340,1436984551788,10.025,-3.904,-1.362
341,1436984551808,10.025,-3.904,-1.362
342,1436984551828,10.025,-3.904,-1.362
343,1436984551848,10.025,-3.572,-0.971
344,1436984551868,10.025,-3.572,-0.971
345,1436984551888,10.025,-3.572,-0.971
346,1436984551911,10.025,-3.572,-0.971
347,1436984551928,10.025,-3.572,-0.656
348,1436984551948,10.025,-3.572,-0.656
349,1436984551968,9.637,-3.572,-0.656
350,1436984551988,9.637,-3.572,-0.656
351,1436984552008,9.637,-3.572,-0.325
352,1436984552028,9.277,-3.572,-0.325
353,1436984552050,9.277,-3.572,-0.325
354,1436984552070,9.277,-3.572,-0.325
355,1436984552089,8.935,-3.572,-0.325
356,1436984552110,8.935,-3.572,-0.012
357,1436984552133,8.935,-3.572,-0.012
358,1436984552153,8.935,-3.572,-0.012
359,1436984552173,8.935,-3.572,-0.012
360,1436984552192,8.935,-3.572,-0.012
361,1436984552214,8.935,-3.572,0.373
362,1436984552230,8.935,-3.572,0.373
363,1436984552250,8.935,-3.572,0.373
364,1436984552273,8.935,-3.572,0.373
365,1436984552292,8.935,-3.572,0.721
366,1436984552312,8.935,-3.572,0.721
367,1436984552333,8.935,-3.572,0.721
368,1436984552352,8.935,-3.572,0.721
369,1436984552369,8.935,-3.572,0.721
370,1436984552457,8.935,-3.572,0.721
371,1436984552458,9.278,-3.572,0.721
372,1436984552459,9.278,-3.572,0.721
373,1436984552460,9.278,-3.572,0.721
374,1436984552483,9.278,-3.572,0.721
375,1436984552489,9.614,-3.572,0.721
376,1436984552509,9.614,-3.572,0.721
377,1436984552529,9.614,-3.572,0.721
378,1436984552549,9.982,-3.572,0.721
379,1436984552569,9.982,-3.131,0.721
380,1436984552589,9.982,-2.648,0.721
381,1436984552609,9.982,-2.648,0.721
382,1436984552629,10.327,-2.081,0.721
383,1436984552649,10.327,-1.751,0.352
384,1436984552669,10.327,-0.964,0.352
385,1436984552689,10.327,-0.532,0.352
386,1436984552713,10.327,0.14,-0.09
387,1436984552733,10.327,0.14,-0.09
388,1436984552749,10.327,0.14,-0.466
389,1436984552769,10.646,0.14,-0.842
390,1436984552789,10.646,0.14,-1.277
391,1436984552809,10.646,0.14,-1.78
392,1436984552829,10.987,0.14,-2.209
393,1436984552849,10.987,0.14,-2.209
394,1436984552869,10.987,0.14,-2.209
395,1436984552889,10.987,0.14,-2.209
396,1436984552909,11.293,0.445,-2.209
397,1436984552929,11.293,0.445,-2.209
398,1436984552949,11.293,0.445,-2.209
399,1436984552969,11.293,0.445,-2.209
400,1436984552992,11.293,0.445,-2.606
401,1436984553009,11.598,0.445,-2.606
402,1436984553029,11.598,0.445,-2.606
403,1436984553082,11.598,0.445,-2.606
404,1436984553083,11.598,0.445,-2.606
405,1436984553152,11.598,0.091,-2.606
406,1436984553153,11.598,0.091,-2.606
407,1436984553154,11.598,0.091,-2.606
408,1436984553155,11.598,0.091,-2.606
409,1436984553187,11.598,0.091,-2.606
410,1436984553190,11.598,0.091,-2.606
411,1436984553213,11.598,0.091,-2.606
412,1436984553230,11.598,0.091,-2.606
413,1436984553251,11.598,0.091,-2.606
414,1436984553275,11.598,0.091,-2.606
415,1436984553294,11.598,0.091,-2.27
416,1436984553315,11.904,0.091,-2.27
417,1436984553334,11.904,0.091,-2.27
418,1436984553354,11.904,0.091,-2.27
419,1436984553373,11.904,0.091,-2.27
420,1436984553394,11.904,0.091,-1.965
421,1436984553415,11.904,0.091,-1.965
422,1436984553435,11.904,0.091,-1.965
423,1436984553455,12.229,0.091,-1.965
424,1436984553474,12.229,0.091,-1.965
425,1436984553491,12.229,0.091,-1.965
426,1436984553511,12.229,0.091,-1.965
427,1436984553573,12.229,0.091,-1.965
428,1436984553574,12.229,0.091,-1.965
429,1436984553575,11.822,0.091,-1.965
430,1436984553594,11.489,0.091,-1.965
431,1436984553610,10.893,0.091,-1.965
432,1436984553630,10.893,-0.254,-1.965
433,1436984553650,10.578,-0.254,-1.965
434,1436984553670,10.578,-0.254,-2.331
435,1436984553690,10.156,-0.254,-2.331
436,1436984553710,10.156,-0.254,-2.331
437,1436984553730,10.156,-0.254,-2.331
438,1436984553750,10.156,-0.569,-2.685
439,1436984553770,10.156,-0.569,-2.685
440,1436984553790,10.156,-0.569,-2.685
441,1436984553810,10.156,-0.891,-3.03
442,1436984553830,9.812,-0.891,-3.03
443,1436984553850,9.812,-0.891,-3.03
444,1436984553870,9.812,-0.891,-3.03
445,1436984553890,9.812,-0.891,-3.384
446,1436984553910,9.812,-0.891,-3.384
447,1436984553930,9.812,-0.891,-3.384
448,1436984553950,9.812,-0.891,-3.384
449,1436984553970,9.812,-0.891,-3.384
450,1436984553997,9.507,-1.199,-3.384
451,1436984554047,9.507,-1.199,-3.384
452,1436984554057,9.507,-1.199,-3.384
453,1436984554058,9.507,-1.199,-3.384
454,1436984554223,9.507,-1.199,-3.384
455,1436984554224,9.507,-1.199,-3.384
456,1436984554228,9.507,-1.199,-3.384
457,1436984554229,9.507,-1.199,-3.384
458,1436984554230,9.507,-1.199,-3.384
459,1436984554231,9.507,-1.199,-3.384
460,1436984554232,9.507,-1.199,-3.384
461,1436984554233,9.507,-1.199,-3.384
462,1436984554234,9.507,-1.199,-3.384
463,1436984554250,9.507,-1.199,-3.384
464,1436984554270,9.507,-1.199,-3.384
465,1436984554290,9.507,-1.199,-3.384
466,1436984554310,9.507,-1.199,-3.384
467,1436984554330,9.507,-1.199,-3.384
468,1436984554350,9.507,-1.199,-3.384
469,1436984554370,9.927,-1.199,-3.384
470,1436984554390,9.927,-1.199,-3.384
471,1436984554410,9.927,-1.199,-3.384
472,1436984554430,9.927,-1.866,-3.384
473,1436984554450,9.927,-1.866,-3.384
474,1436984554470,9.927,-1.866,-3.384
475,1436984554490,9.927,-1.866,-3.71
476,1436984554510,9.927,-1.866,-3.71
477,1436984554531,9.927,-1.866,-3.71
478,1436984554593,9.927,-1.866,-3.71
479,1436984554594,9.927,-1.866,-4.104
480,1436984554595,9.927,-1.866,-4.104
481,1436984554611,9.927,-2.18,-4.104
482,1436984554631,9.927,-2.18,-4.412
483,1436984554650,9.927,-2.18,-4.412
484,1436984554670,10.278,-2.18,-4.412
485,1436984554691,10.278,-2.18,-4.727
486,1436984554711,10.278,-2.18,-4.727
487,1436984554735,10.278,-2.18,-4.727
488,1436984554753,10.278,-2.18,-5.102
489,1436984554771,10.278,-1.373,-5.102
490,1436984554791,10.278,-0.921,-5.41
491,1436984554811,10.278,-0.921,-5.41
492,1436984554831,10.278,-0.921,-5.813
493,1436984554851,10.278,-0.921,-5.813
494,1436984554871,10.278,-0.921,-6.227
495,1436984554891,10.278,-0.921,-6.227
496,1436984554911,10.278,-0.921,-7.226
497,1436984554931,10.278,-0.921,-7.897
498,1436984554951,10.278,-0.541,-8.366
499,1436984554971,10.278,-0.541,-8.366
500,1436984554991,10.278,-0.541,-9.129
501,1436984555011,10.278,-0.541,-9.754
502,1436984555044,9.959,-0.187,-9.754
503,1436984555053,9.959,-0.187,-10.234
504,1436984555189,9.959,-0.187,-10.549
505,1436984555204,9.959,-0.187,-10.549
506,1436984555205,9.648,-0.187,-10.549
507,1436984555206,9.648,0.114,-10.885
508,1436984555207,9.648,0.114,-10.885
509,1436984555208,9.262,0.114,-11.209
510,1436984555209,9.262,0.114,-11.209
511,1436984555248,9.262,0.114,-10.734
512,1436984555249,9.262,0.114,-10.734
513,1436984555252,9.262,0.114,-10.734
514,1436984555271,9.262,0.114,-11.054
515,1436984555291,9.262,0.114,-11.054
516,1436984555311,9.262,0.114,-11.054
517,1436984555331,9.262,0.114,-11.054
518,1436984555351,9.262,-0.209,-11.054
519,1436984555371,9.262,-0.209,-11.054
520,1436984555391,8.924,-0.209,-11.054
521,1436984555411,8.924,-0.209,-11.054
522,1436984555431,8.924,-0.566,-11.054
523,1436984555451,8.924,-0.566,-11.054
524,1436984555471,8.924,-0.566,-11.054
525,1436984555491,8.924,-0.566,-11.054
526,1436984555514,8.924,-0.952,-10.707
527,1436984555534,8.924,-0.952,-10.707
528,1436984555590,8.924,-0.952,-9.744
529,1436984555591,8.924,-1.313,-8.912
530,1436984555594,8.924,-1.313,-8.062
531,1436984555611,8.924,-1.736,-6.758
532,1436984555632,8.599,-1.736,-5.145
533,1436984555652,8.599,-2.224,-3.43
534,1436984555671,8.599,-2.224,-2.583
535,1436984555692,8.599,-2.546,-1.681
