id,attr_time,attr_light
1,1436985153433,1.0
2,1436985153456,1.0
3,1436985153476,1.0
4,1436985153495,1.0
5,1436985153557,1.0
6,1436985153558,1.0
7,1436985153559,1.0
8,1436985153574,1.0
9,1436985153594,1.0
10,1436985153614,1.0
11,1436985153634,1.0
12,1436985153654,1.0
13,1436985153674,1.0
14,1436985153697,1.0
15,1436985153716,1.0
16,1436985153734,1.0
17,1436985153755,1.0
18,1436985153774,1.0
19,1436985153794,1.0
20,1436985153814,1.0
21,1436985153834,1.0
22,1436985153854,1.0
23,1436985153874,1.0
24,1436985153894,1.0
25,1436985153914,1.0
26,1436985153934,1.0
27,1436985153954,1.0
28,1436985153974,1.0
29,1436985154007,1.0
30,1436985154103,1.0
31,1436985154104,1.0
32,1436985154105,1.0
33,1436985154106,1.0
34,1436985154107,1.0
35,1436985154159,1.0
36,1436985154160,1.0
37,1436985154161,1.0
38,1436985154175,1.0
39,1436985154195,1.0
40,1436985154215,1.0
41,1436985154234,1.0
42,1436985154254,1.0
43,1436985154274,1.0
44,1436985154294,1.0
45,1436985154314,1.0
46,1436985154334,1.0
47,1436985154354,1.0
48,1436985154374,1.0
49,1436985154394,1.0
50,1436985154415,1.0
51,1436985154435,1.0
52,1436985154455,1.0
53,1436985154476,1.0
54,1436985154536,1.0
55,1436985154537,1.0
56,1436985154538,1.0
57,1436985154555,1.0
58,1436985154575,1.0
59,1436985154595,1.0
60,1436985154615,1.0
61,1436985154635,1.0
62,1436985154655,1.0
63,1436985154676,1.0
64,1436985154695,1.0
65,1436985154715,1.0
66,1436985154735,1.0
67,1436985154756,1.0
68,1436985154775,1.0
69,1436985154795,1.0
70,1436985154815,1.0
71,1436985154835,1.0
72,1436985154855,1.0
73,1436985154875,1.0
74,1436985154895,1.0
75,1436985154915,1.0
76,1436985154935,1.0
77,1436985154956,1.0
78,1436985154976,1.0
79,1436985155013,1.0
80,1436985155032,1.0
81,1436985155104,1.0
82,1436985155105,1.0
83,1436985155106,1.0
84,1436985155107,1.0
85,1436985155160,1.0
86,1436985155161,1.0
87,1436985155162,1.0
88,1436985155177,1.0
89,1436985155202,1.0
90,1436985155216,1.0
91,1436985155238,1.0
92,1436985155257,1.0
93,1436985155277,1.0
94,1436985155300,1.0
95,1436985155316,1.0
96,1436985155337,1.0
97,1436985155356,1.0
98,1436985155377,1.0
99,1436985155401,1.0
100,1436985155421,1.0
101,1436985155437,1.0
102,1436985155458,1.0
103,1436985155478,1.0
104,1436985155536,1.0
105,1436985155537,1.0
106,1436985155538,1.0
107,1436985155556,1.0
108,1436985155576,1.0
109,1436985155596,1.0
110,1436985155632,1.0
111,1436985155636,1.0
112,1436985155656,1.0
113,1436985155676,1.0
114,1436985155698,1.0
115,1436985155716,1.0
116,1436985155737,1.0
117,1436985155756,1.0
118,1436985155814,1.0
119,1436985155815,1.0
120,1436985155839,1.0
121,1436985155840,1.0
122,1436985155862,1.0
123,1436985155876,1.0
124,1436985155896,1.0
125,1436985155916,1.0
126,1436985155936,1.0
127,1436985155956,1.0
128,1436985155976,1.0
129,1436985155996,1.0
130,1436985156016,1.0
131,1436985156036,1.0
132,1436985156056,1.0
133,1436985156076,1.0
134,1436985156096,2.0
135,1436985156116,2.0
136,1436985156137,2.0
137,1436985156156,2.0
138,1436985156176,2.0
139,1436985156198,2.0
140,1436985156217,2.0
141,1436985156237,2.0
142,1436985156257,2.0
143,1436985156277,2.0
144,1436985156298,2.0
145,1436985156320,2.0
146,1436985156339,2.0
147,1436985156359,2.0
148,1436985156471,2.0
149,1436985156472,2.0
150,1436985156473,2.0
151,1436985156474,2.0
152,1436985156475,2.0
153,1436985156479,2.0
154,1436985156497,2.0
155,1436985156517,2.0
156,1436985156537,2.0
157,1436985156557,2.0
158,1436985156577,2.0
159,1436985156597,2.0
160,1436985156617,2.0
161,1436985156637,2.0
162,1436985156657,2.0
163,1436985156677,2.0
164,1436985156697,2.0
165,1436985156717,2.0
166,1436985156737,2.0
167,1436985156757,2.0
168,1436985156777,2.0
169,1436985156797,2.0
170,1436985156817,2.0
171,1436985156873,2.0
172,1436985156874,2.0
173,1436985156889,2.0
174,1436985156897,2.0
175,1436985156917,2.0
176,1436985156937,2.0
177,1436985156957,2.0
178,1436985156977,2.0
179,1436985156997,2.0
180,1436985157017,2.0
181,1436985157037,2.0
182,1436985157057,2.0
183,1436985157077,2.0
184,1436985157097,2.0
185,1436985157117,2.0
186,1436985157137,2.0
187,1436985157157,2.0
188,1436985157178,2.0
189,1436985157198,2.0
190,1436985157218,2.0
191,1436985157238,2.0
192,1436985157258,2.0
193,1436985157278,2.0
194,1436985157298,2.0
195,1436985157318,2.0
196,1436985157338,2.0
197,1436985157358,2.0
198,1436985157378,2.0
199,1436985157398,2.0
200,1436985157418,2.0
201,1436985157438,2.0
202,1436985157458,2.0
203,1436985157478,2.0
204,1436985157535,2.0
205,1436985157536,2.0
206,1436985157538,2.0
207,1436985157558,2.0
208,1436985157578,2.0
209,1436985157598,2.0
210,1436985157618,2.0
211,1436985157638,2.0
212,1436985157658,2.0
213,1436985157678,2.0
214,1436985157698,2.0
215,1436985157718,3.0
216,1436985157740,3.0
217,1436985157759,3.0
218,1436985157778,3.0
219,1436985157798,3.0
220,1436985157818,3.0
221,1436985157838,3.0
222,1436985157858,3.0
223,1436985157878,3.0
224,1436985157898,3.0
225,1436985157918,3.0
226,1436985157938,3.0
227,1436985157958,3.0
228,1436985157978,3.0
229,1436985157998,3.0
230,1436985158018,3.0
231,1436985158043,3.0
232,1436985158093,3.0
233,1436985158094,3.0
234,1436985158172,3.0
235,1436985158173,3.0
236,1436985158174,3.0
237,1436985158175,3.0
238,1436985158231,3.0
239,1436985158232,3.0
240,1436985158233,3.0
241,1436985158240,3.0
242,1436985158260,3.0
243,1436985158279,3.0
244,1436985158298,3.0
245,1436985158323,3.0
246,1436985158342,3.0
247,1436985158363,3.0
248,1436985158383,3.0
249,1436985158400,3.0
250,1436985158422,3.0
251,1436985158444,3.0
252,1436985158463,3.0
253,1436985158482,3.0
254,1436985158499,3.0
255,1436985158523,3.0
256,1436985158540,3.0
257,1436985158650,3.0
258,1436985158651,3.0
259,1436985158652,3.0
260,1436985158653,3.0
261,1436985158654,3.0
262,1436985158671,3.0
263,1436985158679,3.0
264,1436985158699,3.0
265,1436985158719,3.0
266,1436985158739,3.0
267,1436985158759,3.0
268,1436985158779,3.0
269,1436985158799,3.0
270,1436985158819,3.0
271,1436985158839,3.0
272,1436985158859,3.0
273,1436985158879,3.0
274,1436985158899,3.0
275,1436985158919,3.0
276,1436985158939,3.0
277,1436985158960,3.0
278,1436985158979,3.0
279,1436985159000,3.0
280,1436985159019,3.0
281,1436985159039,3.0
282,1436985159059,3.0
283,1436985159079,3.0
284,1436985159099,3.0
285,1436985159119,3.0
286,1436985159139,3.0
287,1436985159159,3.0
288,1436985159179,3.0
289,1436985159199,3.0
290,1436985159220,3.0
291,1436985159240,3.0
292,1436985159260,3.0
293,1436985159280,3.0
294,1436985159300,3.0
295,1436985159324,3.0
296,1436985159345,3.0
297,1436985159364,3.0
298,1436985159383,3.0
299,1436985159402,3.0
300,1436985159423,3.0
301,1436985159444,3.0
302,1436985159463,3.0
303,1436985159614,3.0
304,1436985159615,3.0
305,1436985159616,3.0
306,1436985159617,3.0
307,1436985159618,3.0
308,1436985159619,3.0
309,1436985159620,3.0
310,1436985159641,3.0
311,1436985159642,3.0
312,1436985159660,3.0
313,1436985159680,3.0
314,1436985159700,3.0
315,1436985159721,3.0
316,1436985159741,3.0
317,1436985159761,3.0
318,1436985159781,3.0
319,1436985159801,3.0
320,1436985159821,3.0
321,1436985159841,3.0
322,1436985159861,3.0
323,1436985159881,3.0
324,1436985159901,3.0
325,1436985159921,3.0
326,1436985159941,3.0
327,1436985159961,3.0
328,1436985159981,3.0
329,1436985160001,3.0
330,1436985160021,3.0
331,1436985160041,3.0
332,1436985160061,3.0
333,1436985160082,3.0
334,1436985160102,3.0
335,1436985160121,3.0
336,1436985160141,3.0
337,1436985160161,3.0
338,1436985160181,3.0
339,1436985160201,3.0
340,1436985160221,3.0
341,1436985160240,3.0
342,1436985160278,3.0
343,1436985160365,3.0
344,1436985160366,3.0
345,1436985160367,3.0
346,1436985160368,3.0
347,1436985160369,3.0
348,1436985160501,3.0
349,1436985160502,3.0
350,1436985160503,3.0
351,1436985160504,3.0
352,1436985160505,3.0
353,1436985160506,3.0
354,1436985160507,3.0
355,1436985160523,3.0
356,1436985160541,3.0
357,1436985160577,3.0
358,1436985160582,3.0
359,1436985160604,3.0
360,1436985160624,3.0
361,1436985160646,3.0
362,1436985160666,3.0
363,1436985160686,3.0
364,1436985160702,3.0
365,1436985160723,3.0
366,1436985160745,3.0
367,1436985160765,3.0
368,1436985160785,3.0
369,1436985160804,3.0
370,1436985160822,3.0
371,1436985160909,3.0
372,1436985160910,3.0
373,1436985160911,3.0
374,1436985160912,3.0
375,1436985160932,3.0
376,1436985160941,3.0
377,1436985160961,3.0
378,1436985160981,3.0
379,1436985161001,3.0
380,1436985161021,3.0
381,1436985161041,3.0
382,1436985161061,3.0
383,1436985161081,3.0
384,1436985161101,3.0
385,1436985161122,3.0
386,1436985161144,3.0
387,1436985161161,3.0
388,1436985161181,3.0
389,1436985161201,3.0
390,1436985161221,3.0
391,1436985161241,3.0
392,1436985161261,3.0
393,1436985161281,3.0
394,1436985161301,3.0
395,1436985161321,3.0
396,1436985161342,3.0
397,1436985161361,3.0
398,1436985161381,2.0
399,1436985161401,2.0
400,1436985161422,2.0
401,1436985161441,2.0
402,1436985161461,2.0
403,1436985161484,2.0
404,1436985161503,2.0
405,1436985161523,2.0
406,1436985161543,2.0
407,1436985161566,2.0
408,1436985161587,2.0
409,1436985161607,2.0
410,1436985161627,2.0
411,1436985161647,2.0
412,1436985161666,2.0
413,1436985161686,2.0
414,1436985161706,2.0
415,1436985161725,2.0
416,1436985161744,2.0
417,1436985161764,2.0
418,1436985161784,1.0
419,1436985161805,1.0
420,1436985161824,1.0
421,1436985161909,1.0
422,1436985161910,1.0
423,1436985161911,1.0
424,1436985161912,1.0
425,1436985161932,1.0
426,1436985161942,1.0
427,1436985161966,1.0
428,1436985161982,1.0
429,1436985162002,1.0
430,1436985162022,1.0
431,1436985162042,2.0
432,1436985162062,2.0
433,1436985162082,2.0
434,1436985162102,2.0
435,1436985162122,2.0
436,1436985162143,2.0
437,1436985162163,2.0
438,1436985162182,2.0
439,1436985162202,2.0
440,1436985162223,2.0
441,1436985162242,3.0
442,1436985162268,3.0
443,1436985162283,3.0
444,1436985162303,3.0
445,1436985162323,3.0
446,1436985162343,3.0
447,1436985162363,3.0
448,1436985162383,3.0
449,1436985162403,3.0
450,1436985162423,4.0
451,1436985162443,4.0
452,1436985162463,4.0
453,1436985162483,4.0
454,1436985162503,4.0
455,1436985162523,4.0
456,1436985162543,4.0
457,1436985162563,4.0
458,1436985162583,4.0
459,1436985162603,4.0
460,1436985162623,4.0
461,1436985162643,4.0
462,1436985162663,4.0
463,1436985162683,4.0
464,1436985162703,4.0
465,1436985162725,4.0
466,1436985164158,4.0
467,1436985164159,4.0
468,1436985164160,4.0
469,1436985164161,4.0
470,1436985164162,4.0
471,1436985164163,4.0
472,1436985164164,4.0
473,1436985164165,4.0
474,1436985164166,4.0
475,1436985164167,4.0
476,1436985164168,4.0
477,1436985164169,4.0
478,1436985164170,4.0
479,1436985164171,4.0
480,1436985164172,4.0
481,1436985164173,4.0
482,1436985164174,4.0
483,1436985164175,4.0
484,1436985164176,4.0
485,1436985164177,4.0
486,1436985164178,4.0
487,1436985164179,4.0
488,1436985164180,5.0
489,1436985164181,5.0
490,1436985164182,5.0
491,1436985164183,6.0
492,1436985164184,6.0
493,1436985164185,6.0
494,1436985164186,6.0
495,1436985164187,6.0
496,1436985164188,6.0
497,1436985164189,6.0
498,1436985164190,6.0
499,1436985164191,6.0
500,1436985164192,6.0
501,1436985164193,6.0
502,1436985164194,6.0
503,1436985164195,6.0
504,1436985164196,6.0
505,1436985164197,6.0
506,1436985164198,6.0
507,1436985164199,6.0
508,1436985164200,6.0
509,1436985164201,6.0
510,1436985164202,5.0
511,1436985164203,5.0
512,1436985164204,5.0
513,1436985164205,5.0
514,1436985164206,6.0
515,1436985164207,6.0
516,1436985164208,6.0
517,1436985164209,7.0
518,1436985164210,7.0
519,1436985164211,8.0
520,1436985164212,8.0
521,1436985164213,8.0
522,1436985164214,8.0
523,1436985164215,7.0
524,1436985164216,7.0
525,1436985164217,6.0
526,1436985164218,6.0
527,1436985164219,5.0
528,1436985164220,5.0
529,1436985164221,4.0
530,1436985164222,4.0
531,1436985164223,3.0
532,1436985164224,2.0
533,1436985164225,2.0
534,1436985164226,2.0
535,1436985164227,2.0
536,1436985164228,2.0
537,1436985164229,2.0
538,1436985164230,2.0
539,1436985164231,2.0
540,1436985164232,2.0
541,1436985164244,2.0
542,1436985164264,2.0
543,1436985164284,2.0
544,1436985164304,2.0
545,1436985164324,2.0
546,1436985164344,2.0
547,1436985164364,2.0
548,1436985164384,2.0
549,1436985164404,2.0
550,1436985164424,2.0
551,1436985164444,1.0
552,1436985164464,1.0
553,1436985164484,1.0
554,1436985164504,1.0
555,1436985164524,1.0
556,1436985164544,1.0
557,1436985164564,1.0
558,1436985164584,1.0
559,1436985164604,1.0
560,1436985164624,0.0
561,1436985164644,0.0
562,1436985164664,0.0
563,1436985164684,0.0
564,1436985164704,0.0
565,1436985164725,0.0
566,1436985164745,0.0
567,1436985164768,0.0
568,1436985164786,0.0
569,1436985164808,0.0
570,1436985164828,0.0
571,1436985164848,0.0
572,1436985164866,0.0
573,1436985164892,0.0
574,1436985165107,0.0
575,1436985165108,0.0
576,1436985165109,0.0
577,1436985165110,0.0
578,1436985165111,0.0
579,1436985165112,0.0
580,1436985165113,0.0
581,1436985165114,0.0
582,1436985165115,0.0
583,1436985165116,0.0
584,1436985165117,0.0
585,1436985165126,0.0
586,1436985165146,0.0
587,1436985165166,1.0
588,1436985165186,1.0
589,1436985165206,1.0
590,1436985165225,1.0
591,1436985165246,1.0
592,1436985165266,1.0
593,1436985165286,1.0
594,1436985165306,1.0
595,1436985165326,1.0
596,1436985165346,1.0
597,1436985165366,1.0
598,1436985165386,2.0
599,1436985165406,2.0
600,1436985165426,2.0
601,1436985165450,2.0
602,1436985165467,2.0
603,1436985165486,2.0
604,1436985165506,2.0
605,1436985165526,2.0
606,1436985165546,2.0
607,1436985165566,1.0
608,1436985165588,1.0
609,1436985165613,1.0
610,1436985165633,1.0
611,1436985165648,1.0
612,1436985165702,1.0
613,1436985165703,1.0
614,1436985165719,1.0
615,1436985165732,1.0
616,1436985165746,1.0
617,1436985165766,1.0
618,1436985165787,1.0
619,1436985165806,1.0
620,1436985165826,1.0
621,1436985165846,1.0
622,1436985165866,1.0
623,1436985165886,1.0
624,1436985165906,1.0
625,1436985165926,1.0
626,1436985165946,1.0
627,1436985165966,1.0
628,1436985165986,1.0
629,1436985166006,1.0
630,1436985166026,1.0
631,1436985166046,1.0
632,1436985166067,1.0
633,1436985166087,1.0
634,1436985166107,1.0
635,1436985166127,1.0
636,1436985166148,1.0
637,1436985166167,1.0
638,1436985166186,1.0
639,1436985166207,1.0
640,1436985166231,1.0
641,1436985166510,1.0
642,1436985166511,1.0
643,1436985166512,2.0
644,1436985166513,2.0
645,1436985166514,2.0
646,1436985166515,2.0
647,1436985166516,2.0
648,1436985166517,2.0
649,1436985166518,2.0
650,1436985166519,2.0
651,1436985166520,2.0
652,1436985166521,2.0
653,1436985166522,2.0
654,1436985166523,2.0
655,1436985166553,2.0
656,1436985166554,2.0
657,1436985166568,2.0
658,1436985166588,2.0
659,1436985166608,2.0
660,1436985166628,2.0
661,1436985166648,2.0
662,1436985166668,2.0
663,1436985166688,2.0
664,1436985166708,2.0
665,1436985166727,2.0
666,1436985166747,2.0
667,1436985166767,2.0
668,1436985166787,2.0
669,1436985166807,2.0
670,1436985166832,2.0
671,1436985166847,2.0
672,1436985166867,2.0
673,1436985166887,2.0
674,1436985166907,2.0
675,1436985166927,2.0
676,1436985166947,2.0
677,1436985166967,2.0
678,1436985166987,2.0
679,1436985167007,2.0
680,1436985167027,2.0
681,1436985167047,2.0
682,1436985167068,2.0
683,1436985167087,2.0
684,1436985167107,2.0
685,1436985167127,2.0
686,1436985167147,2.0
687,1436985167167,2.0
688,1436985167187,2.0
689,1436985167207,2.0
690,1436985167231,2.0
691,1436985167250,2.0
692,1436985167268,2.0
693,1436985167288,2.0
694,1436985167308,2.0
695,1436985167328,2.0
696,1436985167349,2.0
697,1436985167375,2.0
698,1436985167391,2.0
699,1436985167408,2.0
700,1436985167432,2.0
701,1436985167452,2.0
702,1436985167472,2.0
703,1436985167491,2.0
704,1436985167509,2.0
705,1436985167636,2.0
706,1436985167637,2.0
707,1436985167638,2.0
708,1436985167639,2.0
709,1436985167640,2.0
710,1436985167641,2.0
711,1436985167663,2.0
712,1436985167668,1.0
713,1436985167688,1.0
714,1436985167708,1.0
715,1436985167729,1.0
716,1436985167749,1.0
717,1436985167769,1.0
718,1436985167789,1.0
719,1436985167809,1.0
720,1436985167829,1.0
721,1436985167849,1.0
722,1436985167869,1.0
723,1436985167889,1.0
724,1436985167909,1.0
725,1436985167929,1.0
726,1436985167949,1.0
727,1436985167969,1.0
728,1436985167989,1.0
729,1436985168009,1.0
730,1436985168029,1.0
731,1436985168049,1.0
732,1436985168070,1.0
733,1436985168089,1.0
734,1436985168109,1.0
735,1436985168129,1.0
736,1436985168149,1.0
737,1436985168169,1.0
738,1436985168207,1.0
739,1436985168209,1.0
740,1436985168302,0.0
741,1436985168303,0.0
742,1436985168304,0.0
743,1436985168305,0.0
744,1436985168372,0.0
745,1436985168373,0.0
746,1436985168374,0.0
747,1436985168375,0.0
748,1436985168513,0.0
749,1436985168514,0.0
750,1436985168515,0.0
751,1436985168516,0.0
752,1436985168517,0.0
753,1436985168518,0.0
754,1436985168519,0.0
755,1436985168533,0.0
756,1436985168549,0.0
757,1436985168570,0.0
758,1436985168593,0.0
759,1436985168613,0.0
760,1436985168633,0.0
761,1436985168651,0.0
762,1436985168671,0.0
763,1436985168694,0.0
764,1436985168713,0.0
765,1436985168733,0.0
766,1436985168753,0.0
767,1436985168772,0.0
768,1436985168792,0.0
769,1436985168811,0.0
770,1436985168830,0.0
771,1436985168933,0.0
772,1436985168942,0.0
773,1436985168943,0.0
774,1436985168944,0.0
775,1436985168945,0.0
776,1436985168949,0.0
777,1436985168969,0.0
778,1436985168989,0.0
779,1436985169009,0.0
780,1436985169029,0.0
781,1436985169049,0.0
782,1436985169069,0.0
783,1436985169089,0.0
784,1436985169109,0.0
785,1436985169129,0.0
786,1436985169150,0.0
787,1436985169173,0.0
788,1436985169189,0.0
789,1436985169209,1.0
790,1436985169229,1.0
791,1436985169249,1.0
792,1436985169269,1.0
793,1436985169289,1.0
794,1436985169309,1.0
795,1436985169329,1.0
796,1436985169349,1.0
797,1436985169369,1.0
798,1436985169389,1.0
799,1436985169409,1.0
800,1436985169430,1.0
801,1436985169495,1.0
802,1436985169496,1.0
803,1436985169497,1.0
804,1436985169525,1.0
805,1436985169532,1.0
806,1436985169553,1.0
807,1436985169569,1.0
808,1436985169589,1.0
809,1436985169610,1.0
810,1436985169630,1.0
811,1436985169650,1.0
812,1436985169670,1.0
813,1436985169690,1.0
814,1436985169709,1.0
815,1436985169730,1.0
816,1436985169750,1.0
817,1436985169770,1.0
818,1436985169790,1.0
819,1436985169810,1.0
820,1436985169830,1.0
821,1436985169850,1.0
822,1436985169870,1.0
823,1436985169891,1.0
824,1436985169911,1.0
825,1436985170033,1.0
826,1436985170034,1.0
827,1436985170035,1.0
828,1436985170036,1.0
829,1436985170037,1.0
830,1436985170038,1.0
831,1436985170050,1.0
832,1436985170070,1.0
833,1436985170090,1.0
834,1436985170110,1.0
835,1436985170130,1.0
836,1436985170150,1.0
837,1436985170170,1.0
838,1436985170190,1.0
839,1436985170210,1.0
840,1436985170230,1.0
841,1436985170250,1.0
842,1436985170270,1.0
843,1436985170290,1.0
844,1436985170310,1.0
845,1436985170330,1.0
846,1436985170350,1.0
847,1436985170370,1.0
848,1436985170390,1.0
849,1436985170410,1.0
850,1436985170430,1.0
851,1436985170450,1.0
852,1436985170470,1.0
853,1436985170490,1.0
854,1436985170510,1.0
855,1436985170530,1.0
856,1436985170551,1.0
857,1436985170571,1.0
858,1436985170591,1.0
859,1436985170618,1.0
860,1436985170631,1.0
861,1436985170651,1.0
862,1436985170671,1.0
863,1436985170691,1.0
864,1436985170711,1.0
865,1436985170731,1.0
866,1436985170751,1.0
867,1436985170771,1.0
868,1436985170791,1.0
869,1436985170812,1.0
870,1436985170831,1.0
871,1436985170851,1.0
872,1436985170871,1.0
873,1436985170894,1.0
874,1436985170924,1.0
875,1436985170931,1.0
876,1436985170951,1.0
877,1436985170971,1.0
878,1436985170991,1.0
879,1436985171011,1.0
880,1436985171031,1.0
881,1436985171051,1.0
882,1436985171071,1.0
883,1436985171091,1.0
884,1436985171111,1.0
885,1436985171132,1.0
886,1436985171151,1.0
887,1436985171171,1.0
888,1436985171191,1.0
889,1436985171212,2.0
890,1436985171231,2.0
891,1436985171251,2.0
892,1436985171271,2.0
893,1436985171291,2.0
894,1436985171311,2.0
895,1436985171331,2.0
896,1436985171351,2.0
897,1436985171371,2.0
898,1436985171391,2.0
899,1436985171411,2.0
900,1436985171431,2.0
901,1436985171451,2.0
902,1436985171471,2.0
903,1436985171494,2.0
904,1436985171514,2.0
905,1436985171533,2.0
906,1436985171551,2.0
907,1436985171577,2.0
908,1436985171596,2.0
909,1436985171616,2.0
910,1436985171636,2.0
911,1436985171655,2.0
912,1436985171677,2.0
