id,attr_time,attr_light
1,1436985153427,0.0
2,1436985153448,0.0
3,1436985153556,0.0
4,1436985153557,0.0
5,1436985153558,0.0
6,1436985153559,0.0
7,1436985153560,0.0
8,1436985153567,0.0
9,1436985153587,0.0
10,1436985153607,0.0
11,1436985153627,0.0
12,1436985153646,0.0
13,1436985153668,0.0
14,1436985153686,0.0
15,1436985153711,0.0
16,1436985153734,0.0
17,1436985153751,0.0
18,1436985153768,0.0
19,1436985153787,0.0
20,1436985153808,0.0
21,1436985153832,0.0
22,1436985153848,0.0
23,1436985153867,0.0
24,1436985153887,0.0
25,1436985153907,0.0
26,1436985153929,0.0
27,1436985153947,0.0
28,1436985153967,0.0
29,1436985153988,0.0
30,1436985154010,0.0
31,1436985154098,0.0
32,1436985154099,0.0
33,1436985154100,0.0
34,1436985154101,0.0
35,1436985154107,0.0
36,1436985154129,0.0
37,1436985154147,0.0
38,1436985154169,0.0
39,1436985154188,0.0
40,1436985154207,0.0
41,1436985154228,0.0
42,1436985154252,0.0
43,1436985154269,0.0
44,1436985154298,0.0
45,1436985154322,0.0
46,1436985154328,0.0
47,1436985154348,0.0
48,1436985154370,0.0
49,1436985154389,0.0
50,1436985154409,0.0
51,1436985154428,0.0
52,1436985154451,0.0
53,1436985154468,0.0
54,1436985154487,0.0
55,1436985154507,0.0
56,1436985154528,0.0
57,1436985154548,0.0
58,1436985154568,0.0
59,1436985154588,0.0
60,1436985154658,1.0
61,1436985154672,1.0
62,1436985154673,0.0
63,1436985154674,0.0
64,1436985154689,0.0
65,1436985154708,0.0
66,1436985154728,0.0
67,1436985154748,0.0
68,1436985154769,0.0
69,1436985154788,0.0
70,1436985154808,0.0
71,1436985154828,0.0
72,1436985154857,0.0
73,1436985154883,0.0
74,1436985154893,0.0
75,1436985154908,1.0
76,1436985154928,1.0
77,1436985154948,0.0
78,1436985154968,0.0
79,1436985154988,0.0
80,1436985155013,1.0
81,1436985155028,1.0
82,1436985155048,0.0
83,1436985155070,0.0
84,1436985155090,1.0
85,1436985155110,1.0
86,1436985155129,1.0
87,1436985155149,1.0
88,1436985155200,1.0
89,1436985155201,1.0
90,1436985155209,1.0
91,1436985155228,1.0
92,1436985155248,1.0
93,1436985155268,1.0
94,1436985155290,1.0
95,1436985155311,1.0
96,1436985155329,1.0
97,1436985155352,1.0
98,1436985155368,1.0
99,1436985155387,1.0
100,1436985155411,1.0
101,1436985155431,1.0
102,1436985155450,1.0
103,1436985155471,1.0
104,1436985155489,1.0
105,1436985155509,1.0
106,1436985155529,1.0
107,1436985155551,1.0
108,1436985155569,1.0
109,1436985155664,1.0
110,1436985155665,1.0
111,1436985155666,0.0
112,1436985155667,0.0
113,1436985155682,0.0
114,1436985155689,0.0
115,1436985155709,0.0
116,1436985155729,0.0
117,1436985155749,0.0
118,1436985155775,0.0
119,1436985155791,0.0
120,1436985155809,0.0
121,1436985155833,0.0
122,1436985155853,0.0
123,1436985155876,0.0
124,1436985155890,0.0
125,1436985155909,0.0
126,1436985155931,0.0
127,1436985155964,0.0
128,1436985155995,0.0
129,1436985155996,0.0
130,1436985156009,0.0
131,1436985156029,0.0
132,1436985156051,0.0
133,1436985156069,0.0
134,1436985156088,0.0
135,1436985156108,0.0
136,1436985156128,0.0
137,1436985156148,0.0
138,1436985156168,0.0
139,1436985156189,0.0
140,1436985156208,0.0
141,1436985156228,0.0
142,1436985156248,0.0
143,1436985156268,0.0
144,1436985156288,0.0
145,1436985156308,0.0
146,1436985156328,0.0
147,1436985156348,0.0
148,1436985156368,0.0
149,1436985156388,0.0
150,1436985156408,0.0
151,1436985156428,0.0
152,1436985156448,0.0
153,1436985156468,1.0
154,1436985156488,1.0
155,1436985156508,1.0
156,1436985156528,1.0
157,1436985156555,1.0
158,1436985156604,1.0
159,1436985156605,1.0
160,1436985156609,1.0
161,1436985156630,1.0
162,1436985156649,1.0
163,1436985156669,1.0
164,1436985156689,1.0
165,1436985156710,1.0
166,1436985156730,1.0
167,1436985156750,1.0
168,1436985156769,1.0
169,1436985156789,1.0
170,1436985156812,1.0
171,1436985156834,1.0
172,1436985156852,1.0
173,1436985156869,1.0
174,1436985156891,1.0
175,1436985156911,1.0
176,1436985156932,1.0
177,1436985156953,1.0
178,1436985156974,1.0
179,1436985156998,1.0
180,1436985157015,1.0
181,1436985157099,0.0
182,1436985157100,0.0
183,1436985157101,0.0
184,1436985157102,0.0
185,1436985157141,0.0
186,1436985157142,0.0
187,1436985157174,0.0
188,1436985157175,1.0
189,1436985157192,1.0
190,1436985157212,1.0
191,1436985157230,1.0
192,1436985157250,1.0
193,1436985157270,1.0
194,1436985157292,1.0
195,1436985157311,1.0
196,1436985157332,1.0
197,1436985157351,1.0
198,1436985157373,1.0
199,1436985157392,1.0
200,1436985157415,1.0
201,1436985157437,1.0
202,1436985157456,1.0
203,1436985157474,1.0
204,1436985157492,1.0
205,1436985157511,1.0
206,1436985157533,1.0
207,1436985157555,1.0
208,1436985157576,1.0
209,1436985157596,1.0
210,1436985157612,1.0
211,1436985157692,1.0
212,1436985157693,1.0
213,1436985157694,1.0
214,1436985157695,1.0
215,1436985157711,1.0
216,1436985157732,1.0
217,1436985157751,1.0
218,1436985157771,1.0
219,1436985157791,1.0
220,1436985157811,1.0
221,1436985157833,1.0
222,1436985157853,1.0
223,1436985157873,1.0
224,1436985157894,1.0
225,1436985157917,1.0
226,1436985157933,1.0
227,1436985157953,1.0
228,1436985157974,1.0
229,1436985157991,1.0
230,1436985158021,1.0
231,1436985158039,1.0
232,1436985158062,1.0
233,1436985158074,1.0
234,1436985158094,1.0
235,1436985158114,1.0
236,1436985158133,1.0
237,1436985158151,1.0
238,1436985158179,1.0
239,1436985158261,1.0
240,1436985158262,1.0
241,1436985158263,1.0
242,1436985158264,1.0
243,1436985158279,1.0
244,1436985158292,1.0
245,1436985158311,1.0
246,1436985158332,1.0
247,1436985158351,1.0
248,1436985158377,1.0
249,1436985158393,1.0
250,1436985158412,1.0
251,1436985158435,1.0
252,1436985158453,1.0
253,1436985158476,1.0
254,1436985158493,1.0
255,1436985158513,1.0
256,1436985158532,1.0
257,1436985158551,1.0
258,1436985158571,1.0
259,1436985158591,1.0
260,1436985158617,1.0
261,1436985158638,1.0
262,1436985158655,1.0
263,1436985158673,1.0
264,1436985158692,1.0
265,1436985158712,1.0
266,1436985158733,1.0
267,1436985158803,1.0
268,1436985158804,1.0
269,1436985158821,1.0
270,1436985158822,1.0
271,1436985158834,1.0
272,1436985158852,1.0
273,1436985158873,1.0
274,1436985158893,1.0
275,1436985158913,1.0
276,1436985158936,1.0
277,1436985158953,1.0
278,1436985158979,1.0
279,1436985158995,1.0
280,1436985159019,1.0
281,1436985159037,1.0
282,1436985159054,1.0
283,1436985159075,1.0
284,1436985159096,1.0
285,1436985159119,1.0
286,1436985159134,1.0
287,1436985159153,1.0
288,1436985159173,1.0
289,1436985159193,1.0
290,1436985159215,1.0
291,1436985159236,1.0
292,1436985159358,1.0
293,1436985159359,1.0
294,1436985159360,1.0
295,1436985159361,1.0
296,1436985159362,1.0
297,1436985159363,1.0
298,1436985159383,1.0
299,1436985159393,1.0
300,1436985159413,1.0
301,1436985159433,1.0
302,1436985159453,1.0
303,1436985159522,1.0
304,1436985159523,1.0
305,1436985159524,1.0
306,1436985159537,1.0
307,1436985159556,1.0
308,1436985159573,1.0
309,1436985159595,1.0
310,1436985159612,1.0
311,1436985159632,1.0
312,1436985159652,1.0
313,1436985159671,1.0
314,1436985159692,1.0
315,1436985159711,1.0
316,1436985159731,1.0
317,1436985159754,1.0
318,1436985159774,1.0
319,1436985159795,1.0
320,1436985159813,1.0
321,1436985159859,1.0
322,1436985159860,1.0
323,1436985159872,1.0
324,1436985159893,1.0
325,1436985159912,1.0
326,1436985159933,1.0
327,1436985159953,1.0
328,1436985159973,1.0
329,1436985159993,1.0
330,1436985160015,1.0
331,1436985160032,1.0
332,1436985160054,1.0
333,1436985160073,1.0
334,1436985160093,1.0
335,1436985160114,1.0
336,1436985160136,1.0
337,1436985160156,1.0
338,1436985160176,1.0
339,1436985160192,1.0
340,1436985160212,1.0
341,1436985160233,1.0
342,1436985160253,1.0
343,1436985160279,1.0
344,1436985160312,1.0
345,1436985160313,1.0
346,1436985160333,1.0
347,1436985160354,1.0
348,1436985160372,1.0
349,1436985160394,1.0
350,1436985160413,1.0
351,1436985160434,1.0
352,1436985160453,1.0
353,1436985160473,1.0
354,1436985160496,1.0
355,1436985160514,1.0
356,1436985160534,1.0
357,1436985160553,1.0
358,1436985160574,1.0
359,1436985160596,1.0
360,1436985160618,1.0
361,1436985160637,1.0
362,1436985160655,1.0
363,1436985160673,1.0
364,1436985160693,1.0
365,1436985160760,1.0
366,1436985160761,1.0
367,1436985160762,1.0
368,1436985160773,1.0
369,1436985160794,1.0
370,1436985160814,1.0
371,1436985160834,1.0
372,1436985160853,1.0
373,1436985160876,1.0
374,1436985160894,1.0
375,1436985160914,1.0
376,1436985160934,1.0
377,1436985160954,1.0
378,1436985160974,1.0
379,1436985160995,1.0
380,1436985161015,1.0
381,1436985161038,1.0
382,1436985161057,1.0
383,1436985161080,1.0
384,1436985161098,1.0
385,1436985161115,1.0
386,1436985161155,1.0
387,1436985161156,0.0
388,1436985161182,0.0
389,1436985161261,0.0
390,1436985161262,0.0
391,1436985161263,0.0
392,1436985161264,0.0
393,1436985161282,0.0
394,1436985161294,0.0
395,1436985161314,0.0
396,1436985161334,0.0
397,1436985161354,0.0
398,1436985161376,0.0
399,1436985161398,0.0
400,1436985161415,0.0
401,1436985161439,0.0
402,1436985161461,0.0
403,1436985161478,0.0
404,1436985161494,0.0
405,1436985161517,0.0
406,1436985161534,0.0
407,1436985161565,0.0
408,1436985161574,0.0
409,1436985161595,0.0
410,1436985161614,0.0
411,1436985161635,0.0
412,1436985161654,0.0
413,1436985161673,0.0
414,1436985161694,0.0
415,1436985161714,0.0
416,1436985161733,0.0
417,1436985161755,0.0
418,1436985161773,0.0
419,1436985161793,0.0
420,1436985161815,0.0
421,1436985161835,0.0
422,1436985161855,0.0
423,1436985161874,0.0
424,1436985161894,0.0
425,1436985161914,0.0
426,1436985161934,0.0
427,1436985161954,0.0
428,1436985161973,0.0
429,1436985161996,0.0
430,1436985162015,0.0
431,1436985162034,0.0
432,1436985162055,0.0
433,1436985162075,0.0
434,1436985162096,0.0
435,1436985162117,0.0
436,1436985162276,0.0
437,1436985162277,0.0
438,1436985162278,0.0
439,1436985162279,0.0
440,1436985162280,0.0
441,1436985162281,0.0
442,1436985162282,0.0
443,1436985162283,0.0
444,1436985162304,0.0
445,1436985162316,0.0
446,1436985162335,0.0
447,1436985162356,0.0
448,1436985162377,0.0
449,1436985162395,0.0
450,1436985162417,0.0
451,1436985162435,0.0
452,1436985162456,0.0
453,1436985162479,0.0
454,1436985162496,0.0
455,1436985162516,0.0
456,1436985162536,0.0
457,1436985162556,0.0
458,1436985162575,0.0
459,1436985162595,0.0
460,1436985162617,0.0
461,1436985162636,0.0
462,1436985162655,1.0
463,1436985162675,1.0
464,1436985162695,1.0
465,1436985162716,1.0
466,1436985162736,1.0
467,1436985162756,1.0
468,1436985162824,1.0
469,1436985162825,1.0
470,1436985162826,1.0
471,1436985162835,1.0
472,1436985162856,1.0
473,1436985162876,1.0
474,1436985162897,1.0
475,1436985162917,1.0
476,1436985162937,1.0
477,1436985162956,1.0
478,1436985162976,1.0
479,1436985162995,1.0
480,1436985163017,1.0
481,1436985163039,1.0
482,1436985163058,1.0
483,1436985163077,1.0
484,1436985163097,1.0
485,1436985163117,1.0
486,1436985163136,1.0
487,1436985163156,1.0
488,1436985163179,1.0
489,1436985163198,1.0
490,1436985163219,1.0
491,1436985163237,1.0
492,1436985163256,1.0
493,1436985163278,1.0
494,1436985163298,1.0
495,1436985163317,1.0
496,1436985163382,1.0
497,1436985163383,1.0
498,1436985163408,1.0
499,1436985163409,1.0
500,1436985163416,1.0
501,1436985163437,1.0
502,1436985163456,1.0
503,1436985163476,1.0
504,1436985163498,1.0
505,1436985163519,1.0
506,1436985163537,1.0
507,1436985163559,1.0
508,1436985163577,1.0
509,1436985163600,1.0
510,1436985163617,1.0
511,1436985163636,1.0
512,1436985163657,1.0
513,1436985163678,1.0
514,1436985163698,1.0
515,1436985163717,1.0
516,1436985163736,1.0
517,1436985163757,1.0
518,1436985163778,1.0
519,1436985163797,1.0
520,1436985163818,1.0
521,1436985163838,1.0
522,1436985163858,1.0
523,1436985163940,1.0
524,1436985163941,1.0
525,1436985163942,1.0
526,1436985163943,1.0
527,1436985163963,1.0
528,1436985163979,1.0
529,1436985163998,1.0
530,1436985164017,1.0
531,1436985164038,1.0
532,1436985164057,1.0
533,1436985164077,1.0
534,1436985164096,1.0
535,1436985164119,1.0
536,1436985164142,1.0
537,1436985164159,1.0
538,1436985164179,1.0
539,1436985164199,1.0
540,1436985164218,1.0
541,1436985164238,1.0
542,1436985164258,1.0
543,1436985164277,1.0
544,1436985164297,1.0
545,1436985164317,1.0
546,1436985164337,1.0
547,1436985164357,1.0
548,1436985164377,1.0
549,1436985164399,1.0
550,1436985164418,1.0
551,1436985164437,1.0
552,1436985164509,1.0
553,1436985164510,1.0
554,1436985164511,1.0
555,1436985164517,1.0
556,1436985164540,1.0
557,1436985164557,1.0
558,1436985164579,1.0
559,1436985164599,1.0
560,1436985164618,1.0
561,1436985164638,1.0
562,1436985164662,1.0
563,1436985164682,1.0
564,1436985164704,1.0
565,1436985164720,1.0
566,1436985164739,1.0
567,1436985164757,1.0
568,1436985164778,1.0
569,1436985164799,1.0
570,1436985164818,1.0
571,1436985164838,1.0
572,1436985164857,1.0
573,1436985164879,1.0
574,1436985164900,1.0
575,1436985164918,1.0
576,1436985164938,1.0
577,1436985164958,1.0
578,1436985164981,1.0
579,1436985165077,1.0
580,1436985165078,1.0
581,1436985165079,1.0
582,1436985165080,1.0
583,1436985165081,1.0
584,1436985165099,1.0
585,1436985165119,1.0
586,1436985165138,1.0
587,1436985165158,1.0
588,1436985165185,1.0
589,1436985165200,1.0
590,1436985165218,1.0
591,1436985165240,1.0
592,1436985165263,1.0
593,1436985165279,1.0
594,1436985165313,1.0
595,1436985165318,1.0
596,1436985165338,1.0
597,1436985165358,1.0
598,1436985165378,1.0
599,1436985165398,1.0
600,1436985165423,1.0
601,1436985165444,1.0
602,1436985165461,1.0
603,1436985165480,1.0
604,1436985165499,1.0
605,1436985165522,1.0
606,1436985165538,1.0
607,1436985165627,1.0
608,1436985165628,1.0
609,1436985165629,1.0
610,1436985165630,1.0
611,1436985165643,1.0
612,1436985165658,1.0
613,1436985165680,1.0
614,1436985165699,1.0
615,1436985165719,1.0
616,1436985165740,1.0
617,1436985165765,1.0
618,1436985165782,1.0
619,1436985165799,1.0
620,1436985165819,1.0
621,1436985165841,1.0
622,1436985165861,1.0
623,1436985165879,1.0
624,1436985165901,1.0
625,1436985165919,1.0
626,1436985165940,1.0
627,1436985165959,1.0
628,1436985165981,1.0
629,1436985166001,1.0
630,1436985166021,1.0
631,1436985166042,1.0
632,1436985166060,1.0
633,1436985166081,1.0
634,1436985166101,1.0
635,1436985166119,1.0
636,1436985166272,1.0
637,1436985166273,1.0
638,1436985166274,1.0
639,1436985166289,1.0
640,1436985166290,1.0
641,1436985166291,1.0
642,1436985166292,1.0
643,1436985166293,1.0
644,1436985166299,1.0
645,1436985166319,1.0
646,1436985166339,1.0
647,1436985166390,1.0
648,1436985166393,1.0
649,1436985166421,1.0
650,1436985166422,1.0
651,1436985166447,1.0
652,1436985166460,1.0
653,1436985166479,1.0
654,1436985166501,1.0
655,1436985166519,1.0
656,1436985166539,1.0
657,1436985166559,1.0
658,1436985166578,1.0
659,1436985166598,1.0
660,1436985166618,1.0
661,1436985166642,1.0
662,1436985166660,1.0
663,1436985166678,1.0
664,1436985166699,1.0
665,1436985166719,1.0
666,1436985166740,1.0
667,1436985166758,1.0
668,1436985166778,1.0
669,1436985166798,1.0
670,1436985166819,1.0
671,1436985166843,1.0
672,1436985166862,1.0
673,1436985166879,1.0
674,1436985166898,1.0
675,1436985166918,1.0
676,1436985166944,1.0
677,1436985166963,1.0
678,1436985166983,1.0
679,1436985167003,1.0
680,1436985167020,1.0
681,1436985167039,1.0
682,1436985167063,1.0
683,1436985167080,1.0
684,1436985167101,1.0
685,1436985167119,1.0
686,1436985167143,1.0
687,1436985167212,1.0
688,1436985167213,1.0
689,1436985167214,1.0
690,1436985167219,1.0
691,1436985167246,1.0
692,1436985167260,1.0
693,1436985167279,1.0
694,1436985167301,1.0
695,1436985167320,1.0
696,1436985167342,1.0
697,1436985167361,1.0
698,1436985167380,1.0
699,1436985167399,1.0
700,1436985167423,1.0
701,1436985167444,1.0
702,1436985167464,1.0
703,1436985167482,1.0
704,1436985167502,1.0
705,1436985167521,1.0
706,1436985167540,1.0
707,1436985167564,1.0
708,1436985167584,1.0
709,1436985167607,1.0
710,1436985167620,1.0
711,1436985167727,1.0
712,1436985167728,1.0
713,1436985167729,1.0
714,1436985167730,1.0
715,1436985167731,1.0
716,1436985167742,1.0
717,1436985167760,1.0
718,1436985167780,1.0
719,1436985167801,1.0
720,1436985167826,1.0
721,1436985167843,1.0
722,1436985167861,1.0
723,1436985167884,1.0
724,1436985167904,1.0
725,1436985167928,1.0
726,1436985167943,1.0
727,1436985167967,1.0
728,1436985167982,1.0
729,1436985168006,1.0
730,1436985168022,1.0
731,1436985168044,1.0
732,1436985168063,1.0
733,1436985168081,1.0
734,1436985168102,1.0
735,1436985168122,1.0
736,1436985168142,1.0
737,1436985168162,1.0
738,1436985168252,1.0
739,1436985168253,1.0
740,1436985168254,1.0
741,1436985168255,1.0
742,1436985168262,1.0
743,1436985168282,1.0
744,1436985168302,1.0
745,1436985168321,1.0
746,1436985168342,1.0
747,1436985168361,1.0
748,1436985168383,1.0
749,1436985168403,1.0
750,1436985168421,1.0
751,1436985168444,1.0
752,1436985168462,1.0
753,1436985168482,1.0
754,1436985168502,1.0
755,1436985168524,1.0
756,1436985168544,1.0
757,1436985168564,1.0
758,1436985168583,1.0
759,1436985168603,1.0
760,1436985168623,1.0
761,1436985168646,1.0
762,1436985168664,1.0
763,1436985168683,1.0
764,1436985168702,1.0
765,1436985168722,1.0
766,1436985168907,1.0
767,1436985168908,1.0
768,1436985168909,1.0
769,1436985168910,1.0
770,1436985168911,1.0
771,1436985168912,1.0
772,1436985168913,1.0
773,1436985168914,1.0
774,1436985168915,1.0
775,1436985168934,1.0
776,1436985168942,1.0
777,1436985168968,1.0
778,1436985168982,1.0
779,1436985169006,1.0
780,1436985169084,1.0
781,1436985169085,1.0
782,1436985169086,1.0
783,1436985169087,1.0
784,1436985169104,1.0
785,1436985169122,1.0
786,1436985169143,1.0
787,1436985169164,1.0
788,1436985169183,1.0
789,1436985169204,1.0
790,1436985169222,1.0
791,1436985169244,1.0
792,1436985169261,1.0
793,1436985169283,1.0
794,1436985169302,1.0
795,1436985169323,1.0
796,1436985169343,1.0
797,1436985169362,1.0
798,1436985169386,1.0
799,1436985169432,1.0
800,1436985169433,1.0
801,1436985169442,1.0
802,1436985169462,1.0
803,1436985169513,1.0
804,1436985169514,1.0
805,1436985169522,1.0
806,1436985169545,1.0
807,1436985169563,1.0
808,1436985169583,1.0
809,1436985169603,1.0
810,1436985169622,1.0
811,1436985169643,1.0
812,1436985169663,1.0
813,1436985169686,1.0
814,1436985169705,1.0
815,1436985169725,1.0
816,1436985169745,1.0
817,1436985169763,1.0
818,1436985169782,1.0
819,1436985169803,1.0
820,1436985169879,1.0
821,1436985169880,1.0
822,1436985169881,1.0
823,1436985169883,1.0
824,1436985169903,1.0
825,1436985169923,1.0
826,1436985169942,1.0
827,1436985169963,1.0
828,1436985169982,1.0
829,1436985170004,1.0
830,1436985170022,1.0
831,1436985170045,1.0
832,1436985170066,1.0
833,1436985170086,1.0
834,1436985170111,1.0
835,1436985170144,1.0
836,1436985170145,1.0
837,1436985170165,1.0
838,1436985170185,1.0
839,1436985170207,1.0
840,1436985170223,1.0
841,1436985170243,1.0
842,1436985170267,1.0
843,1436985170285,1.0
844,1436985170303,1.0
845,1436985170352,1.0
846,1436985170353,1.0
847,1436985170365,1.0
848,1436985170384,1.0
849,1436985170403,1.0
850,1436985170427,1.0
851,1436985170446,1.0
852,1436985170464,1.0
853,1436985170483,1.0
854,1436985170528,1.0
855,1436985170529,1.0
856,1436985170543,1.0
857,1436985170565,1.0
858,1436985170582,1.0
859,1436985170602,1.0
860,1436985170622,1.0
861,1436985170643,1.0
862,1436985170663,1.0
863,1436985170683,1.0
864,1436985170703,1.0
865,1436985170726,1.0
866,1436985170746,1.0
867,1436985170765,1.0
868,1436985170782,1.0
869,1436985170803,1.0
870,1436985170824,1.0
871,1436985170843,1.0
872,1436985170875,1.0
873,1436985170888,1.0
874,1436985170905,1.0
875,1436985170924,1.0
876,1436985170943,1.0
877,1436985170963,1.0
878,1436985170983,1.0
879,1436985171003,1.0
880,1436985171023,1.0
881,1436985171046,1.0
882,1436985171063,1.0
883,1436985171084,1.0
884,1436985171105,1.0
885,1436985171123,1.0
886,1436985171149,1.0
887,1436985171169,1.0
888,1436985171186,1.0
889,1436985171204,1.0
890,1436985171223,1.0
891,1436985171250,1.0
892,1436985171304,1.0
893,1436985171305,1.0
894,1436985171306,1.0
895,1436985171323,1.0
896,1436985171345,1.0
897,1436985171363,1.0
898,1436985171386,1.0
899,1436985171403,1.0
900,1436985171424,1.0
901,1436985171443,1.0
902,1436985171464,1.0
903,1436985171484,1.0
904,1436985171507,1.0
905,1436985171525,1.0
906,1436985171545,1.0
907,1436985171566,1.0
908,1436985171584,1.0
909,1436985171604,1.0
910,1436985171627,1.0
911,1436985171644,1.0
912,1436985171665,1.0
