id,attr_time,attr_light
1,1436985153428,0.0
2,1436985153445,0.0
3,1436985153466,0.0
4,1436985153485,0.0
5,1436985153505,0.0
6,1436985153525,0.0
7,1436985153547,0.0
8,1436985153569,0.0
9,1436985153587,0.0
10,1436985153607,0.0
11,1436985153625,0.0
12,1436985153646,0.0
13,1436985153668,0.0
14,1436985153688,0.0
15,1436985153705,0.0
16,1436985153726,0.0
17,1436985153748,0.0
18,1436985153768,0.0
19,1436985153785,0.0
20,1436985153807,0.0
21,1436985153826,0.0
22,1436985153846,0.0
23,1436985153865,0.0
24,1436985153886,0.0
25,1436985153906,0.0
26,1436985153926,0.0
27,1436985153946,0.0
28,1436985153969,0.0
29,1436985153986,0.0
30,1436985154006,0.0
31,1436985154025,0.0
32,1436985154047,0.0
33,1436985154071,0.0
34,1436985154130,0.0
35,1436985154131,0.0
36,1436985154132,0.0
37,1436985154155,0.0
38,1436985154165,0.0
39,1436985154191,0.0
40,1436985154205,0.0
41,1436985154225,0.0
42,1436985154246,0.0
43,1436985154267,0.0
44,1436985154287,0.0
45,1436985154306,0.0
46,1436985154326,0.0
47,1436985154346,0.0
48,1436985154369,0.0
49,1436985154386,0.0
50,1436985154409,0.0
51,1436985154427,0.0
52,1436985154446,0.0
53,1436985154469,0.0
54,1436985154489,0.0
55,1436985154506,0.0
56,1436985154529,0.0
57,1436985154548,0.0
58,1436985154567,0.0
59,1436985154589,0.0
60,1436985154609,0.0
61,1436985154627,0.0
62,1436985154648,0.0
63,1436985154669,0.0
64,1436985154689,0.0
65,1436985154708,0.0
66,1436985154729,0.0
67,1436985154748,0.0
68,1436985154768,0.0
69,1436985154787,0.0
70,1436985154852,0.0
71,1436985154853,0.0
72,1436985154854,0.0
73,1436985154876,0.0
74,1436985154886,0.0
75,1436985154908,0.0
76,1436985154928,0.0
77,1436985154946,0.0
78,1436985154966,0.0
79,1436985154986,0.0
80,1436985155011,0.0
81,1436985155030,0.0
82,1436985155047,0.0
83,1436985155066,0.0
84,1436985155090,0.0
85,1436985155110,0.0
86,1436985155128,0.0
87,1436985155147,0.0
88,1436985155167,0.0
89,1436985155189,0.0
90,1436985155210,0.0
91,1436985155229,0.0
92,1436985155249,0.0
93,1436985155271,0.0
94,1436985155286,0.0
95,1436985155309,0.0
96,1436985155329,0.0
97,1436985155367,0.0
98,1436985155368,0.0
99,1436985155403,0.0
100,1436985155407,0.0
101,1436985155427,0.0
102,1436985155447,0.0
103,1436985155467,0.0
104,1436985155487,0.0
105,1436985155507,0.0
106,1436985155527,0.0
107,1436985155549,0.0
108,1436985155574,0.0
109,1436985155587,0.0
110,1436985155607,0.0
111,1436985155627,0.0
112,1436985155647,0.0
113,1436985155667,0.0
114,1436985155701,0.0
115,1436985155707,0.0
116,1436985155741,0.0
117,1436985155747,0.0
118,1436985155773,0.0
119,1436985155798,0.0
120,1436985155806,0.0
121,1436985155826,0.0
122,1436985155846,0.0
123,1436985155871,0.0
124,1436985155890,0.0
125,1436985155908,0.0
126,1436985155927,0.0
127,1436985155949,0.0
128,1436985155971,0.0
129,1436985155991,0.0
130,1436985156010,0.0
131,1436985156028,0.0
132,1436985156047,0.0
133,1436985156070,0.0
134,1436985156087,0.0
135,1436985156108,0.0
136,1436985156127,0.0
137,1436985156148,0.0
138,1436985156169,0.0
139,1436985156191,0.0
140,1436985156210,0.0
141,1436985156227,0.0
142,1436985156247,0.0
143,1436985156267,0.0
144,1436985156288,0.0
145,1436985156343,0.0
146,1436985156344,0.0
147,1436985156355,0.0
148,1436985156369,0.0
149,1436985156388,0.0
150,1436985156408,0.0
151,1436985156427,0.0
152,1436985156451,0.0
153,1436985156467,0.0
154,1436985156491,0.0
155,1436985156509,0.0
156,1436985156528,0.0
157,1436985156554,0.0
158,1436985156571,0.0
159,1436985156593,0.0
160,1436985156610,0.0
161,1436985156628,0.0
162,1436985156651,0.0
163,1436985156673,0.0
164,1436985156690,0.0
165,1436985156710,0.0
166,1436985156731,0.0
167,1436985156749,0.0
168,1436985156768,0.0
169,1436985156788,0.0
170,1436985156810,0.0
171,1436985156831,0.0
172,1436985156852,0.0
173,1436985156871,0.0
174,1436985156890,0.0
175,1436985156911,0.0
176,1436985156936,0.0
177,1436985156948,0.0
178,1436985156968,0.0
179,1436985156988,0.0
180,1436985157009,0.0
181,1436985157028,0.0
182,1436985157066,0.0
183,1436985157070,0.0
184,1436985157088,0.0
185,1436985157108,0.0
186,1436985157131,0.0
187,1436985157149,0.0
188,1436985157169,0.0
189,1436985157190,0.0
190,1436985157208,0.0
191,1436985157232,0.0
192,1436985157253,0.0
193,1436985157269,0.0
194,1436985157292,0.0
195,1436985157311,0.0
196,1436985157332,0.0
197,1436985157352,0.0
198,1436985157371,0.0
199,1436985157392,0.0
200,1436985157411,0.0
201,1436985157432,0.0
202,1436985157452,0.0
203,1436985157472,0.0
204,1436985157489,0.0
205,1436985157512,0.0
206,1436985157531,0.0
207,1436985157552,0.0
208,1436985157572,0.0
209,1436985157589,0.0
210,1436985157611,0.0
211,1436985157630,0.0
212,1436985157651,0.0
213,1436985157674,0.0
214,1436985157693,0.0
215,1436985157711,0.0
216,1436985157730,0.0
217,1436985157749,0.0
218,1436985157802,0.0
219,1436985157803,0.0
220,1436985157818,0.0
221,1436985157829,0.0
222,1436985157852,0.0
223,1436985157871,0.0
224,1436985157891,0.0
225,1436985157911,0.0
226,1436985157929,0.0
227,1436985157951,0.0
228,1436985157970,0.0
229,1436985157991,0.0
230,1436985158009,0.0
231,1436985158033,0.0
232,1436985158051,0.0
233,1436985158072,0.0
234,1436985158092,0.0
235,1436985158113,0.0
236,1436985158132,0.0
237,1436985158153,0.0
238,1436985158173,0.0
239,1436985158193,0.0
240,1436985158211,0.0
241,1436985158232,0.0
242,1436985158251,0.0
243,1436985158269,0.0
244,1436985158292,0.0
245,1436985158314,0.0
246,1436985158334,0.0
247,1436985158354,0.0
248,1436985158373,0.0
249,1436985158392,0.0
250,1436985158411,0.0
251,1436985158431,0.0
252,1436985158458,0.0
253,1436985158515,0.0
254,1436985158516,0.0
255,1436985158517,0.0
256,1436985158533,0.0
257,1436985158551,0.0
258,1436985158571,0.0
259,1436985158590,0.0
260,1436985158611,0.0
261,1436985158630,0.0
262,1436985158653,0.0
263,1436985158670,0.0
264,1436985158691,0.0
265,1436985158719,0.0
266,1436985158731,0.0
267,1436985158753,0.0
268,1436985158773,0.0
269,1436985158793,0.0
270,1436985158813,0.0
271,1436985158830,0.0
272,1436985158853,0.0
273,1436985158873,0.0
274,1436985158893,0.0
275,1436985158913,0.0
276,1436985158931,0.0
277,1436985158951,0.0
278,1436985158973,0.0
279,1436985158993,0.0
280,1436985159012,0.0
281,1436985159032,0.0
282,1436985159052,0.0
283,1436985159074,0.0
284,1436985159095,0.0
285,1436985159114,0.0
286,1436985159134,0.0
287,1436985159152,0.0
288,1436985159172,0.0
289,1436985159193,0.0
290,1436985159211,0.0
291,1436985159231,0.0
292,1436985159288,0.0
293,1436985159289,0.0
294,1436985159304,0.0
295,1436985159312,0.0
296,1436985159331,0.0
297,1436985159353,0.0
298,1436985159370,0.0
299,1436985159395,0.0
300,1436985159411,0.0
301,1436985159431,0.0
302,1436985159452,0.0
303,1436985159471,0.0
304,1436985159491,0.0
305,1436985159514,0.0
306,1436985159534,0.0
307,1436985159553,0.0
308,1436985159573,0.0
309,1436985159591,0.0
310,1436985159612,0.0
311,1436985159631,0.0
312,1436985159652,0.0
313,1436985159673,0.0
314,1436985159697,0.0
315,1436985159715,0.0
316,1436985159765,0.0
317,1436985159766,0.0
318,1436985159778,0.0
319,1436985159802,0.0
320,1436985159814,0.0
321,1436985159832,0.0
322,1436985159851,0.0
323,1436985159875,0.0
324,1436985159897,0.0
325,1436985159917,0.0
326,1436985159934,0.0
327,1436985159958,0.0
328,1436985160017,0.0
329,1436985160018,0.0
330,1436985160019,0.0
331,1436985160044,0.0
332,1436985160062,0.0
333,1436985160073,0.0
334,1436985160133,0.0
335,1436985160134,0.0
336,1436985160135,0.0
337,1436985160168,0.0
338,1436985160177,0.0
339,1436985160194,0.0
340,1436985160229,0.0
341,1436985160236,0.0
342,1436985160258,0.0
343,1436985160272,0.0
344,1436985160295,0.0
345,1436985160313,0.0
346,1436985160332,0.0
347,1436985160351,0.0
348,1436985160373,0.0
349,1436985160393,0.0
350,1436985160416,0.0
351,1436985160436,0.0
352,1436985160455,0.0
353,1436985160473,0.0
354,1436985160491,0.0
355,1436985160513,0.0
356,1436985160533,0.0
357,1436985160555,0.0
358,1436985160577,0.0
359,1436985160592,0.0
360,1436985160613,0.0
361,1436985160633,0.0
362,1436985160653,0.0
363,1436985160673,0.0
364,1436985160693,0.0
365,1436985160712,0.0
366,1436985160732,0.0
367,1436985160815,0.0
368,1436985160816,0.0
369,1436985160817,0.0
370,1436985160818,0.0
371,1436985160835,0.0
372,1436985160987,0.0
373,1436985160988,0.0
374,1436985160989,0.0
375,1436985160990,0.0
376,1436985160991,0.0
377,1436985160992,0.0
378,1436985160993,0.0
379,1436985161005,0.0
380,1436985161037,0.0
381,1436985161038,0.0
382,1436985161053,0.0
383,1436985161074,0.0
384,1436985161094,0.0
385,1436985161112,0.0
386,1436985161134,0.0
387,1436985161156,0.0
388,1436985161177,0.0
389,1436985161203,0.0
390,1436985161214,0.0
391,1436985161233,0.0
392,1436985161253,0.0
393,1436985161274,0.0
394,1436985161297,0.0
395,1436985161314,0.0
396,1436985161333,0.0
397,1436985161352,0.0
398,1436985161373,0.0
399,1436985161393,0.0
400,1436985161412,0.0
401,1436985161433,0.0
402,1436985161496,0.0
403,1436985161497,0.0
404,1436985161498,0.0
405,1436985161517,0.0
406,1436985161533,0.0
407,1436985161553,0.0
408,1436985161572,0.0
409,1436985161593,0.0
410,1436985161613,0.0
411,1436985161634,0.0
412,1436985161654,0.0
413,1436985161674,0.0
414,1436985161696,0.0
415,1436985161716,0.0
416,1436985161734,0.0
417,1436985161753,0.0
418,1436985161776,0.0
419,1436985161796,0.0
420,1436985161815,0.0
421,1436985161835,0.0
422,1436985161856,0.0
423,1436985161876,0.0
424,1436985161895,0.0
425,1436985161914,0.0
426,1436985161934,0.0
427,1436985161953,0.0
428,1436985161973,0.0
429,1436985161993,0.0
430,1436985162018,0.0
431,1436985162034,0.0
432,1436985162059,0.0
433,1436985162076,0.0
434,1436985162093,0.0
435,1436985162113,0.0
436,1436985162135,0.0
437,1436985162155,0.0
438,1436985162175,0.0
439,1436985162247,0.0
440,1436985162254,0.0
441,1436985162255,0.0
442,1436985162256,0.0
443,1436985162275,0.0
444,1436985162293,0.0
445,1436985162314,0.0
446,1436985162335,0.0
447,1436985162353,0.0
448,1436985162373,0.0
449,1436985162393,0.0
450,1436985162414,0.0
451,1436985162433,0.0
452,1436985162455,0.0
453,1436985162477,0.0
454,1436985162497,0.0
455,1436985162517,0.0
456,1436985162537,0.0
457,1436985162555,0.0
458,1436985162576,0.0
459,1436985162597,0.0
460,1436985162617,0.0
461,1436985162637,0.0
462,1436985162657,0.0
463,1436985162676,0.0
464,1436985162697,0.0
465,1436985162717,0.0
466,1436985162737,0.0
467,1436985162756,0.0
468,1436985162777,0.0
469,1436985162797,0.0
470,1436985162817,0.0
471,1436985162837,0.0
472,1436985162854,0.0
473,1436985162876,0.0
474,1436985162896,0.0
475,1436985162914,0.0
476,1436985162937,0.0
477,1436985163004,0.0
478,1436985163005,0.0
479,1436985163006,0.0
480,1436985163014,0.0
481,1436985163034,0.0
482,1436985163055,0.0
483,1436985163074,0.0
484,1436985163095,0.0
485,1436985163114,0.0
486,1436985163135,0.0
487,1436985163161,0.0
488,1436985163175,0.0
489,1436985163195,0.0
490,1436985163218,0.0
491,1436985163237,0.0
492,1436985163258,0.0
493,1436985163276,0.0
494,1436985163298,0.0
495,1436985163315,0.0
496,1436985163336,0.0
497,1436985163358,0.0
498,1436985163376,0.0
499,1436985163397,0.0
500,1436985163418,0.0
501,1436985163438,0.0
502,1436985163458,0.0
503,1436985163476,0.0
504,1436985163498,0.0
505,1436985163517,0.0
506,1436985163537,0.0
507,1436985163558,0.0
508,1436985163575,0.0
509,1436985163596,0.0
510,1436985163615,0.0
511,1436985163635,0.0
512,1436985163654,0.0
513,1436985163679,0.0
514,1436985163732,0.0
515,1436985163744,0.0
516,1436985163745,0.0
517,1436985163755,0.0
518,1436985163775,0.0
519,1436985163795,0.0
520,1436985163815,0.0
521,1436985163836,0.0
522,1436985163855,0.0
523,1436985163875,0.0
524,1436985163896,0.0
525,1436985163917,0.0
526,1436985163936,0.0
527,1436985163956,0.0
528,1436985163977,0.0
529,1436985163996,0.0
530,1436985164018,0.0
531,1436985164038,0.0
532,1436985164058,0.0
533,1436985164078,0.0
534,1436985164096,0.0
535,1436985164118,0.0
536,1436985164136,0.0
537,1436985164156,0.0
538,1436985164180,0.0
539,1436985164195,0.0
540,1436985164216,0.0
541,1436985164238,0.0
542,1436985164257,0.0
543,1436985164277,0.0
544,1436985164297,0.0
545,1436985164318,0.0
546,1436985164339,0.0
547,1436985164355,0.0
548,1436985164377,0.0
549,1436985164401,0.0
550,1436985164458,0.0
551,1436985164469,0.0
552,1436985164470,0.0
553,1436985164476,0.0
554,1436985164495,0.0
555,1436985164519,0.0
556,1436985164535,0.0
557,1436985164556,0.0
558,1436985164575,0.0
559,1436985164598,0.0
560,1436985164617,0.0
561,1436985164639,0.0
562,1436985164656,0.0
563,1436985164676,0.0
564,1436985164701,0.0
565,1436985164737,0.0
566,1436985164738,0.0
567,1436985164793,0.0
568,1436985164802,0.0
569,1436985164803,0.0
570,1436985164825,0.0
571,1436985164836,0.0
572,1436985164857,0.0
573,1436985164878,0.0
574,1436985164895,0.0
575,1436985164915,0.0
576,1436985164935,0.0
577,1436985164955,0.0
578,1436985164975,0.0
579,1436985164997,0.0
580,1436985165020,0.0
581,1436985165038,0.0
582,1436985165058,0.0
583,1436985165076,0.0
584,1436985165102,0.0
585,1436985165130,0.0
586,1436985165135,0.0
587,1436985165156,0.0
588,1436985165180,0.0
589,1436985165196,0.0
590,1436985165215,0.0
591,1436985165236,0.0
592,1436985165256,0.0
593,1436985165277,0.0
594,1436985165300,0.0
595,1436985165320,0.0
596,1436985165335,0.0
597,1436985165358,0.0
598,1436985165379,0.0
599,1436985165401,0.0
600,1436985165418,0.0
601,1436985165440,0.0
602,1436985165457,0.0
603,1436985165478,0.0
604,1436985165496,0.0
605,1436985165518,0.0
606,1436985165540,0.0
607,1436985165559,0.0
608,1436985165580,0.0
609,1436985165601,0.0
610,1436985165620,0.0
611,1436985165638,0.0
612,1436985165659,0.0
613,1436985165681,0.0
614,1436985165700,0.0
615,1436985165720,0.0
616,1436985165738,0.0
617,1436985165758,0.0
618,1436985165803,0.0
619,1436985165804,0.0
620,1436985165821,0.0
621,1436985165837,0.0
622,1436985165860,0.0
623,1436985165881,0.0
624,1436985165896,0.0
625,1436985165918,0.0
626,1436985165937,0.0
627,1436985165957,0.0
628,1436985165978,0.0
629,1436985166001,0.0
630,1436985166017,0.0
631,1436985166040,0.0
632,1436985166059,0.0
633,1436985166094,0.0
634,1436985166123,0.0
635,1436985166124,0.0
636,1436985166137,0.0
637,1436985166157,0.0
638,1436985166177,0.0
639,1436985166197,0.0
640,1436985166217,0.0
641,1436985166238,0.0
642,1436985166257,0.0
643,1436985166277,0.0
644,1436985166297,0.0
645,1436985166317,0.0
646,1436985166337,0.0
647,1436985166357,0.0
648,1436985166377,0.0
649,1436985166397,0.0
650,1436985166417,0.0
651,1436985166437,0.0
652,1436985166474,0.0
653,1436985166480,0.0
654,1436985166501,0.0
655,1436985166518,0.0
656,1436985166537,0.0
657,1436985166557,0.0
658,1436985166577,0.0
659,1436985166597,0.0
660,1436985166617,0.0
661,1436985166639,0.0
662,1436985166658,0.0
663,1436985166679,0.0
664,1436985166698,0.0
665,1436985166718,0.0
666,1436985166738,0.0
667,1436985166761,0.0
668,1436985166780,0.0
669,1436985166801,0.0
670,1436985166820,0.0
671,1436985166842,0.0
672,1436985166860,0.0
673,1436985166879,0.0
674,1436985166898,0.0
675,1436985166919,0.0
676,1436985166941,0.0
677,1436985166959,0.0
678,1436985166981,0.0
679,1436985167001,0.0
680,1436985167021,0.0
681,1436985167041,0.0
682,1436985167061,0.0
683,1436985167081,0.0
684,1436985167101,0.0
685,1436985167121,0.0
686,1436985167141,0.0
687,1436985167160,0.0
688,1436985167190,0.0
689,1436985167198,0.0
690,1436985167246,0.0
691,1436985167247,0.0
692,1436985167264,0.0
693,1436985167278,0.0
694,1436985167298,0.0
695,1436985167319,0.0
696,1436985167338,0.0
697,1436985167362,0.0
698,1436985167378,0.0
699,1436985167402,0.0
700,1436985167422,0.0
701,1436985167439,0.0
702,1436985167458,0.0
703,1436985167481,0.0
704,1436985167502,0.0
705,1436985167522,0.0
706,1436985167542,0.0
707,1436985167562,0.0
708,1436985167578,0.0
709,1436985167601,0.0
710,1436985167619,0.0
711,1436985167643,0.0
712,1436985167658,0.0
713,1436985167682,0.0
714,1436985167699,0.0
715,1436985167719,0.0
716,1436985167738,0.0
717,1436985167761,0.0
718,1436985167785,0.0
719,1436985167801,0.0
720,1436985167822,0.0
721,1436985167839,0.0
722,1436985167859,0.0
723,1436985167879,0.0
724,1436985167908,0.0
725,1436985167919,0.0
726,1436985168002,0.0
727,1436985168003,0.0
728,1436985168004,0.0
729,1436985168005,0.0
730,1436985168022,0.0
731,1436985168041,0.0
732,1436985168063,0.0
733,1436985168079,0.0
734,1436985168099,0.0
735,1436985168119,0.0
736,1436985168139,0.0
737,1436985168164,0.0
738,1436985168179,0.0
739,1436985168200,0.0
740,1436985168222,0.0
741,1436985168242,0.0
742,1436985168264,0.0
743,1436985168282,0.0
744,1436985168299,0.0
745,1436985168322,0.0
746,1436985168342,0.0
747,1436985168362,0.0
748,1436985168382,0.0
749,1436985168399,0.0
750,1436985168422,0.0
751,1436985168443,0.0
752,1436985168462,0.0
753,1436985168482,0.0
754,1436985168502,0.0
755,1436985168522,0.0
756,1436985168543,0.0
757,1436985168563,0.0
758,1436985168586,0.0
759,1436985168608,0.0
760,1436985168624,0.0
761,1436985168641,0.0
762,1436985168743,0.0
763,1436985168744,0.0
764,1436985168745,0.0
765,1436985168746,0.0
766,1436985168747,0.0
767,1436985168762,0.0
768,1436985168783,0.0
769,1436985168799,0.0
770,1436985168820,0.0
771,1436985168841,0.0
772,1436985168861,0.0
773,1436985168881,0.0
774,1436985168902,0.0
775,1436985168923,0.0
776,1436985168940,0.0
777,1436985168963,0.0
778,1436985168983,0.0
779,1436985169003,0.0
780,1436985169023,0.0
781,1436985169043,0.0
782,1436985169063,0.0
783,1436985169083,0.0
784,1436985169103,0.0
785,1436985169121,0.0
786,1436985169143,0.0
787,1436985169163,0.0
788,1436985169186,0.0
789,1436985169203,0.0
790,1436985169220,0.0
791,1436985169240,0.0
792,1436985169261,0.0
793,1436985169281,0.0
794,1436985169306,0.0
795,1436985169322,0.0
796,1436985169346,0.0
797,1436985169363,0.0
798,1436985169381,0.0
799,1436985169438,0.0
800,1436985169450,0.0
801,1436985169451,0.0
802,1436985169460,0.0
803,1436985169486,0.0
804,1436985169502,0.0
805,1436985169522,0.0
806,1436985169543,0.0
807,1436985169561,0.0
808,1436985169585,0.0
809,1436985169602,0.0
810,1436985169624,0.0
811,1436985169644,0.0
812,1436985169663,0.0
813,1436985169682,0.0
814,1436985169701,0.0
815,1436985169721,0.0
816,1436985169921,0.0
817,1436985169922,0.0
818,1436985169923,0.0
819,1436985169924,0.0
820,1436985169925,0.0
821,1436985169926,0.0
822,1436985169927,0.0
823,1436985169928,0.0
824,1436985169929,0.0
825,1436985169930,0.0
826,1436985169941,0.0
827,1436985169961,0.0
828,1436985169981,0.0
829,1436985170006,0.0
830,1436985170024,0.0
831,1436985170041,0.0
832,1436985170061,0.0
833,1436985170081,0.0
834,1436985170106,0.0
835,1436985170138,0.0
836,1436985170143,0.0
837,1436985170163,0.0
838,1436985170181,0.0
839,1436985170201,0.0
840,1436985170222,0.0
841,1436985170241,0.0
842,1436985170260,0.0
843,1436985170282,0.0
844,1436985170300,0.0
845,1436985170320,0.0
846,1436985170343,0.0
847,1436985170361,0.0
848,1436985170385,0.0
849,1436985170405,0.0
850,1436985170425,0.0
851,1436985170445,0.0
852,1436985170466,0.0
853,1436985170482,0.0
854,1436985170505,0.0
855,1436985170523,0.0
856,1436985170543,0.0
857,1436985170562,0.0
858,1436985170585,0.0
859,1436985170605,0.0
860,1436985170625,0.0
861,1436985170645,0.0
862,1436985170662,0.0
863,1436985170682,0.0
864,1436985170703,0.0
865,1436985170722,0.0
866,1436985170745,0.0
867,1436985170782,0.0
868,1436985170783,0.0
869,1436985170801,0.0
870,1436985170821,0.0
871,1436985170841,0.0
872,1436985170862,0.0
873,1436985170882,0.0
874,1436985170904,0.0
875,1436985170923,0.0
876,1436985170945,0.0
877,1436985170965,0.0
878,1436985170984,0.0
879,1436985171003,0.0
880,1436985171025,0.0
881,1436985171045,0.0
882,1436985171065,0.0
883,1436985171082,0.0
884,1436985171106,0.0
885,1436985171126,0.0
886,1436985171144,0.0
887,1436985171166,0.0
888,1436985171187,0.0
889,1436985171208,0.0
890,1436985171228,0.0
891,1436985171245,0.0
892,1436985171262,0.0
893,1436985171282,0.0
894,1436985171302,0.0
895,1436985171324,0.0
896,1436985171349,0.0
897,1436985171369,0.0
898,1436985171386,0.0
899,1436985171408,0.0
900,1436985171467,0.0
901,1436985171477,0.0
902,1436985171478,0.0
903,1436985171485,0.0
904,1436985171505,0.0
905,1436985171525,0.0
906,1436985171542,0.0
907,1436985171562,0.0
908,1436985171598,0.0
909,1436985171602,0.0
910,1436985171623,0.0
911,1436985171643,0.0
912,1436985171665,0.0
