id,attr_time,attr_db
1,1437145182253,52.2560608790214
2,1437145182994,59.4376654462106
3,1437145183666,54.4638117574777
4,1437145184304,56.3547436929624
5,1437145185014,47.9167278502325
6,1437145185608,45.0035722666942
7,1437145186211,44.2635979273631
8,1437145186932,45.733429882274
9,1437145187505,43.7016161202487
10,1437145188149,45.0680989503974
11,1437145188873,47.5837888641854
12,1437145189564,44.0423327734244
13,1437145190273,45.3135345690126
14,1437145190990,46.1336154232672
15,1437145191571,48.9269163847271
16,1437145192213,46.2384627668499
17,1437145192940,46.036516372197
18,1437145193695,46.5071409809042
19,1437145194362,68.3111839832387
20,1437145195034,54.7371858517297
21,1437145195713,60.5093130808263
22,1437145196496,61.9232104077647
23,1437145197160,42.2470442206197
24,1437145197914,42.9047814527719
25,1437145198665,44.1599519849457
26,1437145199430,51.6521363413958
27,1437145200175,44.5026448496383
28,1437145200908,43.0147925734177
29,1437145201643,42.9619394529659
30,1437145202314,42.3551777552946
31,1437145202933,46.5586874774189
32,1437145203695,44.602499163282
33,1437145204427,41.8061793569291
34,1437145205142,42.4010364784762
35,1437145205885,41.4785441195632
36,1437145206810,41.219483867542
37,1437145207371,40.8487429932272
38,1437145207949,41.4936606804038
39,1437145208565,42.5741129519315
40,1437145209400,41.5090223007681
41,1437145210196,40.1097066625052
42,1437145210823,41.3612883338425
43,1437145211570,43.9739485870276
44,1437145212280,42.8673558220087
45,1437145212897,71.5196074520645
46,1437145213565,43.529576386155
47,1437145214417,42.7545521094057
48,1437145215155,52.2088934272434
49,1437145215887,60.8589084431024
50,1437145216639,42.5220723307453
51,1437145217414,40.5052109232411
52,1437145218164,41.4340516727195
53,1437145218918,41.7618969067364
54,1437145219650,42.4020053361423
55,1437145220365,40.3623886043804
56,1437145221042,41.9871277855413
57,1437145222515,41.3221430905979
58,1437145223188,41.9773747869497
59,1437145223912,47.3373520705503
60,1437145224656,56.3390607961011
61,1437145225379,43.0721041242541
62,1437145226096,44.667664845624
63,1437145226821,42.8645953466278
64,1437145227546,42.9397147587563
65,1437145228270,41.1085426856144
66,1437145228999,49.8627186791009
67,1437145229705,46.2375569654118
68,1437145230392,43.0373097989251
69,1437145231056,43.7045652798679
70,1437145231729,42.8752441366731
71,1437145232489,42.6340639043831
72,1437145233296,43.471201324905
73,1437145234017,43.483715196974
74,1437145234739,45.1968418113509
75,1437145235455,44.0215900126521
76,1437145236111,43.6164281228356
77,1437145236799,45.1808480579543
78,1437145237577,43.9761198162465
79,1437145238319,43.7546156865073
80,1437145239061,42.2323080309033
81,1437145239816,54.9184893964635
82,1437145240550,55.0102098663541
83,1437145241276,44.3154741915648
84,1437145241987,44.0048303624695
85,1437145242667,41.2613681979283
86,1437145243322,42.9937195668185
87,1437145244081,42.1172441836382
88,1437145244743,41.8930582021028
89,1437145245405,42.1752524075962
90,1437145246110,41.6192655057528
91,1437145246829,40.6546925808506
92,1437145247553,41.4117401885735
93,1437145248254,42.9113291413207
94,1437145248908,46.7962999515279
95,1437145249630,40.5777666629748
96,1437145251445,40.5459211972364
97,1437145252175,41.9088045203406
98,1437145252891,41.7398380872432
99,1437145253605,40.8084160366001
100,1437145254258,41.0355945585386
101,1437145254856,39.828100556691
102,1437145255455,42.1165215955046
103,1437145256139,43.3655620397489
104,1437145256874,42.0294030816979
105,1437145257605,42.6457064106722
106,1437145258294,42.8353148131407
107,1437145259819,41.5085855943407
108,1437145260535,41.6750958601922
109,1437145261248,43.9068882914121
110,1437145261976,42.8322086751851
111,1437145262719,41.8954269185004
112,1437145263435,41.4364453295574
113,1437145264059,40.871587675724
114,1437145264719,41.725698953995
115,1437145265437,45.3659578764344
116,1437145266145,43.1343075850516
117,1437145266864,45.9894170581687
118,1437145267591,40.8452210573809
119,1437145268345,43.3179655904644
120,1437145269023,43.2493565442623
121,1437145270343,42.5665988358537
122,1437145271101,41.6511717835024
123,1437145271749,41.8167060240744
124,1437145272461,39.7751331922557
125,1437145273187,41.9704889230618
126,1437145273849,42.9978161364475
127,1437145274480,44.6264035371238
128,1437145275163,43.2367894460222
129,1437145275896,43.3547227398963
130,1437145276635,43.5690563152647
131,1437145277393,44.0385696929779
132,1437145278130,45.7507160792124
133,1437145278883,43.6209347624643
134,1437145279586,44.6821987445262
135,1437145280337,46.0933440201627
136,1437145281059,44.3183304886667
137,1437145281810,43.6004168211424
138,1437145282545,42.6752291176447
139,1437145283276,43.4675253122679
140,1437145283997,42.5620898050485
141,1437145284665,43.5348063975401
142,1437145285402,44.6776161564603
143,1437145286131,44.2203542281005
144,1437145286909,43.7878378241304
145,1437145287641,42.5979833707751
146,1437145288391,43.3375064843601
147,1437145289124,43.9482661788531
148,1437145289885,43.3134193761277
149,1437145290643,44.0328331202393
150,1437145291340,41.5633316974158
151,1437145291986,44.0901531400731
152,1437145292697,42.0248545588889
153,1437145293428,42.4541122108107
154,1437145294152,44.883454432483
155,1437145294890,42.8647506574411
156,1437145295555,46.2175475069003
157,1437145296291,44.2997386189512
158,1437145297017,42.5965062636516
159,1437145297739,42.2728147162596
160,1437145298443,42.1071791764013
161,1437145299138,41.9566306592079
162,1437145299742,42.0577021045548
163,1437145300451,43.3255084458476
164,1437145301193,42.0982314146456
165,1437145301940,41.7468122231234
166,1437145302816,43.1371779518508
167,1437145303485,41.9599225075626
168,1437145304297,43.0533340118848
169,1437145304957,41.7672355151098
170,1437145305683,43.8816404975021
171,1437145306463,42.0913413647732
172,1437145307194,43.3292909050735
173,1437145307932,43.2636758239266
174,1437145308665,42.6240049348965
175,1437145309436,42.8749191623042
176,1437145310177,41.0554354384922
177,1437145310850,42.0113925266942
178,1437145311587,42.4243750770235
179,1437145312323,41.6041991746176
180,1437145313060,43.6729001889194
181,1437145313747,45.0231006498121
182,1437145314449,44.5322649376433
183,1437145315158,42.7832991891625
184,1437145315858,43.2095791458715
185,1437145316577,43.6665576884078
186,1437145317310,44.8004571614639
187,1437145318034,45.3807251685096
188,1437145318759,44.594911437222
189,1437145319496,43.5251406516253
190,1437145320204,45.0083121989614
191,1437145320902,44.6994067216326
192,1437145321574,46.6850667187478
193,1437145322320,44.7524577628266
194,1437145323038,43.318263922046
195,1437145323754,42.9380090697972
196,1437145324474,46.0429249311186
197,1437145325157,43.6724740152681
198,1437145325790,41.1466928598098
199,1437145326511,42.9655496094967
200,1437145327237,42.9714537695833
201,1437145327964,42.1604671759085
202,1437145328709,42.2642217269256
203,1437145329442,41.3395305578422
204,1437145330144,40.1067326827318
205,1437145330855,41.4514623518193
206,1437145331547,40.4687780838951
207,1437145332135,40.8998725330198
208,1437145332776,42.4035817363321
209,1437145333507,40.7343191385317
210,1437145334229,41.4179486106163
211,1437145334957,41.283292137798
212,1437145335693,42.1576565391705
213,1437145336459,42.9148859867869
214,1437145337118,41.8620581540375
215,1437145337848,41.8683364347632
216,1437145338599,41.2621002552013
217,1437145339339,42.2642196427508
218,1437145340061,49.2231778377465
219,1437145340774,40.1571046768368
220,1437145341473,45.8151734073221
221,1437145342153,42.2625181708647
222,1437145342860,40.8577195668897
223,1437145343627,42.294019175788
224,1437145344335,40.8219215555552
225,1437145345010,42.0217701930553
226,1437145345683,41.3083726102257
227,1437145346410,40.3304378499595
228,1437145347139,41.5365518313754
229,1437145347858,41.7276322607706
230,1437145348575,41.1908931791939
231,1437145349350,40.7608347688934
232,1437145350059,41.2157312001747
233,1437145350796,40.053478755527
234,1437145351532,42.3479752490758
235,1437145352210,42.9181613864359
236,1437145352914,41.824166405751
237,1437145353586,41.7758052881826
238,1437145354370,41.8292649808926
239,1437145355089,41.5851209851168
240,1437145355767,40.3511587117353
241,1437145356492,40.9909494416066
242,1437145357168,41.4383571806566
243,1437145357893,43.0967275470816
244,1437145358608,43.5969974724489
245,1437145359382,41.436464877766
246,1437145360126,41.6491306034566
247,1437145360856,43.7976826280214
248,1437145361524,44.2903959037132
249,1437145362137,43.3715014386052
250,1437145362817,42.8981168824082
251,1437145363559,43.6904395282908
252,1437145364395,44.4808328186683
253,1437145365099,46.3886587744392
254,1437145365792,40.0182021105478
255,1437145366527,42.8689766032669
256,1437145367258,42.0019486034912
257,1437145367981,41.3207639624154
258,1437145368710,44.1546774877576
259,1437145369443,42.3582302379087
260,1437145370189,41.6648534157808
261,1437145370929,42.8272520420872
262,1437145371642,41.6328343081625
263,1437145372312,40.7427606896579
264,1437145372999,44.0534827252637
265,1437145373769,41.3257991863092
266,1437145374461,41.6606913083114
267,1437145375201,43.1165455244843
268,1437145375906,42.468589298755
269,1437145376606,44.4409022033484
270,1437145377327,46.413268627989
271,1437145378061,45.7099654738437
272,1437145378801,43.5099175202914
273,1437145379576,43.9536057416469
274,1437145380321,44.3750108126684
275,1437145381049,42.2544625351546
276,1437145381771,41.1530421708859
277,1437145382442,43.2066544476689
278,1437145383176,42.4680992975036
279,1437145383895,44.1152166480284
280,1437145384646,42.1266661123655
281,1437145385411,43.7827360941053
282,1437145386001,41.4096057803999
283,1437145386676,41.456271404585
284,1437145387390,41.6087475785843
285,1437145388117,42.0798260245732
286,1437145388902,43.6099039458253
287,1437145389624,45.5740229997255
288,1437145390334,44.512035391706
289,1437145391067,43.103884542183
290,1437145391777,41.2923254730805
291,1437145392509,43.4951152239868
292,1437145393203,42.8836908465729
293,1437145393882,42.8773064784399
294,1437145394626,43.1072707747847
295,1437145395373,42.8329277162918
296,1437145396099,43.6825428753899
297,1437145396835,46.3033658188052
298,1437145397566,44.1745516803479
299,1437145398311,42.6929806318374
300,1437145399089,44.3164911008029
301,1437145399797,43.7240259626508
302,1437145400487,43.7627953563683
303,1437145401216,45.3402521012142
304,1437145401954,43.8198130986405
305,1437145402661,46.9807674629066
306,1437145403232,42.3256093826464
307,1437145403956,43.4300108192575
308,1437145404662,45.7470234320804
309,1437145405414,43.8988939528665
310,1437145406176,44.2953567514204
311,1437145406896,43.1791209808078
312,1437145407635,44.0175919688832
313,1437145408397,43.9762481960361
314,1437145409136,44.0392538137313
315,1437145409858,44.1341754387835
316,1437145410588,44.5570387667782
317,1437145411319,42.1442946860847
318,1437145412055,41.8762924917677
319,1437145412731,40.4823418883638
320,1437145413385,41.5969152025831
321,1437145414087,49.40013032531
322,1437145414768,43.5968650033637
323,1437145415493,41.7010709470891
324,1437145416229,41.697752332191
325,1437145416987,54.1557549076043
326,1437145417671,42.4695847138544
327,1437145418406,41.915640427672
328,1437145419122,42.7600010776722
329,1437145419824,41.3708622215071
330,1437145420548,41.6112316956669
331,1437145421268,41.6734781378943
332,1437145421995,39.5981084802588
333,1437145422684,40.3145852388232
334,1437145423299,38.5997010904769
335,1437145423978,38.5679079379736
336,1437145424725,41.4448382707775
337,1437145425375,41.2296709714057
338,1437145426083,40.6061284748063
339,1437145426814,41.9599036196601
340,1437145427526,42.2195343713585
341,1437145428219,44.5907699406671
342,1437145428885,45.7128967068294
343,1437145429657,42.0408712625618
344,1437145430383,43.7914510909786
345,1437145431143,43.9588328737462
346,1437145431883,42.7568159711707
347,1437145432564,42.3278288943621
348,1437145433214,39.9327155599245
349,1437145433898,41.1978957545969
350,1437145434683,42.169924304934
351,1437145435425,41.6146025509993
352,1437145436149,41.655557054182
353,1437145436871,41.6461390660129
354,1437145438798,41.3599251703972
355,1437145439542,42.143310138348
356,1437145440226,43.4769180676125
357,1437145440958,41.6601661985275
358,1437145441687,40.3996869426377
359,1437145442419,40.197361175588
360,1437145443125,42.3766148742689
361,1437145443854,41.4707133083224
362,1437145444572,43.3964838042743
363,1437145445335,42.018386024078
364,1437145446062,43.5180969341191
365,1437145446805,42.769564812591
366,1437145447510,42.2151836807021
367,1437145448235,43.7680928528783
368,1437145448911,43.1036336725862
369,1437145449600,43.5464408314058
370,1437145450268,43.997738165891
371,1437145450996,43.123757300387
372,1437145451730,44.0541021475909
373,1437145452462,43.8264583738318
374,1437145453189,43.5579933749981
375,1437145453946,43.7596382880813
376,1437145455468,46.5100943506118
377,1437145456200,43.8548169843593
378,1437145456923,45.251384724987
379,1437145457645,45.8874836208238
380,1437145458447,45.057287229594
381,1437145459225,43.7295029286091
382,1437145459945,44.0870953467598
383,1437145460698,45.1965126027622
384,1437145461426,42.5143202920968
385,1437145462151,42.865763658481
386,1437145462883,44.0697488330851
387,1437145463609,43.2696987484333
388,1437145464321,42.2294643695598
389,1437145465033,45.8917582335926
390,1437145465751,46.5018939793798
391,1437145466457,40.8144879410084
392,1437145468023,43.6820618414667
393,1437145468779,43.6152153102192
394,1437145469514,43.28569533131
395,1437145470197,42.8704063019366
396,1437145470957,43.8036390877809
397,1437145471662,42.5101256398969
398,1437145472387,44.190365765074
399,1437145473115,42.3681878531249
400,1437145473865,42.2112522450103
401,1437145474554,41.7015453864988
402,1437145475176,42.154535115593
403,1437145475931,41.0922051546465
404,1437145476657,42.0650884983014
405,1437145477428,41.8792739145818
406,1437145478148,42.285299713871
407,1437145478878,42.9545538731472
408,1437145479705,43.3352983661341
409,1437145480499,41.9089874654121
410,1437145481232,42.2027503961431
411,1437145481957,42.8643802074413
412,1437145482682,43.3152455286384
413,1437145483440,42.0778883681702
414,1437145484203,42.7434551088745
415,1437145484908,43.3048309220293
416,1437145485654,41.8147120319017
417,1437145486413,43.8711971466343
418,1437145487159,41.2364080566108
419,1437145487874,41.0242090670441
420,1437145488585,42.1529148136509
421,1437145489382,41.2460388958513
422,1437145490423,39.4240967056805
423,1437145491107,42.3444228244368
424,1437145491858,41.6399983833898
425,1437145492591,41.3022081496353
426,1437145493313,41.8836615699209
427,1437145494063,41.6298144396347
428,1437145494740,41.6469495691345
429,1437145495452,42.1890922467999
430,1437145496169,42.1501412677707
431,1437145496902,41.9298497328627
432,1437145497661,42.4839522154442
433,1437145498389,41.2718031514989
434,1437145499114,42.0348392989456
435,1437145499832,41.7734470367205
436,1437145500510,41.7994261439446
437,1437145501111,43.9305815014635
438,1437145501818,45.1947507415572
439,1437145502549,41.0480000429845
440,1437145503288,45.6101402623369
441,1437145504005,43.3074769427235
442,1437145504758,41.8580142408317
443,1437145505435,42.3589137627146
444,1437145506070,44.3371221680661
445,1437145506777,41.7311938576699
446,1437145507481,42.9703559185114
447,1437145508223,43.904515865975
448,1437145508942,41.9837610811026
449,1437145509671,41.7835113236155
450,1437145510415,42.0037374389676
451,1437145511128,40.6272439939625
452,1437145511838,41.0629890264157
453,1437145512576,41.8990835839456
454,1437145513306,41.3430994646273
455,1437145514035,41.9299515833271
456,1437145514757,42.2060816847362
457,1437145515403,41.258872974107
458,1437145516128,41.8635352943223
459,1437145516866,42.4752273576194
460,1437145517618,42.0388652954762
461,1437145518383,42.8228052358829
462,1437145519089,41.318409343272
463,1437145519802,42.1575777321212
464,1437145520512,42.6043210337275
465,1437145521275,41.7332262894779
466,1437145522001,41.5198198219289
467,1437145522745,41.8684977047462
468,1437145523473,41.4975028704922
469,1437145524186,41.8268403012986
470,1437145524903,41.3775924978672
471,1437145525595,51.026981418535
472,1437145526248,42.5050614885561
473,1437145526994,41.6866449685033
474,1437145527716,42.7315986243453
475,1437145528437,43.1221386087624
476,1437145529153,43.7155890044808
477,1437145529884,46.5029048329441
478,1437145530636,45.9904765855351
479,1437145531414,47.5361689410741
480,1437145532136,47.0041763582986
481,1437145532855,44.1519835966393
482,1437145533604,43.1068705131872
483,1437145534364,42.7868324546365
484,1437145535045,39.7118444972763
485,1437145535649,41.0686911244747
486,1437145536314,41.9848282391817
487,1437145537004,40.9598727327242
488,1437145537628,40.7241116251693
489,1437145538305,42.0905396610504
490,1437145539037,42.0074878409177
491,1437145539762,40.9354969521484
492,1437145540525,40.6611173862904
493,1437145541294,39.8358973406601
494,1437145542058,40.494423950168
495,1437145542747,41.2296902428436
496,1437145543406,41.8766784088672
497,1437145544080,41.2278504830065
498,1437145544691,41.3117075410157
499,1437145545419,40.4798604819334
500,1437145546097,42.2644919039946
501,1437145546737,41.4776472644589
502,1437145547441,41.4302306360384
503,1437145548164,40.0092294330275
504,1437145548872,40.65559720492
505,1437145549629,43.2853013465397
506,1437145550439,42.8742210842438
507,1437145551176,41.6006497688581
508,1437145551895,41.061299713752
509,1437145552629,42.3953307297097
510,1437145553390,41.3107014720335
511,1437145554082,41.2066841902175
512,1437145554740,41.7844909674446
513,1437145555434,41.3670790295871
514,1437145556156,40.7188192646116
515,1437145556866,42.5753542369018
516,1437145557620,42.0386676243912
517,1437145558310,41.2808824675119
518,1437145558980,41.6048939224987
519,1437145559707,41.5497643011011
520,1437145560491,42.1859656812824
521,1437145561244,43.1247605909269
522,1437145561958,42.9779781269332
523,1437145562685,41.1416184000711
524,1437145563439,42.8672155785484
525,1437145564146,42.2365197844082
526,1437145564820,42.4297452712304
527,1437145565610,42.274197902355
528,1437145566355,42.7418553228048
529,1437145567096,43.5922427966366
530,1437145567817,42.9290679586498
531,1437145568532,42.6673566780931
532,1437145569235,42.4250920822994
533,1437145569908,45.1701377070189
534,1437145570698,44.7622593314775
535,1437145571433,43.1515513274115
536,1437145572159,42.6831514870747
537,1437145572891,41.0355594924606
538,1437145573643,42.7690134677795
539,1437145574390,41.8966273816239
540,1437145575096,41.4713184497893
541,1437145575731,43.0238472723235
542,1437145576453,43.4068737669347
543,1437145577191,42.982327018852
544,1437145577916,43.0745843227503
545,1437145578593,40.9500714379306
546,1437145579252,44.0171720394792
547,1437145579946,43.7700446552765
548,1437145580704,42.4544620955897
549,1437145581449,42.9522659041057
550,1437145582121,41.0123857973999
551,1437145582791,42.7415005480484
552,1437145583528,43.25270639417
553,1437145584269,42.5530563846688
554,1437145584991,42.8659252254084
555,1437145585774,43.0940758166487
556,1437145586514,44.45663804761
557,1437145587248,42.2608885897463
558,1437145587981,42.7369330953393
559,1437145588720,43.3715764780041
560,1437145589464,40.9084168919391
561,1437145590160,42.9465611692691
562,1437145590964,42.5707032539291
563,1437145591698,44.2297413374438
564,1437145592424,42.3980174413678
565,1437145593144,42.8298803098912
566,1437145593941,40.2971033130953
567,1437145594678,41.911964763089
568,1437145595445,40.7839295978053
569,1437145596107,41.7077888469099
570,1437145596843,42.5853137981915
571,1437145597557,40.5701983581692
572,1437145598278,40.3573455718403
573,1437145599034,41.9593390852081
574,1437145599720,39.5701813443789
575,1437145600367,39.2863071519426
