id,attr_time,attr_db
1,1437145182386,45.4056783002243
2,1437145182889,57.0049315791708
3,1437145183398,53.1318190418352
4,1437145183927,57.2384513671364
5,1437145184339,43.1942380548212
6,1437145184771,42.3733546365041
7,1437145185253,46.5633167293284
8,1437145185762,42.4608440006321
9,1437145186222,42.1672568560031
10,1437145186693,43.3633169240101
11,1437145187149,42.4806505188082
12,1437145187613,41.430023303068
13,1437145188079,42.1462806155558
14,1437145188553,42.1543171735228
15,1437145189026,42.660874076076
16,1437145189527,42.2856418816188
17,1437145190008,40.2750879833873
18,1437145190533,41.4673135002304
19,1437145191011,41.746855852809
20,1437145191511,41.2941182279344
21,1437145192014,41.6223665589992
22,1437145192487,41.8734824569136
23,1437145192999,41.8541204829264
24,1437145193509,45.6483074158599
25,1437145194024,44.561265687729
26,1437145194444,52.4298433454165
27,1437145194912,58.0728240402252
28,1437145195388,66.841339689947
29,1437145195767,52.5184995411162
30,1437145196108,72.4101807321312
31,1437145196569,59.9809979706675
32,1437145197025,52.4222968903969
33,1437145197489,50.8513026988841
34,1437145197978,44.7641645788054
35,1437145198484,43.912700850817
36,1437145198990,43.4690762010666
37,1437145199377,44.3328811355426
38,1437145199847,55.2049174058276
39,1437145200247,44.664750889234
40,1437145200659,44.7510125874149
41,1437145201117,44.0394123390431
42,1437145201548,45.6197411797152
43,1437145202048,45.8661905020446
44,1437145202529,42.0772764749233
45,1437145202991,45.0778724280016
46,1437145203479,44.8390683734895
47,1437145204016,43.5052727032386
48,1437145204392,45.2099312466519
49,1437145204808,41.8187550788742
50,1437145205292,41.9125750774756
51,1437145205832,43.0678184158173
52,1437145206312,42.7327868178198
53,1437145206833,43.8029410544515
54,1437145207331,43.5456975794891
55,1437145207803,41.6441204652009
56,1437145208250,44.8193943086491
57,1437145208692,43.6783954371117
58,1437145209144,44.3185237065922
59,1437145209553,41.1918051859357
60,1437145210032,42.2425204709151
61,1437145210504,42.7859358629656
62,1437145211019,42.5988519752018
63,1437145211504,43.6435559070669
64,1437145211993,42.6295302428973
65,1437145212497,43.8905874472417
66,1437145212966,43.2477831675601
67,1437145213452,42.5599133753381
68,1437145213958,44.6886482742354
69,1437145214424,43.1362634745702
70,1437145214835,43.0809088532836
71,1437145215280,42.5256177626316
72,1437145216128,41.3729084036698
73,1437145217427,40.4903458340345
74,1437145217898,42.91960325064
75,1437145218373,42.6050883339907
76,1437145218780,44.066542789024
77,1437145219270,44.4529199582811
78,1437145219748,43.6003030805905
79,1437145220198,43.2099469304852
80,1437145220627,42.5103079255684
81,1437145221080,42.3338733346033
82,1437145221574,42.0657060115103
83,1437145223274,42.0756894803823
84,1437145223680,40.4285340338055
85,1437145224103,42.6649964185974
86,1437145224567,41.8792690761949
87,1437145225028,43.695390669045
88,1437145225434,44.1759875957501
89,1437145225922,43.8183550233255
90,1437145226436,44.1417336443113
91,1437145226931,43.3423596869125
92,1437145227435,43.8927356229658
93,1437145227936,44.2352506667025
94,1437145228442,43.1348046736368
95,1437145228912,43.5007089772535
96,1437145230288,43.9810792414166
97,1437145230719,43.1809433822846
98,1437145231217,43.7928621540691
99,1437145231673,44.298450066196
100,1437145232114,44.2980477006754
101,1437145232589,44.407218407697
102,1437145233061,45.2058184578196
103,1437145233543,44.5733436063471
104,1437145233976,43.635939850303
105,1437145235389,48.7440822936416
106,1437145235872,44.7936856428163
107,1437145236366,44.0935882205236
108,1437145236852,45.946538497711
109,1437145237367,44.3653707148747
110,1437145237736,46.5380832694067
111,1437145238144,43.6935285506682
112,1437145238627,43.3280326245346
113,1437145239171,44.3755583146579
114,1437145239657,43.9941656539954
115,1437145240124,43.9696859554447
116,1437145240547,54.3000033230253
117,1437145241037,46.5853741282359
118,1437145241484,43.1953166046089
119,1437145241964,43.1038360367306
120,1437145242459,43.7171721057811
121,1437145242946,43.9370908686264
122,1437145243304,43.7294651775171
123,1437145243661,43.023857937737
124,1437145244054,41.786951719637
125,1437145244516,43.8075125146404
126,1437145245001,44.4786629020531
127,1437145245483,43.3502761152906
128,1437145245899,42.5030340711018
129,1437145246268,42.5608157635466
130,1437145246709,42.2553118765612
131,1437145247189,41.8264499774748
132,1437145247661,43.2388011361037
133,1437145248142,42.7103909069833
134,1437145248643,43.4463137775504
135,1437145249151,41.0611685243496
136,1437145249632,43.2614755889488
137,1437145250111,42.2935690981297
138,1437145250583,41.0676621325704
139,1437145251018,41.0505773509506
140,1437145251405,41.457569722231
141,1437145251814,41.723145774215
142,1437145252284,42.8393694858249
143,1437145252850,42.4427837165566
144,1437145253371,41.6288010225326
145,1437145253887,41.9754922754067
146,1437145254360,42.3981696507962
147,1437145254845,41.6312320439421
148,1437145255388,42.4182656443657
149,1437145255821,42.7236394344553
150,1437145256166,42.8774435235424
151,1437145256624,42.4601324910536
152,1437145257109,43.785512087362
153,1437145257578,42.169926131962
154,1437145258017,42.6671145099785
155,1437145258444,43.0440432520863
156,1437145258937,43.8114827503398
157,1437145259394,41.1220634909202
158,1437145259913,42.5539979321436
159,1437145260401,40.8808358886163
160,1437145260873,43.9866525614532
161,1437145261297,42.0083317602375
162,1437145261718,43.0942421424167
163,1437145262179,43.3655854217363
164,1437145262637,43.0273719927267
165,1437145263087,42.3719709439778
166,1437145263566,41.8553827455369
167,1437145264039,43.5891599312178
168,1437145264542,42.070189250846
169,1437145265039,43.1950782497684
170,1437145265530,40.6687008292094
171,1437145266012,44.9667623446734
172,1437145266452,44.6475713037635
173,1437145266824,43.9399152191498
174,1437145267245,44.0848858938494
175,1437145267716,44.5564419462938
176,1437145268189,43.0383489401472
177,1437145268668,41.541837060367
178,1437145269141,42.7942581194728
179,1437145269623,41.2988836533593
180,1437145270103,43.571494614861
181,1437145270625,43.2145363034324
182,1437145271079,43.7561306428973
183,1437145271509,42.7126985117045
184,1437145272002,42.5968048355387
185,1437145272495,43.1121043880645
186,1437145272994,41.7283862063367
187,1437145273501,42.307773184278
188,1437145274031,42.6941608057774
189,1437145274514,42.106266467864
190,1437145274990,42.8530044333231
191,1437145275496,42.4061158500639
192,1437145275977,41.7445923097964
193,1437145276443,43.4636169577887
194,1437145276831,44.169837292053
195,1437145277300,45.4444340985403
196,1437145277779,46.4988175107565
197,1437145278196,45.2331301685456
198,1437145278578,43.2113104227039
199,1437145279040,46.1026645330655
200,1437145279514,45.3622609266405
201,1437145280013,46.8071458180529
202,1437145280498,45.6677684668129
203,1437145280971,45.4657810209618
204,1437145281496,45.9385718903831
205,1437145281977,44.1530910972094
206,1437145282455,43.9542340241302
207,1437145282835,43.928523422896
208,1437145283199,44.4785935338889
209,1437145283659,43.4291440204404
210,1437145284169,43.3044321533061
211,1437145284658,45.8269548380717
212,1437145285169,44.4798644834949
213,1437145285660,43.7154156587764
214,1437145286150,42.5262099456556
215,1437145286636,46.0687649689085
216,1437145287078,48.3677455604602
217,1437145287488,45.5062869075314
218,1437145287920,44.6679319849685
219,1437145288413,42.7980587758111
220,1437145288929,44.7833354953055
221,1437145289453,43.5447561382335
222,1437145289955,42.1245475226146
223,1437145290454,44.3288820071723
224,1437145290959,46.1263558564212
225,1437145291323,46.3297802548061
226,1437145291748,45.6225865365718
227,1437145292236,43.4457986907234
228,1437145292721,44.3128525749216
229,1437145293221,42.8443862391747
230,1437145293725,44.8120827037606
231,1437145294201,44.839862153559
232,1437145294684,43.5326113197361
233,1437145295174,44.7393406363709
234,1437145295660,42.8449637935835
235,1437145296159,44.3042186415556
236,1437145296631,45.862651069274
237,1437145297072,45.4525214752098
238,1437145297482,42.8046591053726
239,1437145297920,41.4091054014469
240,1437145298393,44.7275723269238
241,1437145298797,43.9476945163958
242,1437145299200,43.2084265440891
243,1437145299663,41.5757770953477
244,1437145300137,43.1174560744499
245,1437145300623,43.3615543587328
246,1437145301120,43.9004842060674
247,1437145301613,43.1184021291436
248,1437145302056,45.7524368288036
249,1437145302464,43.1606622434027
250,1437145302948,40.5378848744813
251,1437145303447,43.785661127847
252,1437145303922,43.1123247639967
253,1437145304421,41.5043543079031
254,1437145304914,42.2763096953605
255,1437145305393,43.0309516514265
256,1437145305902,43.29307265838
257,1437145306418,43.4664786757825
258,1437145306902,44.2518546911037
259,1437145307431,43.4924468444635
260,1437145307802,44.8049039159203
261,1437145308149,41.8257982142208
262,1437145308618,44.4063944469064
263,1437145309102,43.7478000151978
264,1437145309643,43.3999118324335
265,1437145310091,42.2686979479619
266,1437145310562,43.6890062508089
267,1437145311041,42.2018594420958
268,1437145311518,42.6210347753295
269,1437145311991,43.6072401062871
270,1437145312492,43.0960244771846
271,1437145313031,43.4163237007907
272,1437145313547,43.6594389625972
273,1437145314038,45.6881798706528
274,1437145314447,43.8015038167875
275,1437145314905,45.6887182073165
276,1437145315398,44.4424911410187
277,1437145315897,44.4063086445983
278,1437145316377,43.8713988552964
279,1437145316868,44.7783135149268
280,1437145317344,45.6647024860491
281,1437145317765,45.7320533006326
282,1437145318185,47.2630535352687
283,1437145318637,47.5764511576512
284,1437145319108,48.2289310076486
285,1437145319632,47.5345541014178
286,1437145320142,45.9748728333882
287,1437145320624,44.3734376061884
288,1437145321113,43.7017998011995
289,1437145321586,45.778013017759
290,1437145322018,45.4235130381021
291,1437145322403,46.3388515629977
292,1437145322882,44.7214274490233
293,1437145323369,44.0201306982199
294,1437145323867,43.9409500958676
295,1437145324380,44.7041278599052
296,1437145324876,45.7104086583938
297,1437145325378,47.9251423509433
298,1437145325868,43.8870469664784
299,1437145326362,45.0403583164664
300,1437145326847,43.6034523006148
301,1437145327331,43.168993513437
302,1437145327839,43.580048710364
303,1437145328274,41.6538155899722
304,1437145328711,42.823509675649
305,1437145329188,42.8488129338738
306,1437145329720,44.8908034754142
307,1437145330203,43.6003009189201
308,1437145330697,43.4824043317493
309,1437145331192,42.2823599821727
310,1437145331675,43.3060258705614
311,1437145332158,43.3522794393064
312,1437145332640,43.4353597338707
313,1437145333123,43.0081369824803
314,1437145333611,42.5062453347661
315,1437145334099,41.8991010746108
316,1437145334524,42.8373058023213
317,1437145335003,42.1102732319682
318,1437145335498,43.0564953145586
319,1437145335990,42.607415004925
320,1437145336445,42.6514456257001
321,1437145336852,42.0686833935423
322,1437145337301,44.0107610472655
323,1437145337778,41.7854859115822
324,1437145338225,40.2011308662997
325,1437145338609,43.3183921595743
326,1437145339049,43.9216261332688
327,1437145339508,42.5841903604118
328,1437145340011,42.4820694829135
329,1437145340528,41.7660230439936
330,1437145341014,41.0994586398421
331,1437145341488,42.4978150127105
332,1437145341885,43.2468847014052
333,1437145342236,40.1546785860265
334,1437145342684,42.8537965003094
335,1437145343155,42.9433208340135
336,1437145343606,41.7845683140862
337,1437145344087,42.0828462806533
338,1437145344569,42.7628709272312
339,1437145345047,42.4829931637201
340,1437145345544,42.2602801514196
341,1437145346029,41.2230248086349
342,1437145346520,40.8039075883868
343,1437145347025,43.2522690664713
344,1437145347499,43.1902892592161
345,1437145347967,41.7306414931427
346,1437145348355,41.8719464531554
347,1437145348787,40.255484583959
348,1437145349247,41.851758852519
349,1437145349779,42.4555666672126
350,1437145350280,41.2326086119341
351,1437145350863,42.1979162321738
352,1437145351355,42.0469740057765
353,1437145351841,41.460520209621
354,1437145352265,43.4899065345697
355,1437145352698,42.5039965718183
356,1437145353141,42.0679063713992
357,1437145353635,44.1074644225052
358,1437145354117,42.7748751938433
359,1437145354609,43.4641958915234
360,1437145355108,41.8435315064385
361,1437145355597,43.1803709171451
362,1437145356081,41.7726463473914
363,1437145356578,42.9059231027231
364,1437145357059,44.1237834013723
365,1437145357550,44.8944589070243
366,1437145358066,42.1988367894505
367,1437145358568,43.0698300673094
368,1437145358958,45.1703634854517
369,1437145359386,43.8154661669096
370,1437145359820,41.30714559097
371,1437145360288,43.9820185760772
372,1437145360781,42.5226674452985
373,1437145361273,44.7661873105972
374,1437145361761,43.7276245889505
375,1437145362244,45.7559300362196
376,1437145362733,44.5144404219107
377,1437145363183,44.2272628815033
378,1437145363593,45.1259590927625
379,1437145364082,43.1253899664971
380,1437145364573,45.2628710542618
381,1437145365033,45.9088177291762
382,1437145365543,46.476345933356
383,1437145366025,43.6993418969227
384,1437145366520,41.9068360586174
385,1437145367018,42.8071218730254
386,1437145367520,41.9173256446466
387,1437145368031,42.4927748188514
388,1437145368550,42.9677283823007
389,1437145368940,41.4938286246383
390,1437145369349,43.7796796929572
391,1437145369810,43.3983820168499
392,1437145370278,41.9230547584956
393,1437145370751,42.7122881145922
394,1437145371225,45.6993142474782
395,1437145371748,42.7084576219419
396,1437145372237,42.2859320369985
397,1437145372735,42.0664400024876
398,1437145373218,42.4386417484641
399,1437145373631,45.1290228346651
400,1437145374064,44.1949492799551
401,1437145374604,44.5772492031836
402,1437145375116,43.4109461022555
403,1437145375604,43.6897668633942
404,1437145376110,44.8306821183291
405,1437145376601,44.126672775747
406,1437145377111,45.7135024299564
407,1437145377615,46.3300161878453
408,1437145378095,44.6601146882897
409,1437145378585,46.9321120829617
410,1437145378957,44.8640724395905
411,1437145379315,44.3395865529564
412,1437145379767,46.8261281424448
413,1437145380267,44.8007841842224
414,1437145380704,42.6552856571151
415,1437145381159,42.8578639400087
416,1437145381639,43.2105928709575
417,1437145382121,44.13778478106
418,1437145382587,41.6816113793963
419,1437145383084,42.3476956301717
420,1437145383515,41.0627122014818
421,1437145383950,42.2397792033032
422,1437145384420,44.8519560498258
423,1437145384923,44.7266221379145
424,1437145385394,43.529001612454
425,1437145385901,42.3052162360079
426,1437145386420,42.4645384615181
427,1437145386937,42.4862477697664
428,1437145387449,42.4182875479731
429,1437145387935,41.9984549397029
430,1437145388428,42.5218085078105
431,1437145389018,42.8862960929363
432,1437145389469,43.7848322206796
433,1437145389868,44.6989850292812
434,1437145390356,44.9250546911902
435,1437145390868,44.1718068061344
436,1437145391370,45.008267970545
437,1437145391892,43.5077886449749
438,1437145392382,45.0503364354452
439,1437145392898,42.4808110129573
440,1437145393286,43.9149569008731
441,1437145393713,42.9345117653098
442,1437145394172,45.4788066773622
443,1437145394638,44.0100028187061
444,1437145395113,42.6416384359061
445,1437145395604,43.1045980994205
446,1437145396111,44.2233388071399
447,1437145396623,45.0209723455653
448,1437145397130,44.5866414691664
449,1437145397627,46.7745265303413
450,1437145398140,44.8388934599941
451,1437145398658,42.6734265731959
452,1437145399114,43.6891088147339
453,1437145399464,44.1980321562512
454,1437145399908,44.7662929576669
455,1437145400373,45.5565863097066
456,1437145400897,45.3398036500372
457,1437145401378,46.2368927922576
458,1437145401913,44.8918064986715
459,1437145402448,44.6732879936671
460,1437145402910,45.0590021253732
461,1437145403304,54.3589097098347
462,1437145403732,46.021140863564
463,1437145404190,45.571871106388
464,1437145404669,45.7517713639022
465,1437145405187,45.6166309193491
466,1437145405556,44.1167720835394
467,1437145406025,45.2357684832193
468,1437145406505,42.753510275179
469,1437145407024,45.4891091913001
470,1437145407523,44.1416583362222
471,1437145408020,44.9249490302773
472,1437145408518,43.3826782848958
473,1437145409056,44.9467587236395
474,1437145409510,43.5167438645505
475,1437145409893,42.7219407515624
476,1437145410243,44.0289373971555
477,1437145410708,43.9921621247618
478,1437145411177,44.4732834681005
479,1437145411661,42.3953154071132
480,1437145412189,41.8324646063943
481,1437145412688,43.4319831740271
482,1437145413163,43.3862912973667
483,1437145413659,43.7474037737363
484,1437145414133,42.1474883794255
485,1437145414566,44.3104718481557
486,1437145415037,43.6180022031264
487,1437145415546,43.3081233882576
488,1437145416073,41.9580140100462
489,1437145416525,45.482844018127
490,1437145416934,43.0439260000566
491,1437145417388,43.0400221795484
492,1437145417848,42.3763379582158
493,1437145418345,43.123358017659
494,1437145418839,43.8566159018784
495,1437145419296,41.6883016038014
496,1437145419779,40.7907402531566
497,1437145420139,40.730582212524
498,1437145421765,40.8573189387108
499,1437145422160,42.0290675992825
500,1437145422618,41.5085407159091
501,1437145423093,40.4804149550161
502,1437145423590,41.8211573078409
503,1437145424114,40.8839194113886
504,1437145424569,40.8811028980856
505,1437145425061,41.4457610292332
506,1437145425537,42.0413822923427
507,1437145426035,41.4909903555243
508,1437145426531,41.7153580683366
509,1437145427049,42.9732778502396
510,1437145427533,42.8644443178462
511,1437145428018,42.1252485033997
512,1437145428576,43.04001845699
513,1437145429189,44.6921666499687
514,1437145429614,45.0400571911618
515,1437145430046,41.735828890645
516,1437145431541,44.3331046510691
517,1437145431986,43.996058108366
518,1437145432442,42.9998695729475
519,1437145432952,42.3792362375659
520,1437145433452,42.6052719066399
521,1437145434002,42.0327357772241
522,1437145434501,41.9415205334822
523,1437145434998,42.7174386096956
524,1437145435496,41.03946146423
525,1437145436025,42.0357877220934
526,1437145436430,41.8312343539253
527,1437145436927,42.661512826052
528,1437145437454,42.3762324659119
529,1437145437937,41.4414842075885
530,1437145438419,41.2689518450168
531,1437145438919,43.4247385529158
532,1437145439395,42.3010994082398
533,1437145439792,40.1448404100667
534,1437145440194,42.3849603650792
535,1437145440664,42.6071418608912
536,1437145441145,41.4451353618378
537,1437145441633,44.5360150357078
538,1437145442120,42.4286531582706
539,1437145442592,42.3172858155381
540,1437145443075,41.9353155475905
541,1437145443559,41.293929284816
542,1437145444008,43.2500201040897
543,1437145444391,43.6625196223919
544,1437145444820,42.4198264519163
545,1437145445228,43.5387066301686
546,1437145446553,43.2987557053128
547,1437145446988,43.6025928376153
548,1437145447463,43.6730030791801
549,1437145447967,43.937580119077
550,1437145448464,44.2193992206449
551,1437145448969,45.163550156271
552,1437145449455,43.6158102990278
553,1437145449967,44.5794987337063
554,1437145450456,45.053780069081
555,1437145450901,45.4088624194555
556,1437145451284,43.7086713128276
557,1437145451720,44.3174343757109
558,1437145452252,45.1556586029784
559,1437145452721,45.0781661016706
560,1437145453220,41.5704700240247
561,1437145453709,43.9733094820827
562,1437145454133,45.0088651649165
563,1437145455377,44.902276699635
564,1437145455781,45.3280639268719
565,1437145456213,45.9867273393821
566,1437145456662,45.342967972357
567,1437145457160,44.8973025167645
568,1437145457656,44.6191828683078
569,1437145458144,45.5452083038396
570,1437145458628,46.4243269234126
571,1437145459128,46.2961146489723
572,1437145459545,45.6963897696962
573,1437145459888,46.2157794222584
574,1437145460380,44.023170239458
575,1437145460861,44.6120087125399
