id,attr_time,attr_x,attr_y,attr_z
1,1436969335833,28.967,-17.735,-35.29
2,1436969335853,28.967,-17.735,-35.29
3,1436969335871,28.967,-17.735,-35.29
4,1436969335893,28.967,-17.735,-35.29
5,1436969335910,28.967,-17.735,-35.29
6,1436969335932,28.967,-17.735,-35.29
7,1436969335950,28.967,-17.735,-35.29
8,1436969335975,28.967,-17.735,-35.29
9,1436969335999,28.967,-17.735,-35.29
10,1436969336011,28.967,-17.735,-35.29
11,1436969336032,28.967,-17.735,-35.29
12,1436969336057,28.967,-17.735,-35.591
13,1436969336073,28.967,-17.735,-35.591
14,1436969336096,28.967,-17.735,-35.591
15,1436969336113,28.967,-17.735,-35.591
16,1436969336131,28.967,-17.735,-35.591
17,1436969336203,28.967,-17.735,-35.591
18,1436969336204,28.967,-17.735,-35.591
19,1436969336205,28.967,-17.735,-35.591
20,1436969336212,28.967,-17.735,-35.591
21,1436969336233,28.967,-17.735,-35.591
22,1436969336252,28.967,-17.735,-35.591
23,1436969336271,28.967,-17.735,-35.591
24,1436969336291,28.967,-17.735,-35.591
25,1436969336313,28.967,-17.735,-35.591
26,1436969336333,28.967,-17.735,-35.591
27,1436969336353,28.967,-17.735,-35.591
28,1436969336372,28.967,-17.735,-35.591
29,1436969336392,28.608,-17.735,-35.591
30,1436969336413,28.608,-17.735,-35.591
31,1436969336433,28.608,-17.735,-35.591
32,1436969336453,28.608,-17.735,-35.591
33,1436969336473,28.608,-17.735,-35.591
34,1436969336494,28.608,-17.735,-35.591
35,1436969336513,28.608,-17.735,-35.591
36,1436969336533,28.608,-17.735,-35.591
37,1436969336553,28.276,-17.735,-35.591
38,1436969336573,28.276,-17.735,-35.591
39,1436969336593,28.276,-17.735,-35.591
40,1436969336613,28.276,-17.735,-35.591
41,1436969336633,28.276,-17.735,-35.591
42,1436969336653,28.276,-17.735,-35.591
43,1436969336674,28.276,-17.735,-35.591
44,1436969336694,28.276,-17.735,-35.591
45,1436969336715,28.276,-17.735,-35.591
46,1436969336734,28.276,-17.735,-35.591
47,1436969336755,28.276,-17.735,-35.591
48,1436969336774,28.276,-17.735,-35.591
49,1436969336794,28.276,-17.735,-35.591
50,1436969336814,28.276,-17.735,-35.591
51,1436969336833,28.276,-17.735,-35.591
52,1436969336860,28.276,-17.735,-35.591
53,1436969336931,28.276,-17.735,-35.591
54,1436969336932,28.276,-17.735,-35.591
55,1436969336933,28.276,-17.735,-35.253
56,1436969336934,28.276,-17.735,-35.253
57,1436969336952,28.576,-17.735,-35.253
58,1436969336972,28.576,-17.735,-35.253
59,1436969336992,28.576,-17.735,-35.253
60,1436969337015,28.576,-17.735,-35.253
61,1436969337035,28.576,-17.735,-35.253
62,1436969337052,28.576,-17.735,-35.253
63,1436969337072,28.576,-17.735,-35.253
64,1436969337102,28.576,-17.735,-35.253
65,1436969337116,28.576,-17.735,-35.253
66,1436969337132,28.576,-17.735,-35.253
67,1436969337155,28.576,-17.735,-35.253
68,1436969337175,28.576,-17.735,-35.253
69,1436969337195,28.576,-17.735,-35.253
70,1436969337215,28.886,-17.735,-35.253
71,1436969337235,28.886,-17.735,-34.945
72,1436969337255,28.886,-17.735,-34.945
73,1436969337274,28.886,-17.735,-34.945
74,1436969337295,28.886,-17.735,-34.945
75,1436969337316,28.886,-17.735,-34.945
76,1436969337334,28.886,-17.735,-34.945
77,1436969337354,28.886,-17.735,-34.945
78,1436969337374,28.886,-17.735,-35.296
79,1436969337392,28.886,-17.735,-35.296
80,1436969337413,28.886,-17.735,-35.296
81,1436969337437,28.886,-17.735,-35.675
82,1436969337457,28.886,-17.735,-35.675
83,1436969337477,28.579,-17.735,-36.006
84,1436969337494,28.579,-17.735,-36.006
85,1436969337513,28.579,-17.735,-36.006
86,1436969337532,28.579,-17.735,-36.334
87,1436969337552,28.579,-17.735,-36.334
88,1436969337575,28.579,-17.735,-36.334
89,1436969337596,28.579,-17.735,-36.334
90,1436969337659,28.579,-17.735,-36.648
91,1436969337660,28.579,-17.735,-36.648
92,1436969337661,28.579,-17.735,-36.648
93,1436969337672,28.579,-17.735,-36.648
94,1436969337695,28.579,-17.735,-36.648
95,1436969337714,28.579,-17.735,-36.648
96,1436969337732,29.04,-17.735,-36.648
97,1436969337755,29.04,-17.735,-36.648
98,1436969337774,29.377,-17.735,-36.648
99,1436969337795,29.377,-17.428,-36.648
100,1436969337814,29.91,-17.428,-36.648
101,1436969337834,29.91,-17.428,-36.648
102,1436969337852,29.91,-17.428,-36.648
103,1436969337876,29.91,-17.428,-36.648
104,1436969337896,29.91,-17.428,-36.648
105,1436969337916,29.91,-17.428,-36.648
106,1436969337936,30.21,-17.428,-36.648
107,1436969337956,30.21,-17.095,-36.648
108,1436969337976,30.21,-17.095,-36.648
109,1436969337999,30.566,-17.095,-36.648
110,1436969338013,30.566,-17.095,-36.648
111,1436969338036,30.566,-17.095,-36.286
112,1436969338056,30.566,-17.095,-36.286
113,1436969338073,30.566,-17.095,-36.286
114,1436969338094,30.566,-17.095,-35.942
115,1436969338114,30.566,-17.095,-35.942
116,1436969338134,30.566,-17.095,-35.942
117,1436969338156,30.566,-16.787,-35.942
118,1436969338176,30.566,-16.787,-35.942
119,1436969338196,30.566,-16.787,-35.942
120,1436969338216,30.566,-16.787,-35.942
121,1436969338236,30.566,-16.487,-35.942
122,1436969338253,30.566,-16.487,-35.54
123,1436969338275,30.955,-16.487,-35.54
124,1436969338294,30.955,-16.487,-35.54
125,1436969338313,31.282,-16.152,-35.144
126,1436969338364,31.282,-16.152,-35.144
127,1436969338365,31.71,-16.152,-34.77
128,1436969338387,31.71,-16.152,-34.77
129,1436969338393,31.71,-16.152,-34.46
130,1436969338413,31.71,-16.152,-34.46
131,1436969338436,31.71,-15.812,-34.46
132,1436969338453,31.71,-15.812,-33.703
133,1436969338477,31.71,-15.812,-33.703
134,1436969338493,31.71,-15.812,-32.72
135,1436969338513,31.71,-15.812,-31.568
136,1436969338538,31.71,-15.812,-30.957
137,1436969338554,32.066,-15.812,-30.516
138,1436969338576,32.066,-15.812,-30.516
139,1436969338595,32.066,-15.812,-30.087
140,1436969338615,32.066,-15.812,-30.087
141,1436969338635,32.066,-15.812,-30.56
142,1436969338656,32.066,-15.812,-30.56
143,1436969338676,32.066,-15.812,-30.56
144,1436969338696,32.066,-15.812,-30.56
145,1436969338717,31.704,-15.812,-30.56
146,1436969338736,31.704,-15.812,-30.56
147,1436969338756,31.704,-15.812,-30.252
148,1436969338774,31.364,-15.812,-30.252
149,1436969338797,31.364,-15.812,-30.252
150,1436969338816,31.364,-15.812,-30.252
151,1436969338834,31.364,-15.812,-29.931
152,1436969338854,31.364,-15.812,-29.931
153,1436969338875,31.034,-15.812,-29.931
154,1436969338899,31.034,-15.812,-29.475
155,1436969338919,31.034,-15.812,-29.475
156,1436969338939,30.705,-15.812,-29.475
157,1436969338954,30.705,-15.812,-29.138
158,1436969338975,30.705,-15.812,-29.138
159,1436969338994,30.36,-15.812,-28.3
160,1436969339017,30.36,-15.812,-28.3
161,1436969339035,30.36,-15.812,-27.746
162,1436969339146,30.36,-15.812,-27.746
163,1436969339147,30.36,-15.812,-27.746
164,1436969339148,30.36,-15.812,-27.746
165,1436969339149,30.36,-15.812,-27.746
166,1436969339150,30.36,-15.812,-27.746
167,1436969339195,30.36,-15.812,-27.746
168,1436969339196,30.36,-15.812,-27.746
169,1436969339197,30.36,-15.812,-27.746
170,1436969339214,30.36,-15.812,-27.746
171,1436969339234,30.36,-15.812,-27.746
172,1436969339263,30.36,-15.812,-27.746
173,1436969339289,30.36,-15.812,-27.746
174,1436969339373,30.36,-15.812,-27.746
175,1436969339374,30.36,-15.812,-28.262
176,1436969339375,30.677,-15.812,-28.703
177,1436969339376,30.677,-15.812,-29.547
178,1436969339377,30.677,-15.812,-29.547
179,1436969339404,30.677,-15.812,-30.273
180,1436969339414,30.677,-15.812,-30.809
181,1436969339434,30.677,-15.812,-31.321
182,1436969339454,30.677,-15.812,-31.64
183,1436969339474,30.677,-15.812,-31.64
184,1436969339495,30.337,-15.812,-31.64
185,1436969339514,30.337,-15.812,-31.64
186,1436969339533,30.337,-15.812,-31.323
187,1436969339553,30.337,-15.812,-31.712
188,1436969339573,30.337,-15.812,-31.712
189,1436969339593,30.337,-15.812,-31.712
190,1436969339613,30.337,-15.812,-31.712
191,1436969339633,30.337,-15.812,-31.712
192,1436969339655,30.337,-15.812,-31.712
193,1436969339677,30.337,-15.812,-32.115
194,1436969339696,30.026,-15.812,-32.115
195,1436969339715,30.026,-15.812,-32.115
196,1436969339733,30.026,-15.812,-32.461
197,1436969339754,30.026,-15.812,-32.461
198,1436969339773,30.026,-15.812,-32.461
199,1436969339794,30.026,-15.812,-32.461
200,1436969339822,30.026,-15.812,-32.461
201,1436969339834,30.026,-15.812,-32.461
202,1436969339853,30.026,-15.812,-32.461
203,1436969339874,30.026,-15.812,-32.461
204,1436969339894,30.026,-15.812,-32.461
205,1436969339918,30.026,-15.812,-32.461
206,1436969339934,30.026,-15.812,-32.461
207,1436969339953,29.719,-15.812,-32.771
208,1436969339978,29.719,-15.812,-32.771
209,1436969339998,29.719,-15.812,-32.771
210,1436969340018,29.719,-15.812,-32.771
211,1436969340034,29.719,-15.812,-32.771
212,1436969340058,29.719,-15.812,-32.771
213,1436969340078,29.719,-16.12,-32.771
214,1436969340098,29.719,-16.12,-33.1
215,1436969340118,29.402,-16.12,-33.1
216,1436969340138,29.402,-16.12,-33.1
217,1436969340157,29.402,-16.12,-33.1
218,1436969340175,29.402,-16.12,-33.506
219,1436969340198,29.402,-16.12,-33.506
220,1436969340218,29.402,-16.12,-33.506
221,1436969340238,29.402,-16.12,-33.879
222,1436969340257,29.402,-16.12,-33.879
223,1436969340278,29.078,-16.12,-33.879
224,1436969340297,29.078,-16.12,-33.879
225,1436969340317,29.078,-16.12,-34.231
226,1436969340338,29.078,-16.12,-34.231
227,1436969340357,29.078,-16.436,-34.231
228,1436969340377,29.078,-16.436,-34.231
229,1436969340396,29.078,-16.436,-34.584
230,1436969340414,29.078,-16.436,-34.584
231,1436969340435,28.727,-16.436,-34.584
232,1436969340454,28.727,-16.436,-34.584
233,1436969340474,28.727,-16.436,-34.584
234,1436969340494,28.727,-16.436,-34.584
235,1436969340514,28.727,-16.436,-34.584
236,1436969340535,28.727,-16.436,-34.584
237,1436969340555,28.727,-16.436,-34.584
238,1436969340576,28.387,-16.436,-34.584
239,1436969340596,28.387,-16.436,-34.584
240,1436969340616,28.387,-16.436,-34.165
241,1436969340638,28.387,-16.436,-34.165
242,1436969340657,28.387,-16.436,-33.833
243,1436969340677,28.387,-16.436,-33.833
244,1436969340698,28.387,-16.436,-33.091
245,1436969340718,28.387,-16.436,-32.403
246,1436969340738,28.387,-16.436,-31.907
247,1436969340757,28.387,-16.436,-31.907
248,1436969340776,28.736,-16.436,-31.907
249,1436969340795,28.736,-16.436,-31.907
250,1436969340815,28.736,-16.436,-31.907
251,1436969340836,28.736,-16.436,-31.907
252,1436969340855,28.736,-16.436,-31.907
253,1436969340877,28.736,-16.436,-31.907
254,1436969340898,28.736,-16.436,-31.907
255,1436969340917,28.736,-16.436,-31.907
256,1436969340937,29.039,-16.436,-31.559
257,1436969340959,29.039,-16.125,-31.559
258,1436969340979,29.039,-16.125,-31.559
259,1436969340999,29.039,-16.125,-31.559
260,1436969341019,29.039,-16.125,-31.559
261,1436969341038,29.039,-16.125,-31.559
262,1436969341060,29.345,-16.125,-31.559
263,1436969341078,29.345,-16.125,-31.559
264,1436969341098,29.345,-16.125,-31.559
265,1436969341120,29.345,-16.125,-31.559
266,1436969341190,29.345,-16.125,-31.559
267,1436969341191,29.345,-16.125,-31.559
268,1436969341192,29.345,-16.125,-31.559
269,1436969341197,29.345,-16.125,-31.559
270,1436969341216,29.345,-16.125,-31.559
271,1436969341238,29.345,-16.125,-31.559
272,1436969341256,29.345,-16.125,-31.559
273,1436969341278,29.663,-16.125,-31.559
274,1436969341310,29.663,-16.125,-31.559
275,1436969341347,29.663,-16.125,-31.559
276,1436969341348,29.663,-16.125,-31.559
277,1436969341355,29.663,-16.125,-31.198
278,1436969341377,29.992,-16.125,-31.198
279,1436969341396,29.992,-16.125,-31.198
280,1436969341417,29.992,-16.125,-31.198
281,1436969341439,29.992,-16.125,-31.198
282,1436969341459,29.992,-16.125,-30.83
283,1436969341479,29.992,-16.125,-30.83
284,1436969341499,30.319,-16.125,-30.83
285,1436969341516,30.319,-16.125,-30.523
286,1436969341537,30.319,-16.125,-30.523
287,1436969341558,30.319,-16.125,-30.523
288,1436969341576,30.319,-16.125,-30.523
289,1436969341597,30.319,-16.125,-30.523
290,1436969341619,30.319,-16.125,-30.523
291,1436969341640,30.319,-16.125,-30.523
292,1436969341659,30.319,-16.125,-30.523
293,1436969341677,30.319,-16.125,-30.201
294,1436969341700,30.319,-16.125,-30.201
295,1436969341720,30.319,-16.125,-30.201
296,1436969341739,30.319,-16.125,-30.201
297,1436969341759,30.319,-16.125,-30.201
298,1436969341780,30.319,-16.125,-30.201
299,1436969341800,30.319,-16.125,-30.201
300,1436969341819,30.319,-16.125,-30.201
301,1436969341841,30.319,-16.125,-30.201
302,1436969341899,29.949,-16.125,-30.201
303,1436969341911,29.949,-16.125,-30.201
304,1436969341912,29.949,-16.125,-30.201
305,1436969341917,29.602,-16.125,-30.201
306,1436969341936,29.602,-16.125,-30.201
307,1436969341956,29.602,-16.125,-30.201
308,1436969341976,29.18,-16.125,-29.878
309,1436969341996,29.18,-16.125,-29.878
310,1436969342021,28.871,-16.125,-29.878
311,1436969342040,28.871,-16.125,-29.878
312,1436969342057,28.54,-16.436,-29.878
313,1436969342078,28.54,-16.436,-29.878
314,1436969342097,28.179,-16.436,-29.878
315,1436969342117,28.179,-16.436,-29.878
316,1436969342140,27.827,-16.436,-29.878
317,1436969342160,27.827,-16.436,-29.878
318,1436969342180,27.827,-16.436,-29.878
319,1436969342200,27.482,-16.436,-29.878
320,1436969342220,27.482,-16.436,-29.878
321,1436969342240,27.482,-16.436,-29.878
322,1436969342260,27.482,-16.436,-29.878
323,1436969342280,27.162,-16.436,-29.878
324,1436969342302,27.162,-16.436,-29.878
325,1436969342320,27.162,-16.436,-30.184
326,1436969342340,27.162,-16.757,-30.184
327,1436969342360,27.162,-16.757,-30.184
328,1436969342378,27.162,-16.757,-30.184
329,1436969342399,27.162,-16.757,-30.184
330,1436969342417,27.162,-16.757,-30.508
331,1436969342439,27.162,-16.757,-30.508
332,1436969342460,27.162,-16.757,-30.508
333,1436969342480,27.47,-16.757,-30.508
334,1436969342498,27.47,-16.757,-30.508
335,1436969342518,27.47,-16.757,-30.865
336,1436969342538,27.867,-16.757,-30.865
337,1436969342562,27.867,-16.757,-30.865
338,1436969342637,27.867,-16.757,-30.865
339,1436969342638,28.211,-16.757,-30.865
340,1436969342639,28.211,-16.757,-31.213
341,1436969342640,28.211,-16.757,-31.213
342,1436969342660,28.572,-16.757,-31.213
343,1436969342683,28.572,-16.757,-31.213
344,1436969342697,28.572,-16.424,-31.213
345,1436969342717,28.942,-16.424,-31.213
346,1436969342751,28.942,-16.424,-31.213
347,1436969342758,28.942,-16.424,-31.213
348,1436969342790,28.942,-16.424,-31.549
349,1436969342797,28.942,-16.424,-31.549
350,1436969342818,28.942,-16.424,-31.549
351,1436969342838,28.942,-16.424,-31.549
352,1436969342860,28.942,-16.424,-31.968
353,1436969342878,28.942,-16.424,-31.968
354,1436969342901,28.942,-16.424,-31.968
355,1436969342921,28.942,-16.424,-32.347
356,1436969342939,29.257,-16.424,-32.347
357,1436969342961,29.257,-16.117,-32.347
358,1436969342981,29.257,-16.117,-32.662
359,1436969342998,29.257,-16.117,-32.662
360,1436969343023,29.257,-16.117,-32.662
361,1436969343041,29.257,-16.117,-32.981
362,1436969343062,29.257,-16.117,-32.981
363,1436969343082,29.257,-16.117,-32.981
364,1436969343103,29.257,-16.117,-33.406
365,1436969343119,29.257,-16.117,-33.406
366,1436969343138,29.257,-16.117,-33.406
367,1436969343158,29.257,-16.117,-33.778
368,1436969343177,29.257,-16.117,-33.778
369,1436969343204,29.257,-16.117,-33.778
370,1436969343223,29.257,-16.117,-33.778
371,1436969343243,29.257,-16.117,-33.778
372,1436969343261,29.257,-16.117,-34.124
373,1436969343285,29.257,-16.117,-34.124
374,1436969343344,29.257,-16.117,-34.124
375,1436969343355,29.257,-16.117,-34.124
376,1436969343357,29.257,-16.117,-34.124
377,1436969343358,29.257,-16.117,-34.51
378,1436969343378,29.257,-16.117,-34.51
379,1436969343404,29.257,-16.117,-34.51
380,1436969343418,29.257,-16.117,-34.51
381,1436969343438,29.257,-16.117,-34.912
382,1436969343463,29.257,-16.117,-34.912
383,1436969343479,29.257,-16.117,-34.912
384,1436969343500,29.257,-16.117,-34.912
385,1436969343519,29.257,-16.117,-35.241
386,1436969343545,29.257,-16.117,-35.241
387,1436969343561,29.257,-16.117,-35.241
388,1436969343581,29.257,-16.117,-35.241
389,1436969343602,29.257,-16.117,-35.574
390,1436969343620,29.257,-16.117,-35.574
391,1436969343642,29.257,-16.117,-35.574
392,1436969343662,29.257,-16.117,-35.574
393,1436969343680,29.257,-16.117,-35.574
394,1436969343701,29.257,-16.117,-35.574
395,1436969343722,29.257,-16.117,-35.574
396,1436969343740,29.257,-16.117,-35.574
397,1436969343761,29.257,-16.117,-35.574
398,1436969343782,29.257,-16.117,-35.574
399,1436969343802,29.257,-16.117,-35.574
400,1436969343822,29.257,-16.117,-35.574
401,1436969343842,29.257,-16.117,-35.574
402,1436969343859,29.257,-16.117,-35.574
403,1436969343882,29.257,-16.117,-35.574
404,1436969343899,29.257,-16.117,-35.574
405,1436969343920,29.257,-16.117,-35.574
406,1436969343943,29.257,-16.117,-35.574
407,1436969343963,29.257,-16.117,-35.574
408,1436969343983,29.257,-16.117,-35.574
409,1436969344002,29.257,-16.117,-35.574
410,1436969344023,29.257,-16.117,-35.574
411,1436969344095,29.257,-16.117,-35.574
412,1436969344096,29.257,-16.117,-35.574
413,1436969344097,29.257,-16.117,-35.574
414,1436969344099,29.257,-16.117,-35.574
415,1436969344120,29.257,-16.117,-35.574
416,1436969344142,29.257,-16.117,-35.574
417,1436969344158,29.257,-16.117,-35.574
418,1436969344179,29.257,-16.117,-35.574
419,1436969344200,29.257,-16.117,-35.876
420,1436969344221,29.257,-16.117,-35.876
421,1436969344241,29.257,-16.117,-35.876
422,1436969344259,29.257,-16.117,-35.876
423,1436969344280,29.257,-16.117,-35.876
424,1436969344300,29.257,-16.117,-35.876
425,1436969344322,29.257,-16.117,-35.876
426,1436969344342,29.257,-16.117,-35.876
427,1436969344363,29.257,-16.117,-35.876
428,1436969344380,29.576,-16.117,-35.876
429,1436969344403,29.576,-16.117,-35.531
430,1436969344422,29.576,-16.117,-35.531
431,1436969344442,29.576,-16.117,-35.531
432,1436969344463,29.576,-15.808,-35.531
433,1436969344480,29.879,-15.808,-35.531
434,1436969344502,29.879,-15.808,-35.142
435,1436969344522,29.879,-15.808,-35.142
436,1436969344540,29.879,-15.808,-35.142
437,1436969344559,30.218,-15.808,-35.142
438,1436969344579,30.218,-15.808,-34.757
439,1436969344605,30.218,-15.808,-34.757
440,1436969344625,30.218,-15.808,-34.757
441,1436969344645,30.218,-15.808,-34.757
442,1436969344662,30.218,-15.808,-34.425
443,1436969344679,30.218,-15.808,-34.425
444,1436969344699,30.218,-15.808,-34.425
445,1436969344719,30.218,-15.808,-34.425
446,1436969344742,30.218,-15.808,-34.425
447,1436969344761,30.218,-15.808,-34.425
448,1436969344814,30.218,-15.808,-34.425
449,1436969344815,30.218,-15.808,-34.425
450,1436969344833,30.218,-15.808,-34.107
451,1436969344839,30.526,-15.808,-34.107
452,1436969344862,30.526,-15.808,-34.107
453,1436969344884,30.526,-15.808,-34.107
454,1436969344899,30.526,-15.808,-34.107
455,1436969344919,30.526,-15.808,-34.107
456,1436969344944,30.526,-15.808,-33.804
457,1436969344961,30.526,-15.808,-33.804
458,1436969345016,30.526,-15.808,-33.804
459,1436969345019,30.526,-15.808,-33.804
460,1436969345020,30.526,-15.808,-33.804
461,1436969345085,30.526,-15.808,-33.804
462,1436969345086,30.526,-15.808,-33.804
463,1436969345087,30.526,-15.808,-33.804
464,1436969345104,30.526,-15.808,-33.804
465,1436969345119,30.526,-15.808,-33.804
466,1436969345139,30.223,-15.808,-33.804
467,1436969345159,30.223,-15.808,-33.804
468,1436969345179,30.223,-15.808,-33.804
469,1436969345199,30.223,-15.808,-33.804
470,1436969345219,30.223,-15.808,-33.804
471,1436969345239,30.223,-15.808,-33.804
472,1436969345260,30.223,-15.808,-33.804
473,1436969345279,29.914,-15.808,-33.804
474,1436969345303,29.914,-15.808,-33.804
475,1436969345322,29.914,-15.808,-33.804
476,1436969345364,29.914,-15.808,-33.804
477,1436969345365,29.914,-15.808,-33.804
478,1436969345398,29.914,-15.808,-33.499
479,1436969345401,29.914,-15.808,-33.499
480,1436969345420,29.914,-15.808,-33.499
481,1436969345440,29.914,-15.808,-33.499
482,1436969345460,29.914,-15.808,-33.499
483,1436969345480,29.914,-15.808,-33.499
484,1436969345500,29.914,-15.808,-33.499
485,1436969345532,29.914,-15.808,-33.499
486,1436969345547,29.914,-15.808,-33.499
487,1436969345560,29.914,-15.808,-33.499
488,1436969345579,29.598,-15.808,-33.499
489,1436969345599,29.598,-15.808,-33.143
490,1436969345621,29.598,-15.808,-33.143
491,1436969345639,29.598,-15.808,-33.143
492,1436969345659,29.598,-15.808,-33.143
