id,attr_time,attr_db
1,1436379712042,66.3560573349989
2,1436379712594,59.3923965500919
3,1436379713097,39.4928668470171
4,1436379713586,29.0704815643689
5,1436379714098,25.7083398505626
6,1436379714599,45.7973079156251
7,1436379715096,49.8875335183177
8,1436379715577,13.9309643407636
9,1436379716072,43.8472615950783
10,1436379716557,43.5143799003947
11,1436379717073,41.0059305376397
12,1436379717594,66.3063477262622
13,1436379718088,67.0813046523456
14,1436379718605,45.1412818272299
15,1436379719097,15.4544688413509
16,1436379719590,16.0993386829016
17,1436379720078,18.741439198551
18,1436379720575,25.9613002285061
19,1436379721071,29.9480701792101
20,1436379721635,42.3660412032665
21,1436379722117,35.4602682718856
22,1436379722631,65.2451273991519
23,1436379723113,67.4642742645349
24,1436379723654,64.9978469806424
25,1436379724089,58.2826710203018
26,1436379724418,44.0948122228229
27,1436379724841,52.037986837822
28,1436379725313,31.2679259953569
29,1436379725784,60.3457418896932
30,1436379726253,65.8501463910825
31,1436379726723,61.2786354537901
32,1436379727211,54.8673065080591
33,1436379727645,46.3123809756401
34,1436379728098,70.234033862078
35,1436379728589,45.9255965610759
36,1436379729075,19.0310539393656
37,1436379729614,22.1348750029056
38,1436379730049,25.5561165847399
39,1436379730439,35.8518781982606
40,1436379730895,19.4659620831702
41,1436379731382,16.2150565894079
42,1436379731867,49.003774432027
43,1436379732321,43.4785875175963
44,1436379732749,23.1004995413088
45,1436379733189,37.7640652576605
46,1436379733640,28.7713351471495
47,1436379734090,37.8819711944757
48,1436379734543,15.2699373662499
49,1436379734995,9.17897782984355
50,1436379735492,8.54715272519589
51,1436379735956,7.14455992845869
52,1436379736438,12.2006091919883
53,1436379736911,2.33156155130865
54,1436379737422,2.31745535309973
55,1436379737916,1.37829477431406
56,1436379738372,2.46936735134519
57,1436379738866,5.59211629981298
58,1436379739349,8.5556023355608
59,1436379740978,2.03958903467043
60,1436379741940,3.23577567042992
61,1436379742415,3.61776996319271
62,1436379742894,4.81001655782565
63,1436379743383,2.47448083424397
64,1436379743778,16.4379863772027
65,1436379744172,0.7790303067652
66,1436379744595,1.34008138386981
67,1436379745055,6.97767811595721
68,1436379745533,2.49545112361408
69,1436379746989,5.44683273342886
70,1436379747387,0.29114152786221
71,1436379747834,2.35610231179914
72,1436379748300,1.85766823534445
73,1436379748765,3.97550323358976
74,1436379749205,4.25849460319888
75,1436379749650,4.23350259131401
76,1436379750126,2.91923710501284
77,1436379750604,3.71017391592761
78,1436379751107,18.3363892439245
79,1436379751583,19.7369579381489
80,1436379752052,35.8034426484142
81,1436379752614,38.4057778335992
82,1436379754191,7.96402987886221
83,1436379754623,4.65266857880911
84,1436379755086,43.5753005379321
85,1436379755570,44.7368393055821
86,1436379756064,5.09275541789843
87,1436379756559,1.43488057469135
88,1436379757046,4.31975841076508
89,1436379757554,1.57261808355987
90,1436379758869,3.70159102032996
91,1436379759256,3.67753549466565
92,1436379759701,34.6441793285809
93,1436379760166,26.9128317135753
94,1436379760645,44.6337761110636
95,1436379761112,2.95734636903846
96,1436379761584,35.9657636255692
97,1436379762075,29.0778365628964
98,1436379762510,4.2879652213952
99,1436379762904,38.4321992096096
100,1436379763334,38.4252776655174
101,1436379763827,32.2396729740351
102,1436379764301,33.2437141111599
103,1436379764807,14.3844509236704
104,1436379765236,15.1650179162427
105,1436379765667,29.8014215012896
106,1436379766126,36.0496192898054
107,1436379766626,41.5302888689312
108,1436379767061,11.1140707480625
109,1436379767526,6.93242611594121
110,1436379768037,11.2137656261432
111,1436379768538,5.6580198068835
112,1436379769025,6.96069768954761
113,1436379769534,6.13430247882088
114,1436379769985,10.3280883832586
115,1436379770418,2.69498755953898
116,1436379770870,2.03636905701054
117,1436379771357,10.148194872114
118,1436379771824,12.5689842666809
119,1436379772317,2.10985223644454
120,1436379772746,1.83607645327071
121,1436379773203,26.8036179416201
122,1436379773639,3.71017391592761
123,1436379774119,0.387119185497583
124,1436379774605,0.271150979019676
125,1436379775085,4.32241749226084
126,1436379775562,5.3766010810858
127,1436379776046,41.6338485296104
128,1436379776562,11.8127645067044
129,1436379777046,12.3437326867271
130,1436379777531,39.6855004599486
131,1436379777983,6.61942868166077
132,1436379778396,45.7711356142239
133,1436379778786,41.413074741631
134,1436379779128,23.8085233023943
135,1436379779561,39.9294255440712
136,1436379780020,44.2604427306764
137,1436379780499,35.6062786664359
138,1436379780978,15.795078623054
139,1436379781487,16.5254222291304
140,1436379781964,41.2046936587466
141,1436379782478,23.4653017395548
142,1436379782843,44.4043951359015
143,1436379783233,14.9414815057337
144,1436379783593,2.32531944565871
145,1436379784031,4.03813697598285
146,1436379784499,33.6548182173469
147,1436379785004,38.7519178046816
148,1436379785467,12.1222152110083
149,1436379785938,35.2108457337441
150,1436379786384,38.1376008959025
151,1436379786779,33.4083062125649
152,1436379787207,34.135796776022
153,1436379787659,25.8079371673672
154,1436379788183,42.8150662214191
155,1436379788660,41.7949713213677
156,1436379789135,36.8263932773676
157,1436379789604,30.8502681914628
158,1436379790046,23.5510712817425
159,1436379790461,32.9951696798067
160,1436379790912,37.2054764093388
161,1436379791399,40.3826850130691
162,1436379791930,32.3909093709435
163,1436379792413,6.88303791134571
164,1436379792894,40.7997063963825
165,1436379793389,40.5859812925515
166,1436379793866,6.79255907614479
167,1436379794326,29.3639026529258
168,1436379794835,40.9847194334902
169,1436379795296,37.6180127984513
170,1436379795766,2.79709171656025
171,1436379796241,44.5375649283468
172,1436379796715,44.3518705586375
173,1436379797191,19.3759917166487
174,1436379797645,40.553558892212
175,1436379798115,40.9630674520132
176,1436379798597,40.4914267856527
177,1436379799072,45.4534177698078
178,1436379799564,9.39687702770379
179,1436379800042,1.67038314518098
180,1436379800542,7.30102447310627
181,1436379801039,48.2730031098526
182,1436379801542,1.27550198126584
183,1436379802049,5.04030495397137
184,1436379802498,7.36165608977019
185,1436379802865,7.52569824821407
186,1436379803287,44.9620741329532
187,1436379803762,18.1098082623798
188,1436379804243,37.5587644972371
189,1436379804710,39.824456449879
190,1436379805174,37.6089154305023
191,1436379805680,40.2511298427525
192,1436379806156,0.7790303067652
193,1436379806577,5.68162120530735
194,1436379806939,6.81925935752438
195,1436379807365,8.72322006525883
196,1436379807857,1.03081285292561
197,1436379808369,34.020534857414
198,1436379808846,5.95769752777313
199,1436379809322,0.396524589381478
200,1436379809805,8.05368853498362
201,1436379810301,7.18601903695763
202,1436379810783,8.47693558570866
203,1436379811260,5.68205351118231
204,1436379811712,6.03167944146751
205,1436379812181,6.68027195707242
206,1436379812650,5.89329465669934
207,1436379813120,6.69220618741044
208,1436379813566,7.94611963047957
209,1436379814007,3.49637190546232
210,1436379814522,2.86744273783493
211,1436379814984,6.15800486781601
212,1436379815502,0.561190935935153
213,1436379816010,1.84083714927264
214,1436379816529,7.27414008856443
215,1436379816949,5.3766010810858
216,1436379817403,4.3555765631227
217,1436379817869,1.14289040328558
218,1436379818769,5.29737254178058
219,1436379819256,0.826429549291888
220,1436379819751,3.90468762080777
221,1436379820235,33.1681349224208
222,1436379820709,7.93936589713019
223,1436379821204,0.607026871526848
224,1436379821667,3.88353462746188
225,1436379822136,2.48945878833808
226,1436379822636,33.3407958305925
227,1436379823073,44.1620769879693
228,1436379823489,39.6278584127098
229,1436379823955,7.92072664182704
230,1436379824401,20.0619953019183
231,1436379824819,21.4993481710776
232,1436379825250,3.97973440504863
233,1436379825734,1.14289040328558
234,1436379826228,1.67038314518098
235,1436379826701,0.891835653819054
236,1436379827152,20.9445329355345
237,1436379827573,2.82759913751924
238,1436379828010,0.447648278101341
239,1436379828470,2.10335568443034
240,1436379828945,2.48786519331699
241,1436379829451,5.40406979624309
242,1436379829942,31.19700278554
243,1436379830472,29.3411562831218
244,1436379830961,2.08407512237801
245,1436379831408,1.56996711767997
246,1436379831922,2.08407512237801
247,1436379832535,1.59954692124502
248,1436379833161,8.52379362213799
249,1436379833542,2.28455421664694
250,1436379833919,7.24024389086206
251,1436379834380,2.46721578095072
252,1436379834792,37.9717364721723
253,1436379835266,5.16720803795034
254,1436379835787,35.3945261954432
255,1436379836274,1.05717369148387
256,1436379836750,5.02049470569528
257,1436379837230,28.2136116812219
258,1436379838191,0.202959149761108
259,1436379838620,6.05166543607968
260,1436379839035,1.84455462830994
261,1436379839474,6.92484018564412
262,1436379839933,36.2633233396374
263,1436379840367,32.9460942218074
264,1436379840826,2.57000857399895
265,1436379841294,33.5294800051894
266,1436379841780,31.6941907109278
267,1436379842244,36.9905966195897
268,1436379842699,1.56705970689531
269,1436379843119,2.13479378879594
270,1436379843466,1.94596266413911
271,1436379843877,1.7865840707136
272,1436379844310,1.85376065952475
273,1436379844774,1.14289040328558
274,1436379845236,35.3406753087791
275,1436379845648,7.84365264611385
276,1436379846013,39.1437876391736
277,1436379846456,35.5945170322964
278,1436379846928,42.0041306260749
279,1436379847506,42.0092007373369
280,1436379847917,38.1010267321833
281,1436379848378,39.6089817251404
282,1436379848852,7.31920706776191
283,1436379849229,1.5080253407374
284,1436379849649,16.3796762827439
285,1436379850560,22.6550704207425
286,1436379851041,2.2211821917088
287,1436379851537,0.161498977303804
288,1436379852038,10.7977327420888
289,1436379852574,15.2589561589061
290,1436379853055,0.218455834760329
291,1436379853565,5.62114185610682
292,1436379853993,6.30216493560938
293,1436379854500,8.52088055586053
294,1436379854946,2.24345371580351
295,1436379855346,2.68712346697999
296,1436379855836,6.74175163609111
297,1436379856324,2.31745535309973
298,1436379856787,1.52728452742625
299,1436379857282,6.36306147013137
300,1436379857754,1.30499569258596
301,1436379858254,1.44962741972444
302,1436379858746,7.28151601431173
303,1436379859669,4.05977900761216
304,1436379860091,7.06300168004991
305,1436379860500,5.84798502052637
306,1436379860864,2.19065179247934
307,1436379861252,10.1531790158113
308,1436379861629,2.97308049299626
309,1436379862005,7.16233427881304
310,1436379862382,2.30090028524549
311,1436379862750,2.38584853826247
312,1436379863153,4.63252297300545
313,1436379863654,8.41563500939269
314,1436379864082,4.31171964143787
315,1436379864560,6.73552742254059
316,1436379865055,5.68719052301778
317,1436379865448,6.82062429279128
318,1436379865758,7.84665120558025
319,1436379866090,6.46696015258005
320,1436379866437,8.22424481160452
321,1436379866786,4.8525259205206
322,1436379867129,5.6960730222809
323,1436379868219,13.3456066253087
324,1436379868657,7.0454878753629
325,1436379869142,1.6545102188301
326,1436379869619,0.735437293614777
327,1436379870092,4.51352995519329
328,1436379871130,6.76697217829803
329,1436379871559,6.10683074507721
330,1436379871928,1.63007732047447
331,1436379872276,9.08093575290113
332,1436379872596,1.81294490927187
333,1436379872937,29.1695578978629
334,1436379873292,9.09937300043169
335,1436379873661,4.86142995988369
336,1436379874085,0.33557072774137
337,1436379874503,2.19065179247934
338,1436379874951,36.367867784068
339,1436379875298,8.16814546523627
340,1436379875644,8.90479786498291
341,1436379875985,3.86428673796537
342,1436379876328,8.40248138609836
343,1436379876671,7.3446847039585
344,1436379877007,1.16342443090587
345,1436379877341,7.1618281044009
346,1436379878340,19.8289739932283
347,1436379878730,11.1742205218139
348,1436379879125,3.71760887434269
349,1436379879569,6.2473731762711
350,1436379880010,15.4301380636035
351,1436379880492,63.1933127734794
352,1436379880966,70.7265039503945
353,1436379881498,36.5771196628596
354,1436379881875,11.7683710826842
355,1436379882227,6.69086979389476
356,1436379882599,3.16610820651988
357,1436379882948,4.38815159592783
358,1436379883293,8.09706935260728
359,1436379883664,10.7520889396803
360,1436379884010,2.26925766504799
361,1436379884422,7.91954085484389
362,1436379884869,3.61776996319271
363,1436379885332,0.607026871526848
364,1436379885754,10.224009416305
365,1436379886124,4.84605598380575
366,1436379886481,4.35253539169075
367,1436379886824,5.92178564715627
368,1436379887168,1.81724379064547
369,1436379887511,1.66696013444188
370,1436379887846,3.3287488192088
371,1436379888186,5.2964985339676
372,1436379889567,8.51322497874674
373,1436379889944,0.0615451741936099
374,1436379890406,5.93054423379946
375,1436379890890,0.416120513402239
376,1436379891353,0.252451532318215
377,1436379891830,7.63156635775393
378,1436379892303,2.41627200067313
379,1436379892764,0.312561735112722
380,1436379893213,3.149122838823
381,1436379893638,4.53058328760313
382,1436379894114,2.48511692889347
383,1436379894593,9.31692717383524
384,1436379895096,31.6846485846991
385,1436379895584,17.7111262694924
386,1436379896070,2.94642301026734
387,1436379896646,18.3670941171474
388,1436379897079,1.66696013444188
389,1436379897465,2.13176417954372
390,1436379897928,34.5526815108074
391,1436379898414,24.4993987525391
392,1436379898887,1.32527798933974
393,1436379899362,8.61729326905986
394,1436379899834,8.34965121276076
395,1436379900308,3.69035442155968
396,1436379900724,4.71872128981082
397,1436379901151,6.050491984357
398,1436379901580,8.90238300111316
399,1436379902070,3.5081673778411
400,1436379902509,5.88005560504838
401,1436379902986,7.1156340542474
402,1436379903433,4.4323201109336
403,1436379903887,3.88587426104857
404,1436379904252,4.23477884883944
405,1436379904592,2.96191969526656
406,1436379905042,0.416120513402239
407,1436379905505,1.27550198126584
408,1436379905948,1.91488610276668
409,1436379906344,2.96191969526656
410,1436379906773,10.6957286739754
411,1436379907186,3.03311591059097
412,1436379907629,3.68332415841743
413,1436379908194,3.58792151581904
414,1436379908637,1.30499569258596
415,1436379909071,1.72785572231409
416,1436379909537,0.416120513402239
417,1436379910017,2.73181644716007
418,1436379910510,12.9164867761372
419,1436379910977,36.850092500842
420,1436379911451,16.7031989481879
421,1436379911920,22.3448996112469
422,1436379912464,29.4961757936278
423,1436379912953,16.3263757204704
424,1436379913414,8.71990863188359
425,1436379913891,5.55183506991317
426,1436379914345,1.38615175326506
427,1436379914829,7.06406519326121
428,1436379915312,5.40037550698145
429,1436379915785,27.9338847828151
430,1436379916272,28.2978820066553
431,1436379916747,9.2595518516681
432,1436379917273,6.95900881347033
433,1436379917687,30.2182207017919
434,1436379918103,1.50327375985409
435,1436379918520,25.1482780952605
436,1436379918973,33.5232514804143
437,1436379919450,3.07843537541317
438,1436379919894,7.02565770022433
439,1436379920383,0.792828386931454
440,1436379920852,5.06878330616495
441,1436379921326,0.851715999867079
442,1436379921806,1.37829477431406
443,1436379922291,9.04339579658199
444,1436379922770,3.21370224142697
445,1436379923261,0.891835653819054
446,1436379923802,3.97778929483156
447,1436379924170,3.15441266215219
448,1436379924509,2.98808203323319
449,1436379924908,5.77803116881769
450,1436379925241,4.12885205264047
451,1436379925663,6.14327053071516
452,1436379926120,2.19065179247934
453,1436379926683,6.46322017987265
454,1436379927125,1.49540966729511
455,1436379927587,16.1915561608979
456,1436379928078,2.78248924834178
457,1436379928521,3.40107846756311
458,1436379928963,35.9410135079226
459,1436379929426,32.6128351643612
460,1436379929904,28.0125291269102
461,1436379930381,27.7699492839945
462,1436379930822,13.5497587841869
463,1436379931296,24.1508262975907
464,1436379931800,9.09499059356985
465,1436379932300,2.32531944565871
466,1436379932796,6.94283773197727
467,1436379933203,7.72904669447101
468,1436379933654,6.10683074507721
469,1436379934109,7.67245548913682
470,1436379934567,10.4161651382547
471,1436379935010,15.4880487383799
472,1436379935459,33.8339537899195
473,1436379935964,39.942991153502
474,1436379936424,41.4994476417844
475,1436379936903,9.47153657626023
476,1436379937425,41.4648783831085
477,1436379937953,43.8684558280873
478,1436379938469,14.9274468794103
479,1436379938955,25.087450320961
480,1436379939426,39.1817499574682
481,1436379939914,32.769191282089
482,1436379940395,36.0746591958968
483,1436379940865,24.7827167474323
484,1436379941319,4.00387306710044
485,1436379941750,5.26340454161902
486,1436379942217,7.62418237954085
487,1436379942722,21.0907319829503
488,1436379943203,4.76083177407452
489,1436379943817,26.3122572915778
490,1436379945323,38.3003478566052
491,1436379945773,8.98492934351463
492,1436379946244,1.27550198126584
493,1436379946771,5.93054423379946
494,1436379947197,4.41366083493268
495,1436379947650,1.87476644881471
496,1436379948141,3.03083465262957
497,1436379948597,5.53494896179908
498,1436379948930,0.13740495453639
499,1436379949365,1.45709513830421
500,1436379949849,2.95734636903846
501,1436379950363,1.6691736639233
502,1436379950841,0.271150979019676
503,1436379951316,5.66979438333925
504,1436379951794,2.43425728415944
505,1436379952277,5.79948160394473
506,1436379952722,2.40512910031481
507,1436379953181,4.00040772109874
508,1436379953623,0.965258657700892
509,1436379955117,34.0548830498496
510,1436379955504,29.8416672426962
511,1436379955933,24.7353586024719
512,1436379956395,21.4290511183396
513,1436379956860,37.3903149224058
514,1436379957325,44.1151530782331
515,1436379957791,7.68605768853103
516,1436379958187,6.57923730233821
517,1436379958610,1.76564579708348
518,1436379959079,0.878157084632983
519,1436379959565,3.94403891794222
520,1436379960033,1.7697997376878
521,1436379960565,0.765574239568874
522,1436379961035,2.96191969526656
523,1436379961540,2.7963478705687
524,1436379962029,8.52088055586053
525,1436379962531,7.98319208141377
526,1436379962991,2.11544881501321
527,1436379963505,1.69749724218861
528,1436379963949,1.16760134353172
529,1436379964455,17.4029296242113
530,1436379964828,1.83315731708526
531,1436379965259,1.406119324445
532,1436379965703,2.04466701764936
533,1436379966160,4.94525435053644
534,1436379966702,38.0090304493499
535,1436379967102,36.4780126807824
536,1436379967443,2.81335997098923
537,1436379967887,32.6445741513509
538,1436379968370,39.668722979923
539,1436379970121,10.1641613507023
540,1436379970501,3.32027891152831
541,1436379970941,2.04180793611002
542,1436379971397,33.084615779684
543,1436379971816,22.3123893996608
544,1436379972246,29.3317004575959
545,1436379972747,40.3673688295127
546,1436379973233,12.520403516693
547,1436379973704,2.81882107751183
548,1436379974197,6.66096997215573
549,1436379974634,12.2095705523529
550,1436379975093,12.2950545234944
551,1436379975589,15.7672161111469
552,1436379976062,1.25173756250712
553,1436379976548,13.3432992415751
554,1436379977013,2.94642301026734
555,1436379977475,4.46696829106052
556,1436379978881,20.1891223266953
557,1436379979341,2.6144377738781
558,1436379979776,7.43887583822275
559,1436379980251,5.12207113979318
560,1436379980732,3.13784246108419
561,1436379981210,3.47300178471432
562,1436379981685,4.00387306710044
563,1436379982165,1.94596266413911
564,1436379982669,2.54522713168798
565,1436379983149,8.07577617557227
566,1436379983629,41.600840904317
567,1436379984142,4.36126430312331
568,1436379984645,7.25383470827748
569,1436379985123,3.04825172210717
570,1436379985518,2.99299625663899
571,1436379985971,3.12551986332587
572,1436379986490,40.0827887911174
573,1436379986932,16.317984583702
574,1436379987341,2.34438836580517
