id,attr_time,attr_db
1,1436379712526,46.5378085498803
2,1436379713062,39.2899080206481
3,1436379713607,7.48091502924372
4,1436379714133,37.3201184387899
5,1436379714654,46.8623595813206
6,1436379715195,18.8296514296436
7,1436379715736,48.4775009284618
8,1436379716281,43.2514797871765
9,1436379716826,19.2678636966285
10,1436379717366,58.0544890448686
11,1436379717906,60.0920650594259
12,1436379718446,50.0994006653993
13,1436379718988,21.4273966809975
14,1436379719508,31.5371750889654
15,1436379720048,9.83653564967731
16,1436379720587,19.5383195152467
17,1436379721127,19.7499525939312
18,1436379721666,49.8680752125396
19,1436379722205,60.8541268924023
20,1436379722724,66.2019380865521
21,1436379723264,66.486416043642
22,1436379723808,55.9328036103862
23,1436379724349,64.5577551992943
24,1436379724892,64.4260079153756
25,1436379725435,61.9061602295454
26,1436379725975,60.1275443019259
27,1436379726516,70.3676901058867
28,1436379727056,60.9352466638303
29,1436379727573,67.4205443834167
30,1436379728092,70.6537937736078
31,1436379728632,42.9728188811964
32,1436379729177,58.924972843484
33,1436379729720,29.7655892329812
34,1436379730263,61.1128375484039
35,1436379730805,30.338871396088
36,1436379731327,38.8341411522986
37,1436379731873,62.8716264563771
38,1436379732413,33.1077970779834
39,1436379732955,18.440064806692
40,1436379733495,66.1136089593471
41,1436379734035,59.3370669872283
42,1436379734557,52.5606436968399
43,1436379735074,6.55461081090382
44,1436379735595,7.54788444070588
45,1436379736136,22.0599857308559
46,1436379736685,9.99507244580557
47,1436379737224,2.47924610093217
48,1436379737763,2.77566541247038
49,1436379738307,36.8797045645726
50,1436379738845,37.4633090688668
51,1436379739386,43.904928292497
52,1436379739924,49.5025085113843
53,1436379740464,27.5512989292402
54,1436379741003,5.91686027722669
55,1436379741546,7.10569975315905
56,1436379742088,10.8846638200947
57,1436379742624,3.9887540212673
58,1436379743166,3.49301536416345
59,1436379743708,26.4344515438146
60,1436379744253,0.90583386738558
61,1436379744798,0.13740495453639
62,1436379745341,3.42301091499027
63,1436379745884,43.3327786153629
64,1436379746427,39.4358070272679
65,1436379746973,42.5059457432881
66,1436379747516,44.990347979272
67,1436379748040,39.7726690899501
68,1436379748584,25.0810881625036
69,1436379749123,29.5855802700561
70,1436379749663,27.6796380836321
71,1436379750204,8.01957936239306
72,1436379750744,34.4744199099521
73,1436379751285,46.3883564833988
74,1436379751826,58.653597832455
75,1436379752364,67.6293965961252
76,1436379752914,57.2662466512042
77,1436379753452,11.2711649329637
78,1436379753975,56.5068289796006
79,1436379754515,10.7534208330991
80,1436379755058,64.4985617878783
81,1436379755599,63.8510379366429
82,1436379756146,4.52232076194025
83,1436379756667,16.0780066258932
84,1436379757208,48.3663493730737
85,1436379757729,28.3357882544849
86,1436379758273,37.2567184129574
87,1436379758812,23.437286642771
88,1436379759356,14.2203312821669
89,1436379759893,62.5045146029568
90,1436379760437,69.1206395560144
91,1436379760978,37.75115982841
92,1436379761519,51.3775859480448
93,1436379762054,39.4750074367814
94,1436379762594,56.6772706246086
95,1436379763136,54.9758538703052
96,1436379763676,40.0186849046607
97,1436379764196,52.5893981726341
98,1436379764737,48.0181901052715
99,1436379765283,51.8954043544214
100,1436379765826,68.6308182311296
101,1436379766367,66.3834021420186
102,1436379766907,55.6892511175336
103,1436379767450,38.7453626303798
104,1436379767993,45.9843389686645
105,1436379768534,21.4057981090312
106,1436379769075,45.8304275486839
107,1436379769618,41.2250874731514
108,1436379770154,35.4239829995335
109,1436379770674,49.5757784171351
110,1436379771216,43.0601667708397
111,1436379771740,51.7819873954219
112,1436379772285,36.8998751558659
113,1436379772824,36.196173709925
114,1436379773367,40.7957481760578
115,1436379773903,32.605225829455
116,1436379774443,29.0827625184474
117,1436379774986,30.1828797611725
118,1436379775528,32.7741338509771
119,1436379776048,68.1850168783266
120,1436379776594,59.2695723438534
121,1436379777144,47.66905584219
122,1436379777689,41.6852060633182
123,1436379778234,31.0582355255168
124,1436379778775,64.1217023214577
125,1436379779316,65.7526559779308
126,1436379779854,64.927286550199
127,1436379780394,54.1227403539109
128,1436379780934,41.4235812228862
129,1436379781476,44.6330529560826
130,1436379782026,68.5055486197855
131,1436379782619,65.7268121476739
132,1436379783184,22.8222344478615
133,1436379783725,38.9209963720161
134,1436379784265,13.0273603898103
135,1436379784786,38.8482779832969
136,1436379785335,15.6186639650454
137,1436379785878,55.2051753623956
138,1436379786404,58.5965166638913
139,1436379786946,64.7583805120875
140,1436379787518,64.6527247592154
141,1436379788060,41.2006884968442
142,1436379788599,66.1271684301494
143,1436379789139,60.5049443640848
144,1436379789684,55.5723935548341
145,1436379790225,54.4858400957161
146,1436379790762,65.3767929575171
147,1436379791303,70.5061652430276
148,1436379791822,42.5839697177916
149,1436379792364,26.2290515988311
150,1436379792887,62.174445253503
151,1436379793427,57.2573237543849
152,1436379794394,61.936448506821
153,1436379794937,44.1003402419076
154,1436379795479,32.2705649195297
155,1436379796029,57.5864413657767
156,1436379796573,62.5332238332316
157,1436379797115,59.0192474207736
158,1436379797655,64.35762187319
159,1436379798188,65.7394918755435
160,1436379798728,53.868068515793
161,1436379799266,39.2124198665482
162,1436379800293,42.8485257156066
163,1436379800815,55.4640474214368
164,1436379801355,21.5170272694542
165,1436379801896,36.6529221667919
166,1436379802436,49.5504615393921
167,1436379802976,19.6235546616242
168,1436379803515,68.9041914749005
169,1436379804055,50.4753246347797
170,1436379804597,60.3802073039846
171,1436379805137,63.108371470266
172,1436379805655,57.104856883869
173,1436379806195,22.6445031885907
174,1436379807455,29.2864248946874
175,1436379808000,61.851208236202
176,1436379808534,33.5985465364808
177,1436379809053,41.9403251557786
178,1436379809592,38.0698548470891
179,1436379810133,43.6318122444592
180,1436379810654,49.9325237819713
181,1436379811195,46.5911666883122
182,1436379812395,47.4869208985633
183,1436379812918,44.0090197643101
184,1436379813458,39.832778499321
185,1436379813978,36.2026031367584
186,1436379814524,35.1292998796019
187,1436379815066,26.3349225574677
188,1436379815608,25.8509498818417
189,1436379816153,18.7767272490998
190,1436379816695,18.4952050166888
191,1436379817236,13.4900448570528
192,1436379817778,21.1814587828304
193,1436379818323,24.142347771796
194,1436379818866,18.2507391706739
195,1436379819406,10.6801644881057
196,1436379819926,8.95170939186301
197,1436379820466,48.9768855270213
198,1436379821005,26.4885377686872
199,1436379821553,40.9096123395492
200,1436379822096,15.312764660563
201,1436379822637,58.4627282106921
202,1436379823175,40.6433556585663
203,1436379823716,57.4275995659324
204,1436379824255,34.4555924651127
205,1436379824795,42.4047222246901
206,1436379825335,41.4189122305467
207,1436379825875,38.1822709132199
208,1436379826393,34.7736312224418
209,1436379826916,53.8189729162017
210,1436379827459,37.8165348508746
211,1436379827975,28.2950461627574
212,1436379828518,27.2255571651315
213,1436379829038,24.7346540232832
214,1436379829584,25.3989309484553
215,1436379830117,59.8921893766881
216,1436379830655,56.8885453065321
217,1436379831194,27.9021495640307
218,1436379831713,24.3306943222071
219,1436379832255,24.4198904542017
220,1436379832775,33.6110198242664
221,1436379833314,54.4956415886725
222,1436379833835,33.3915727591949
223,1436379834377,20.2242047118531
224,1436379834899,45.3318120257559
225,1436379835416,55.5235628441044
226,1436379835956,18.5966340844606
227,1436379836476,27.1398766464579
228,1436379836996,13.8753174940947
229,1436379837538,35.0904954630524
230,1436379838065,6.00403469922244
231,1436379838607,8.36764573348461
232,1436379839146,7.17585457436558
233,1436379839687,50.9896959188018
234,1436379840226,54.5006489690079
235,1436379840776,36.4765257476893
236,1436379841316,62.199863021663
237,1436379841837,60.5867553563158
238,1436379842381,22.241342799363
239,1436379842925,3.48946793113964
240,1436379843465,9.84471906072926
241,1436379844007,3.7269420478497
242,1436379844556,2.91923710501284
243,1436379845098,9.92954427989083
244,1436379845644,29.00601104352
245,1436379846164,32.1542773973078
246,1436379846704,62.4086041113885
247,1436379847245,54.2077612560554
248,1436379847766,50.1543231719699
249,1436379848308,59.9181878755572
250,1436379848828,41.0472358140428
251,1436379849353,39.0290965959216
252,1436379849908,49.040709189336
253,1436379850427,44.5260029584611
254,1436379850948,0.871434259500103
255,1436379851493,0.934835195290234
256,1436379852034,0.965258657700892
257,1436379852576,3.55774284357942
258,1436379853097,2.6144377738781
259,1436379853635,0.934835195290234
260,1436379854176,2.64790945166943
261,1436379854716,4.55263803403923
262,1436379855261,6.07991077501382
263,1436379855802,5.32727522283689
264,1436379856344,14.1311291579868
265,1436379856865,10.6367637243194
266,1436379857408,13.119606714392
267,1436379857949,14.5546187995159
268,1436379858495,24.8470421202326
269,1436379859037,22.1908687200811
270,1436379859584,21.6640209192099
271,1436379860125,27.10211862905
272,1436379860646,30.4784967345746
273,1436379861187,34.9467507658277
274,1436379861728,38.4609381690597
275,1436379862268,39.5759745873083
276,1436379862808,41.3794635708104
277,1436379863347,41.7027892061987
278,1436379863888,43.0765785876904
279,1436379864433,43.9895676024578
280,1436379864974,44.6607295893287
281,1436379865518,43.4131785072668
282,1436379866058,44.2301487928112
283,1436379866603,41.9784481334272
284,1436379867137,41.1547568716034
285,1436379867658,51.959772603718
286,1436379868199,43.9223529869532
287,1436379868723,36.4548813855788
288,1436379869267,33.7074631466109
289,1436379869803,44.6246503762638
290,1436379870343,26.6629082658012
291,1436379870885,41.852640563845
292,1436379871425,37.0369534269627
293,1436379871965,33.0609154429104
294,1436379872507,18.525183231263
295,1436379873044,35.0195684670902
296,1436379873587,17.0390570823277
297,1436379874105,17.6043455064451
298,1436379874646,58.5162975706695
299,1436379875186,34.981517980048
300,1436379875726,25.7361335192323
301,1436379876245,28.0665235830433
302,1436379876793,30.3611775266589
303,1436379877335,36.9243958319228
304,1436379877877,33.6849743452014
305,1436379878418,36.5587461881491
306,1436379878944,38.2123252748047
307,1436379879485,39.1181948284512
308,1436379880027,39.2460818215747
309,1436379880549,37.9519602012367
310,1436379881089,45.2134553778501
311,1436379881616,40.6805238277348
312,1436379882157,36.9391843450645
313,1436379882706,33.3018386029923
314,1436379883227,30.6878672581393
315,1436379883769,27.7340705839516
316,1436379884308,23.4231476662947
317,1436379884857,25.961356727807
318,1436379885398,25.817138731266
319,1436379885946,25.2426030090867
320,1436379886486,24.9618422163142
321,1436379887026,27.1101400832346
322,1436379887569,27.7546873432732
323,1436379888088,28.550329685598
324,1436379888633,32.1725284257014
325,1436379889152,29.6226087017481
326,1436379889701,33.1401500816132
327,1436379890237,34.2601454682068
328,1436379890776,33.4203561049036
329,1436379891316,30.0086236795121
330,1436379891837,23.6006445211856
331,1436379892378,24.9557901987642
332,1436379892917,24.2839641673562
333,1436379893457,14.9122804314677
334,1436379893974,11.7373757682462
335,1436379894517,11.5745189169668
336,1436379895057,46.8310863246048
337,1436379895606,32.5135711972107
338,1436379896147,8.86887623365208
339,1436379896687,36.6150942545367
340,1436379897227,38.5872851185788
341,1436379897768,53.1781986198704
342,1436379898315,35.4694865329588
343,1436379898836,6.05765708242308
344,1436379899376,4.61770118199367
345,1436379899914,41.4685657740753
346,1436379900457,3.91404321597282
347,1436379901006,4.02027701841251
348,1436379901527,27.6967396707495
349,1436379902067,6.80585889699734
350,1436379902607,3.53425115010999
351,1436379903153,7.07722523583513
352,1436379903694,7.34348212556981
353,1436379904235,8.07446321515286
354,1436379904756,9.27954126550415
355,1436379905296,8.38990868898538
356,1436379905837,13.0710625192653
357,1436379906379,16.8296683551896
358,1436379906926,23.611990287053
359,1436379907464,27.4877297105968
360,1436379908003,31.0331574442499
361,1436379908543,33.5085522330816
362,1436379909097,34.7555465362135
363,1436379909634,31.9988325895742
364,1436379910173,32.0612140285512
365,1436379910716,29.2962238596136
366,1436379911255,27.0709599710707
367,1436379911796,21.8474550926115
368,1436379912336,22.5910382725549
369,1436379912875,28.4455006494723
370,1436379913413,33.3950241567157
371,1436379913953,36.3817697594243
372,1436379914493,37.9988523558237
373,1436379915014,38.7749088619979
374,1436379915554,60.5316827125983
375,1436379916095,50.1112289768382
376,1436379916638,34.2133037696335
377,1436379917154,29.4106714556504
378,1436379917694,42.597759819294
379,1436379918236,30.4812179809451
380,1436379918778,52.8124704410624
381,1436379919304,44.0927670785279
382,1436379919817,30.0021584838949
383,1436379920358,30.9899664870717
384,1436379920905,25.5572943842362
385,1436379921446,21.653710544898
386,1436379921987,20.1729323707856
387,1436379922536,19.8320169512947
388,1436379923078,32.273357054424
389,1436379923604,38.3525424906589
390,1436379924144,33.5996393368892
391,1436379924686,12.0283120148335
392,1436379925229,6.45007306518859
393,1436379925768,41.1478648019838
394,1436379926308,6.2406180989099
395,1436379926829,4.15799936065686
396,1436379927374,45.4162429786007
397,1436379927917,37.8340497220062
398,1436379928455,29.7267516528732
399,1436379928975,4.69862280886922
400,1436379929517,49.6538204544883
401,1436379930055,40.0188829668708
402,1436379930596,38.3930775501231
403,1436379931118,41.7010636405227
404,1436379931634,4.97105074608132
405,1436379932175,32.9003388826077
406,1436379932715,5.34130415816922
407,1436379933257,4.20246172740783
408,1436379933799,38.4958892476967
409,1436379934338,1.14289040328558
410,1436379934876,7.66534521861574
411,1436379935416,30.54076895677
412,1436379935956,16.5537182066465
413,1436379936476,32.8439620869898
414,1436379937015,13.5168572641345
415,1436379937556,38.1372557955751
416,1436379938100,54.0832498717666
417,1436379938644,50.5502500918159
418,1436379939187,52.8478190163278
419,1436379939728,58.605799261147
420,1436379940273,55.2177918407105
421,1436379940795,45.954429565915
422,1436379941337,11.5777486034473
423,1436379941866,29.9921079811497
424,1436379942406,41.6806096060567
425,1436379942946,41.4725745265678
426,1436379943486,55.5328762435953
427,1436379944007,52.3238705785766
428,1436379944528,9.09054767636801
429,1436379945073,41.9573227673909
430,1436379945615,39.2150407576221
431,1436379946154,16.7340186143362
432,1436379946693,16.8372636786844
433,1436379947237,23.7757451233936
434,1436379947773,27.9051208194179
435,1436379948316,28.1948758698999
436,1436379948855,32.7845290887546
437,1436379949375,33.6496380799642
438,1436379949913,36.7216412131619
439,1436379950453,36.9884917949592
440,1436379950974,37.8375651915942
441,1436379951515,37.6131835154451
442,1436379952059,30.4849048777757
443,1436379952596,27.061567027886
444,1436379953117,20.4492566272658
445,1436379953666,15.1390340906446
446,1436379954207,41.2704839290926
447,1436379954749,42.2227993607199
448,1436379955287,50.2059029509996
449,1436379955833,56.8699915740412
450,1436379956373,51.533326312124
451,1436379956913,54.9794934366353
452,1436379957456,31.4088044433282
453,1436379958003,27.6917396361048
454,1436379958545,30.1630130766187
455,1436379959065,32.3320075321098
456,1436379959605,38.5951741006273
457,1436379960124,39.8497483144053
458,1436379960647,40.5588544406957
459,1436379961187,36.7685745986595
460,1436379961729,33.1506435790722
461,1436379962253,24.2029397489064
462,1436379962796,19.2897329106157
463,1436379963339,13.3929750608545
464,1436379963879,10.7329095325859
465,1436379964398,7.12071544479967
466,1436379964917,7.87092288556765
467,1436379965457,7.79687568097775
468,1436379965999,17.4792389235795
469,1436379966542,60.6920382677734
470,1436379967085,63.7738909304623
471,1436379967605,15.3344936078377
472,1436379968147,48.5408187067989
473,1436379968688,62.5696206334456
474,1436379969234,45.2195328136146
475,1436379969777,39.923127462058
476,1436379970314,21.4338376093754
477,1436379970854,22.9495695017483
478,1436379971396,58.1385977735021
479,1436379971939,38.6498165189786
480,1436379972479,58.5428228514604
481,1436379973020,39.0329765192308
482,1436379973565,48.4581202583345
483,1436379974103,33.3670344561025
484,1436379974622,36.7693682801637
485,1436379975164,43.5012411733991
486,1436379975687,50.5652088952809
487,1436379976227,24.3079243709856
488,1436379976768,48.6635994334833
489,1436379977293,39.264901143125
490,1436379977836,68.7123131864623
491,1436379978358,63.1842369880072
492,1436379978904,30.2397270773497
493,1436379979444,31.0189486149444
494,1436379979987,31.5375516391938
495,1436379980532,29.9808225924853
496,1436379981053,26.9673427865178
497,1436379981595,34.112679157526
498,1436379982137,17.8117766130204
499,1436379982687,16.1211370815434
500,1436379983224,9.33755317305302
501,1436379983746,39.5121325509873
502,1436379984288,10.7086052009688
503,1436379984805,5.23101980523047
504,1436379985346,21.1451940472821
505,1436379985886,7.0033712187431
506,1436379986431,53.3730087696575
507,1436379986974,9.13143327343101
508,1436379987516,38.507042384469
509,1436379988058,8.42760775466877
510,1436379988604,16.7276098935816
511,1436379989146,31.1276461623154
512,1436379989687,45.0524329087615
513,1436379990206,54.1141669989739
514,1436379990742,36.2252663583938
515,1436379991283,28.4699330690059
516,1436379991825,25.1659259168115
517,1436379992367,13.1042662985668
518,1436379992885,9.96268898025666
519,1436379993408,51.9809844985572
520,1436379993955,56.2673973009375
521,1436379994499,60.4994015118563
522,1436379995038,8.35050173289746
523,1436379995578,12.5257774217515
524,1436379996116,0.878157084632983
525,1436379996659,3.70159102032996
526,1436379997203,1.11899523102671
527,1436379998596,3.06771746659698
528,1436379999113,4.02901314149049
529,1436379999635,5.24001606666448
530,1436380000157,9.41862503204523
531,1436380000705,43.1543201954746
532,1436380001245,59.030522073952
533,1436380001788,55.4052537054334
534,1436380002328,56.0970376690586
535,1436380002876,47.6873824236228
536,1436380003395,20.0250613852622
537,1436380003936,31.6806099946736
538,1436380004479,22.5899532202779
539,1436380005004,34.9234302471983
540,1436380005547,32.0500203342263
541,1436380006087,29.8167159890425
542,1436380006628,41.2238871690745
543,1436380007175,1.10899420558322
544,1436380008568,25.7363143984197
545,1436380009106,2.13176417954372
546,1436380009647,2.26520924286421
547,1436380010184,1.11314417682225
548,1436380010723,0.13740495453639
549,1436380011245,1.85524758748149
550,1436380011787,2.88589391766358
551,1436380012329,0.13740495453639
552,1436380012867,3.73397088872533
553,1436380013419,3.0321090843886
554,1436380013964,3.77427671343184
555,1436380014506,30.9043950403453
556,1436380015049,6.269780540028
557,1436380015574,2.02198844174209
558,1436380016114,1.73166783105997
559,1436380016633,17.9681541079877
560,1436380017174,48.4626989626355
561,1436380017703,48.1873832438635
562,1436380018246,11.4900475883937
563,1436380018789,3.04169880618862
564,1436380019333,48.820789030924
565,1436380019868,2.47924610093217
566,1436380020415,2.6144377738781
567,1436380020937,54.2297520970369
568,1436380021458,55.098689232382
569,1436380022005,44.35459442088
570,1436380022548,5.66893858850748
571,1436380023706,41.0370286735675
572,1436380024245,40.1427850182482
573,1436380024766,3.99206356203436
574,1436380025307,48.0660357880966
575,1436380025827,35.1659042415607
