id,attr_time,attr_db
1,1436379712238,60.195461934292
2,1436379712926,60.140354766325
3,1436379713523,20.2401956030526
4,1436379714190,10.0893417631256
5,1436379714930,48.9273015099561
6,1436379715640,10.1666008157908
7,1436379716362,44.8021726430861
8,1436379717125,46.3856783234876
9,1436379717991,65.5455100778591
10,1436379718631,47.256427288882
11,1436379719321,47.0451657630252
12,1436379720041,12.1371446086383
13,1436379720783,45.0445980346353
14,1436379721524,48.4728633546346
15,1436379722286,35.2032598353073
16,1436379723025,46.3791785581232
17,1436379723758,43.2253164381061
18,1436379724410,58.2975381377321
19,1436379725147,44.3364199174604
20,1436379725878,58.8254249286964
21,1436379726597,59.4704061352166
22,1436379727370,56.5946924110486
23,1436379728111,63.6435314313199
24,1436379728931,39.1232045162907
25,1436379729628,44.1498612567437
26,1436379730351,51.2841183025725
27,1436379731097,47.3461351373462
28,1436379731833,63.8283853849867
29,1436379732551,53.7290011289085
30,1436379733233,55.2339015629182
31,1436379733961,59.1272291282517
32,1436379734549,37.2666759617106
33,1436379735231,5.06878330616495
34,1436379735945,3.30099834947597
35,1436379736664,6.71694797238036
36,1436379737434,14.1609294619509
37,1436379738132,39.2027138987253
38,1436379738832,46.3991531553066
39,1436379739553,45.6335574295652
40,1436379740260,40.0872183322101
41,1436379740971,5.46778784525274
42,1436379741684,3.99152287358213
43,1436379742431,5.72848783460217
44,1436379743131,3.90894436661121
45,1436379743833,12.4924810001245
46,1436379744470,0.519730763477847
47,1436379745086,5.96968226982061
48,1436379745763,55.0225766287152
49,1436379746496,42.1371726762742
50,1436379747206,38.7966304220972
51,1436379747929,27.5755512831732
52,1436379748636,32.7564116018162
53,1436379749364,39.1282593551708
54,1436379750026,4.97385460567571
55,1436379750697,34.1619282794212
56,1436379751411,47.8188306025149
57,1436379752146,45.2407217646477
58,1436379752887,62.3386087641633
59,1436379753597,4.31975841076508
60,1436379754271,26.7603554675972
61,1436379754919,5.38125907583563
62,1436379755640,65.7905258068937
63,1436379756360,37.5746474304354
64,1436379757104,42.4395399478655
65,1436379757865,34.4322105603416
66,1436379758575,42.626639606536
67,1436379759230,38.4182232257542
68,1436379760024,60.1799661430255
69,1436379760752,60.197621690704
70,1436379761472,5.6941329548675
71,1436379762212,53.8725056293468
72,1436379762950,56.3817180621972
73,1436379763675,44.5560820526284
74,1436379764377,42.8517310383673
75,1436379765076,40.1463002878849
76,1436379765785,47.4156105527204
77,1436379766532,65.5588745478526
78,1436379767256,47.0089195559815
79,1436379768173,40.5581700803789
80,1436379768874,56.3833019059901
81,1436379769488,41.2152361561328
82,1436379770193,41.1411291464551
83,1436379770921,41.4287127407499
84,1436379771649,58.1862709067797
85,1436379772402,36.9502143889368
86,1436379773188,39.3045918148615
87,1436379773977,31.8955461652819
88,1436379774741,27.5123974752865
89,1436379775367,26.2798867609438
90,1436379776044,37.726526210642
91,1436379776785,56.7290422815805
92,1436379777510,51.0444832301898
93,1436379778308,28.1858259237036
94,1436379778990,33.6138770156472
95,1436379779645,52.3419238604771
96,1436379780336,70.7700668503393
97,1436379781030,38.2829662335891
98,1436379781685,67.7905371066373
99,1436379782424,64.8590066344435
100,1436379783193,34.4912531961725
101,1436379783921,43.3040613242447
102,1436379784633,38.481859531534
103,1436379785336,12.9278216701657
104,1436379786074,39.6996428197717
105,1436379786822,50.2798861031315
106,1436379787531,46.0250210935083
107,1436379788321,61.9495783429636
108,1436379789047,67.9621345179939
109,1436379789813,53.309772443351
110,1436379790542,42.6531228360081
111,1436379791273,63.5357537230278
112,1436379791979,40.7443587196466
113,1436379792718,53.3625228859613
114,1436379793456,64.6786521280663
115,1436379794195,46.2043957175195
116,1436379794939,40.9778040839541
117,1436379795583,23.2926056422001
118,1436379796254,57.8492752311248
119,1436379796962,56.9274668043872
120,1436379797711,59.8971521242642
121,1436379798486,56.6515024607237
122,1436379799161,63.7322349969749
123,1436379799809,19.6199829869853
124,1436379800523,43.14831255013
125,1436379801232,44.6884403536361
126,1436379801967,40.3380216145856
127,1436379802761,45.3379781226846
128,1436379803497,66.615430377927
129,1436379804226,39.7023954565506
130,1436379804969,64.0880850466124
131,1436379805697,56.6266139529473
132,1436379806354,18.2832280856877
133,1436379807090,31.5410789000767
134,1436379807834,22.9202190607697
135,1436379808577,29.8281252701637
136,1436379809299,38.5828869571982
137,1436379810023,38.2574412285043
138,1436379810788,47.481619404652
139,1436379811499,46.9679541235735
140,1436379812180,53.271449120291
141,1436379812902,47.4637471850683
142,1436379813632,42.6919483619088
143,1436379814358,32.5043255192649
144,1436379815109,28.077783040402
145,1436379815805,20.1218805721409
146,1436379816390,29.3323934246259
147,1436379818004,15.001780491247
148,1436379818765,12.9920340863068
149,1436379819473,10.3558323179504
150,1436379820157,7.36208292530127
151,1436379820891,10.9485444188382
152,1436379821623,39.8455055962631
153,1436379822331,10.3503963346824
154,1436379823051,34.3883350661858
155,1436379824907,39.7041432055481
156,1436379825578,39.6768111719706
157,1436379826279,41.6004517596012
158,1436379827009,45.4827041314015
159,1436379827755,27.5244517978082
160,1436379828500,25.0879840214034
161,1436379829216,22.1243913510902
162,1436379829932,33.9494430490059
163,1436379831690,27.3480127974664
164,1436379832429,24.7108256877103
165,1436379833098,45.3460381677948
166,1436379833792,24.7284269559691
167,1436379834528,18.8539785833378
168,1436379836448,43.2384424658607
169,1436379837171,41.5751247735476
170,1436379837977,15.5145707758884
171,1436379838675,7.59272651055611
172,1436379839374,8.10856938577752
173,1436379840030,45.151064257075
174,1436379840790,48.3950940255841
175,1436379841502,51.4573111971599
176,1436379842222,64.401648768776
177,1436379842969,6.79441503547622
178,1436379843704,21.6455658779795
179,1436379844420,2.33812374985523
180,1436379845152,9.87308109316325
181,1436379845868,59.4474189061246
182,1436379846566,57.6376553942357
183,1436379847204,49.487386121582
184,1436379847918,40.9059252516297
185,1436379848627,38.5495921270134
186,1436379849371,4.98719023305605
187,1436379850103,37.0540276711068
188,1436379850833,13.2004509233957
189,1436379851564,1.71509486354764
190,1436379852265,2.5497381105679
191,1436379853006,5.53285099320717
192,1436379853741,1.61053650314824
193,1436379854466,2.59205144798603
194,1436379855225,4.3939066994268
195,1436379855933,4.50914325292684
196,1436379856625,9.44334568717682
197,1436379857354,9.15762923884985
198,1436379858099,11.167970252157
199,1436379858848,15.8192833977339
200,1436379859547,17.9259531662972
201,1436379860208,23.4927517862634
202,1436379860990,32.6617282072846
203,1436379861734,36.0732462817598
204,1436379862466,39.292231582332
205,1436379863184,41.4388976557212
206,1436379863904,43.9778812693507
207,1436379864631,43.746100624679
208,1436379865349,44.7316526213285
209,1436379866024,42.2179035216949
210,1436379866746,42.028346203512
211,1436379867443,48.6458891608374
212,1436379868132,38.4939256811295
213,1436379868864,36.0210526599465
214,1436379869580,40.5883403166088
215,1436379870302,47.8804347913351
216,1436379871001,34.8143655266358
217,1436379871748,33.5111561381509
218,1436379872467,40.1380438477426
219,1436379873195,20.9613643542662
220,1436379873916,13.5563393121034
221,1436379874633,26.8598044896481
222,1436379875346,22.4051291003148
223,1436379876014,25.6710337088818
224,1436379876716,28.6416074549908
225,1436379877460,46.196603985504
226,1436379878117,69.1995521573869
227,1436379878806,69.7304140087526
228,1436379879531,39.4691013241877
229,1436379880251,38.8511269497787
230,1436379880940,42.1214876874081
231,1436379881592,39.7870013867446
232,1436379882221,35.9851059246539
233,1436379882908,33.3945552318605
234,1436379883611,27.892861164146
235,1436379884322,20.8712432999715
236,1436379885040,23.4757882541724
237,1436379885786,26.3022668541608
238,1436379886526,21.8893438202271
239,1436379887257,25.1832950168232
240,1436379888013,24.1355678233916
241,1436379888713,27.0814277455828
242,1436379889364,27.637937431231
243,1436379890115,33.4442142250322
244,1436379890862,31.3366932128675
245,1436379891582,28.4700271432548
246,1436379892292,19.3510653573476
247,1436379893027,19.2480174441398
248,1436379893818,8.11537657218375
249,1436379894535,8.68342716962599
250,1436379895254,36.5812773787983
251,1436379895965,6.01090133956956
252,1436379896557,44.3698425964164
253,1436379897203,37.1194354423225
254,1436379897928,45.4942037401513
255,1436379898563,33.5793970878515
256,1436379899245,2.82263151391339
257,1436379899956,40.0156809862477
258,1436379900626,6.66997322731588
259,1436379901355,15.8243923304163
260,1436379902106,5.05037449043335
261,1436379902941,5.35790163438434
262,1436379903612,3.00931893779325
263,1436379904343,4.0964721842451
264,1436379905078,6.94392299338157
265,1436379905810,10.6829830890617
266,1436379906528,15.7780739431394
267,1436379907184,22.3750077630606
268,1436379907808,30.6140696452161
269,1436379908565,31.2009976426449
270,1436379909286,35.0381878838737
271,1436379909986,31.065631614423
272,1436379910636,32.1223494451625
273,1436379911328,27.1378402418581
274,1436379912048,23.8022331907439
275,1436379912771,28.4685985291604
276,1436379913495,32.317539825217
277,1436379914223,37.5773067765766
278,1436379914942,37.7122691013755
279,1436379915661,55.3519308661646
280,1436379916357,39.6422870372302
281,1436379917097,40.4678168895089
282,1436379917852,39.3074509001416
283,1436379918567,42.5768186879392
284,1436379919300,47.8703088397214
285,1436379920031,35.9894946355057
286,1436379920623,38.7110158045611
287,1436379921302,37.568863665454
288,1436379922028,18.8101345581212
289,1436379922786,18.2024643963117
290,1436379923505,31.6165072161046
291,1436379924224,34.8991714378695
292,1436379924960,7.9493746706464
293,1436379925750,17.2199189275221
294,1436379926419,5.35693390114975
295,1436379927185,5.36180628252295
296,1436379927947,39.0355215270765
297,1436379928686,36.8587055670233
298,1436379929414,43.8964297507437
299,1436379930136,36.3213125890352
300,1436379930832,29.7220544781935
301,1436379931485,9.1313570724764
302,1436379932250,40.057536791361
303,1436379932994,2.94082462809605
304,1436379933731,28.105677131104
305,1436379934396,1.7865840707136
306,1436379935128,4.12885205264047
307,1436379935888,43.4937397921025
308,1436379936614,33.4277985112936
309,1436379937332,14.049473569194
310,1436379938108,40.5863868505883
311,1436379938858,52.097750922932
312,1436379939587,57.8314599554453
313,1436379940297,33.9525873115807
314,1436379941018,21.9004860381165
315,1436379941760,43.2223992348051
316,1436379942395,38.9563523654542
317,1436379943170,31.3127941657404
318,1436379943933,37.5590439259845
319,1436379944631,10.1658249955337
320,1436379945364,63.5154296182696
321,1436379946101,14.4066239065918
322,1436379946890,16.9209199697686
323,1436379947668,23.4584554531197
324,1436379948403,43.8932502057989
325,1436379949131,36.5974014853012
326,1436379949864,33.2999432043897
327,1436379950590,36.5430695240108
328,1436379951326,36.3949186318223
329,1436379952056,29.3311975459408
330,1436379952795,23.2727177578241
331,1436379953452,14.3262775513241
332,1436379954194,55.8154015118273
333,1436379954911,38.9774492291268
334,1436379955655,34.7708189885597
335,1436379956361,52.0712616870819
336,1436379957023,70.9858488971064
337,1436379957781,30.0542953237255
338,1436379958517,27.1267341191149
339,1436379959251,37.3755048290036
340,1436379959955,42.1123844621632
341,1436379960571,41.0637979102864
342,1436379961237,35.1608159737845
343,1436379961975,29.5359172815685
344,1436379962710,15.7610193732816
345,1436379963381,11.3401377888433
346,1436379964125,10.5686239288103
347,1436379964862,6.30187951599717
348,1436379965526,4.91352808791209
349,1436379966187,6.65630703303525
350,1436379966885,54.1733064393432
351,1436379967584,15.9561459926755
352,1436379968375,60.8909354764088
353,1436379969071,60.5605019922138
354,1436379969752,54.4399680342051
355,1436379970481,20.2338982047808
356,1436379971213,34.6747915558979
357,1436379971952,37.7878618330148
358,1436379972679,57.3375437944026
359,1436379973378,58.9569091064061
360,1436379974118,32.621218656087
361,1436379974853,46.4368658003792
362,1436379975566,61.2052489697757
363,1436379976279,26.0207343119392
364,1436379976982,40.875951554635
365,1436379977657,33.0636568446528
366,1436379978480,59.4374728541089
367,1436379979194,27.6438466384414
368,1436379979916,33.1270877958715
369,1436379980592,30.2351266832895
370,1436379981187,26.6947886265064
371,1436379981895,24.2114734331279
372,1436379982618,9.74324459895618
373,1436379983354,20.1156630417121
374,1436379984027,13.052753492796
375,1436379984748,6.86326339576861
376,1436379985455,15.1261676145391
377,1436379986196,41.127035083975
378,1436379986945,20.1582113581737
379,1436379987647,40.7794233245539
380,1436379988405,35.2869208770462
381,1436379989124,10.0317323954604
382,1436379989852,50.4611105513174
383,1436379990587,72.9098622592985
384,1436379991325,65.0146247663467
385,1436379992067,40.8274607236702
386,1436379992871,5.96219120455416
387,1436379993586,41.3926916799664
388,1436379994247,50.2454915561104
389,1436379994976,3.07472504232041
390,1436379995770,4.37882296261994
391,1436379996494,1.7697997376878
392,1436379997167,3.81296670897584
393,1436379997961,4.06874184984597
394,1436379998718,3.46037694290148
395,1436379999438,3.45566467389233
396,1436380000185,9.16187621099208
397,1436380000934,40.696762765883
398,1436380001533,51.5553519688145
399,1436380002237,42.9794575537359
400,1436380002974,41.4771460090682
401,1436380003768,8.8586375686254
402,1436380004435,4.51540741707983
403,1436380005135,34.7047291528747
404,1436380005873,47.7854510488726
405,1436380006623,45.4379339765925
406,1436380007342,1.57727539715031
407,1436380008070,5.34952596594652
408,1436380008884,3.96947345921497
409,1436380009601,1.57727539715031
410,1436380010297,3.83049626010841
411,1436380011022,2.05386330187324
412,1436380011757,2.86622032003852
413,1436380012505,1.08459562314124
414,1436380013294,6.86134195131037
415,1436380014023,1.14289040328558
416,1436380014656,3.30660034234224
417,1436380015368,1.10349854602749
418,1436380016100,2.42468992054189
419,1436380016915,12.0437566512732
420,1436380017584,40.6833647966516
421,1436380018275,23.0836314347972
422,1436380019066,2.94642301026734
423,1436380019811,2.73251455756376
424,1436380020685,0.990693198973639
425,1436380022326,9.34195962984113
426,1436380023079,0.588123948640592
427,1436380023833,38.8551248960692
428,1436380024553,36.0429623360028
429,1436380025288,43.0531190440225
430,1436380025969,38.443813537067
431,1436380026631,7.27357039128038
432,1436380027344,4.83829841588485
433,1436380028066,2.77141595561552
434,1436380028663,36.7611981045539
435,1436380029383,41.6991859107963
436,1436380030127,17.3318433622343
437,1436380030904,37.744502756259
438,1436380031562,36.9978760966409
439,1436380033057,42.711030783454
440,1436380033721,59.9106830105472
441,1436380034447,51.1998381785354
442,1436380035180,39.7354151729431
443,1436380035906,66.5729579538777
444,1436380036609,58.3419779579088
445,1436380037203,35.1936165806033
446,1436380037919,46.9672703247292
447,1436380038621,45.4640751696309
448,1436380039333,24.7529141894519
449,1436380040058,19.862917323047
450,1436380040779,19.4938994950289
451,1436380041446,16.5539661220482
452,1436380042176,47.5229106301308
453,1436380042877,43.6715302027281
454,1436380043505,12.6374889500112
455,1436380044169,16.7964871076008
456,1436380044906,21.5782127402298
457,1436380045621,31.8531511630929
458,1436380046290,32.7228527029726
459,1436380047841,31.1093950254247
460,1436380048572,32.0562682936644
461,1436380049295,33.2618986425773
462,1436380050017,35.2299386125969
463,1436380050743,46.0843942256517
464,1436380051377,39.1529078211934
465,1436380052085,39.6206220838319
466,1436380052794,35.8494956519474
467,1436380053568,34.2043376534423
468,1436380054277,29.1140699945893
469,1436380054975,25.1931200580075
470,1436380056388,20.068414205503
471,1436380057046,46.3348879467666
472,1436380057726,30.3910317727172
473,1436380058464,44.3488108319879
474,1436380059254,48.3315593250384
475,1436380059971,43.8429890820851
476,1436380060712,47.2709266433493
477,1436380061375,40.9961416620064
478,1436380062026,50.0538464567592
479,1436380062719,22.5345302219147
480,1436380063443,2.9815018134957
481,1436380064257,40.4362593041689
482,1436380064985,38.0850743946894
483,1436380065734,1.37147963890122
484,1436380066446,1.7451238982563
485,1436380067272,8.8352976156188
486,1436380067864,15.8828079886174
487,1436380068450,2.55369703936846
488,1436380069106,48.6288780621097
489,1436380069863,48.8971585022191
490,1436380070579,2.63946917344425
491,1436380071304,6.79368708629393
492,1436380072018,54.1427508234176
493,1436380072770,51.2107285634469
494,1436380073502,5.69678430511834
495,1436380074324,47.709672209719
496,1436380075073,48.092971114336
497,1436380075812,7.56400334638935
498,1436380076509,26.1610443973027
499,1436380077341,30.7694658641096
500,1436380078017,42.8801923578126
501,1436380078837,43.4669725728262
502,1436380079553,35.2478242122465
503,1436380080273,43.7269350514026
504,1436380080984,52.839891211139
505,1436380081763,30.7948583950143
506,1436380082433,21.6399500547462
507,1436380083163,19.6520354042586
508,1436380083874,16.9290731960483
509,1436380084576,18.9450742373728
510,1436380085278,22.4458979259333
511,1436380085947,18.7750234653286
512,1436380086670,21.6605382191601
513,1436380087402,26.2453036962059
514,1436380088110,29.5991762781082
515,1436380088878,33.4784499342664
516,1436380089590,30.5786825084905
517,1436380090252,27.6313537783137
518,1436380090980,41.5517631699639
519,1436380091684,20.6015359123478
520,1436380092409,22.0684666094621
521,1436380093125,21.9812597126232
522,1436380093864,24.0880657883188
523,1436380094596,44.5260540480204
524,1436380095341,50.5730496097499
525,1436380096074,44.0852369962489
526,1436380096738,33.6682493656123
527,1436380097441,55.5883152277622
528,1436380098117,53.0823395075479
529,1436380098801,26.9878833710817
530,1436380099518,45.1470928148693
531,1436380100249,44.3435416170399
532,1436380100972,28.8251936081687
533,1436380101691,23.9098120445139
534,1436380102411,22.3254918685555
535,1436380103137,18.0490383462456
536,1436380103827,12.9848936555986
537,1436380104502,23.5837623733194
538,1436380105222,9.18583166264
539,1436380105934,57.6403401879903
540,1436380106601,54.2176449627276
541,1436380107407,40.5807456857714
542,1436380108141,31.2309593319069
543,1436380108902,48.9195039427489
544,1436380109622,25.9379947049005
545,1436380110348,57.6122611129308
546,1436380111090,48.7796264032524
547,1436380111867,29.0418612145573
548,1436380112583,26.931476021363
549,1436380113293,49.0226556826709
550,1436380114007,50.2956701957176
551,1436380114770,47.2491847741996
552,1436380115489,40.9620508561251
553,1436380116213,51.3671706659811
554,1436380116945,38.7550707743804
555,1436380117758,34.9937302248191
556,1436380118515,54.4740004739891
557,1436380119184,62.0604064105079
558,1436380119915,38.9000094554761
559,1436380120628,39.9762205700161
560,1436380121338,37.0069621449582
561,1436380122058,26.1727012777647
562,1436380122760,22.6785882823686
563,1436380123511,14.0879464630298
564,1436380124206,11.1825149688734
565,1436380124937,6.33070627321329
566,1436380125632,8.76177632620567
567,1436380126228,24.3349888283883
568,1436380126937,15.5807995676774
569,1436380127654,44.2363365312504
570,1436380128332,53.1331564982791
571,1436380129009,31.4944231113449
572,1436380129724,6.25552189446526
573,1436380130393,5.75374018486844
574,1436380131108,10.9413392009733
575,1436380131822,8.27220556739908
