id,attr_time,attr_light
1,1436964110458,0.0
2,1436964110459,0.0
3,1436964110484,0.0
4,1436964110485,0.0
5,1436964110499,0.0
6,1436964110518,0.0
7,1436964110537,0.0
8,1436964110557,0.0
9,1436964110578,0.0
10,1436964110598,0.0
11,1436964110617,0.0
12,1436964110640,0.0
13,1436964110661,0.0
14,1436964110680,0.0
15,1436964110700,0.0
16,1436964110720,0.0
17,1436964110737,0.0
18,1436964110761,0.0
19,1436964110778,0.0
20,1436964110799,0.0
21,1436964110819,0.0
22,1436964110839,0.0
23,1436964110861,0.0
24,1436964110881,0.0
25,1436964110902,0.0
26,1436964110921,0.0
27,1436964110940,0.0
28,1436964110958,0.0
29,1436964110980,0.0
30,1436964110998,0.0
31,1436964111020,0.0
32,1436964111086,0.0
33,1436964111087,0.0
34,1436964111088,0.0
35,1436964111098,0.0
36,1436964111122,0.0
37,1436964111139,0.0
38,1436964111159,0.0
39,1436964111180,0.0
40,1436964111198,0.0
41,1436964111222,0.0
42,1436964111238,0.0
43,1436964111260,0.0
44,1436964111281,0.0
45,1436964111300,0.0
46,1436964111321,0.0
47,1436964111341,0.0
48,1436964111359,0.0
49,1436964111378,0.0
50,1436964111399,0.0
51,1436964111418,0.0
52,1436964111440,0.0
53,1436964111459,0.0
54,1436964111479,0.0
55,1436964111500,0.0
56,1436964111521,0.0
57,1436964111540,0.0
58,1436964111559,0.0
59,1436964111582,0.0
60,1436964111602,0.0
61,1436964111622,0.0
62,1436964111640,0.0
63,1436964111660,0.0
64,1436964111679,0.0
65,1436964111699,0.0
66,1436964111720,0.0
67,1436964111739,0.0
68,1436964111829,0.0
69,1436964111830,0.0
70,1436964111831,0.0
71,1436964111832,0.0
72,1436964111876,0.0
73,1436964111887,0.0
74,1436964111888,0.0
75,1436964111899,0.0
76,1436964111933,0.0
77,1436964111952,0.0
78,1436964111962,0.0
79,1436964111979,0.0
80,1436964112004,0.0
81,1436964112019,0.0
82,1436964112040,0.0
83,1436964112062,0.0
84,1436964112082,0.0
85,1436964112100,0.0
86,1436964112121,0.0
87,1436964112140,0.0
88,1436964112162,0.0
89,1436964112182,0.0
90,1436964112200,0.0
91,1436964112221,0.0
92,1436964112240,0.0
93,1436964112262,0.0
94,1436964112279,0.0
95,1436964112299,0.0
96,1436964112325,0.0
97,1436964112339,0.0
98,1436964112359,0.0
99,1436964112379,0.0
100,1436964112399,0.0
101,1436964112419,0.0
102,1436964112440,0.0
103,1436964112459,0.0
104,1436964112479,0.0
105,1436964112501,0.0
106,1436964112551,0.0
107,1436964112552,0.0
108,1436964112560,0.0
109,1436964112579,0.0
110,1436964112599,0.0
111,1436964112619,0.0
112,1436964112639,0.0
113,1436964112661,0.0
114,1436964112679,0.0
115,1436964112700,0.0
116,1436964112727,0.0
117,1436964112741,0.0
118,1436964112760,0.0
119,1436964112780,0.0
120,1436964112800,0.0
121,1436964112823,0.0
122,1436964112841,0.0
123,1436964112860,0.0
124,1436964112881,0.0
125,1436964112903,0.0
126,1436964112923,0.0
127,1436964112940,0.0
128,1436964112961,0.0
129,1436964112980,0.0
130,1436964112999,0.0
131,1436964113021,0.0
132,1436964113042,0.0
133,1436964113061,0.0
134,1436964113080,0.0
135,1436964113100,0.0
136,1436964113120,0.0
137,1436964113147,0.0
138,1436964113161,0.0
139,1436964113181,0.0
140,1436964113201,0.0
141,1436964113224,0.0
142,1436964113287,0.0
143,1436964113288,0.0
144,1436964113289,0.0
145,1436964113312,0.0
146,1436964113320,0.0
147,1436964113341,0.0
148,1436964113362,0.0
149,1436964113380,0.0
150,1436964113425,0.0
151,1436964113426,0.0
152,1436964113447,0.0
153,1436964113469,0.0
154,1436964113489,0.0
155,1436964113512,0.0
156,1436964113520,0.0
157,1436964113548,0.0
158,1436964113564,0.0
159,1436964113580,0.0
160,1436964113600,0.0
161,1436964113620,0.0
162,1436964113644,0.0
163,1436964113660,0.0
164,1436964113680,0.0
165,1436964113702,0.0
166,1436964113721,0.0
167,1436964113742,0.0
168,1436964113761,0.0
169,1436964113780,0.0
170,1436964113801,0.0
171,1436964113822,0.0
172,1436964113842,0.0
173,1436964113860,0.0
174,1436964113881,0.0
175,1436964113902,0.0
176,1436964113920,0.0
177,1436964113945,0.0
178,1436964113960,0.0
179,1436964113981,0.0
180,1436964114001,0.0
181,1436964114021,0.0
182,1436964114040,0.0
183,1436964114060,0.0
184,1436964114083,0.0
185,1436964114101,0.0
186,1436964114121,0.0
187,1436964114145,0.0
188,1436964114163,0.0
189,1436964114182,0.0
190,1436964114202,0.0
191,1436964114224,0.0
192,1436964114243,0.0
193,1436964114264,0.0
194,1436964114281,0.0
195,1436964114303,0.0
196,1436964114324,0.0
197,1436964114343,0.0
198,1436964114368,0.0
199,1436964114383,0.0
200,1436964114403,0.0
201,1436964114425,0.0
202,1436964114443,0.0
203,1436964114464,0.0
204,1436964114481,0.0
205,1436964114501,0.0
206,1436964114521,0.0
207,1436964114543,0.0
208,1436964114564,0.0
209,1436964114585,0.0
210,1436964114603,0.0
211,1436964114766,0.0
212,1436964114777,0.0
213,1436964114778,0.0
214,1436964114779,0.0
215,1436964114780,0.0
216,1436964114781,0.0
217,1436964114782,0.0
218,1436964114783,0.0
219,1436964114784,0.0
220,1436964114802,0.0
221,1436964114824,0.0
222,1436964114841,0.0
223,1436964114861,0.0
224,1436964114894,0.0
225,1436964114903,0.0
226,1436964114922,0.0
227,1436964114941,0.0
228,1436964114964,0.0
229,1436964114982,0.0
230,1436964115006,0.0
231,1436964115024,0.0
232,1436964115045,0.0
233,1436964115066,0.0
234,1436964115085,0.0
235,1436964115105,0.0
236,1436964115124,0.0
237,1436964115145,0.0
238,1436964115166,0.0
239,1436964115182,0.0
240,1436964115205,0.0
241,1436964115225,0.0
242,1436964115245,0.0
243,1436964115266,0.0
244,1436964115285,0.0
245,1436964115306,0.0
246,1436964115325,0.0
247,1436964115344,0.0
248,1436964115366,0.0
249,1436964115386,0.0
250,1436964115406,0.0
251,1436964115425,0.0
252,1436964115445,0.0
253,1436964115497,0.0
254,1436964115498,0.0
255,1436964115522,0.0
256,1436964115523,0.0
257,1436964115544,0.0
258,1436964115567,0.0
259,1436964115582,0.0
260,1436964115603,0.0
261,1436964115625,0.0
262,1436964115643,0.0
263,1436964115665,0.0
264,1436964115682,0.0
265,1436964115708,0.0
266,1436964115722,0.0
267,1436964115745,1.0
268,1436964115766,1.0
269,1436964115786,1.0
270,1436964115806,1.0
271,1436964115825,1.0
272,1436964115845,1.0
273,1436964115866,3.0
274,1436964115886,3.0
275,1436964115904,6.0
276,1436964115925,6.0
277,1436964115946,6.0
278,1436964115963,6.0
279,1436964115983,5.0
280,1436964116003,5.0
281,1436964116029,4.0
282,1436964116059,4.0
283,1436964116062,3.0
284,1436964116082,3.0
285,1436964116102,3.0
286,1436964116123,3.0
287,1436964116143,3.0
288,1436964116165,3.0
289,1436964116228,4.0
290,1436964116229,4.0
291,1436964116230,5.0
292,1436964116246,5.0
293,1436964116263,3.0
294,1436964116285,3.0
295,1436964116304,1.0
296,1436964116323,1.0
297,1436964116343,0.0
298,1436964116363,0.0
299,1436964116386,0.0
300,1436964116407,0.0
301,1436964116424,0.0
302,1436964116443,0.0
303,1436964116466,1.0
304,1436964116486,1.0
305,1436964116506,7.0
306,1436964116526,238.0
307,1436964116546,238.0
308,1436964116566,841.0
309,1436964116586,841.0
310,1436964116606,839.0
311,1436964116626,839.0
312,1436964116643,663.0
313,1436964116666,663.0
314,1436964116687,530.0
315,1436964116706,530.0
316,1436964116726,502.0
317,1436964116747,502.0
318,1436964116766,529.0
319,1436964116787,529.0
320,1436964116807,654.0
321,1436964116827,654.0
322,1436964116847,878.0
323,1436964116867,878.0
324,1436964116886,1100.0
325,1436964116906,1100.0
326,1436964116964,1323.0
327,1436964116967,1323.0
328,1436964116968,1335.0
329,1436964116988,1335.0
330,1436964117007,1313.0
331,1436964117029,1313.0
332,1436964117044,1265.0
333,1436964117064,1265.0
334,1436964117087,352.0
335,1436964117105,352.0
336,1436964117125,155.0
337,1436964117144,155.0
338,1436964117168,73.0
339,1436964117187,73.0
340,1436964117207,30.0
341,1436964117227,30.0
342,1436964117247,13.0
343,1436964117267,13.0
344,1436964117287,8.0
345,1436964117307,8.0
346,1436964117327,4.0
347,1436964117347,3.0
348,1436964117366,3.0
349,1436964117386,2.0
350,1436964117407,2.0
351,1436964117531,0.0
352,1436964117532,0.0
353,1436964117533,0.0
354,1436964117534,0.0
355,1436964117535,0.0
356,1436964117536,0.0
357,1436964117551,0.0
358,1436964117564,0.0
359,1436964117584,0.0
360,1436964117605,0.0
361,1436964117624,5.0
362,1436964117644,5.0
363,1436964117691,446.0
364,1436964117692,446.0
365,1436964117706,1196.0
366,1436964117724,1196.0
367,1436964117745,1430.0
368,1436964117764,1430.0
369,1436964117785,1598.0
370,1436964117809,1598.0
371,1436964117826,1687.0
372,1436964117846,1687.0
373,1436964117864,1674.0
374,1436964117885,1674.0
375,1436964117904,1558.0
376,1436964117926,1558.0
377,1436964117949,1614.0
378,1436964117965,1614.0
379,1436964117985,1659.0
380,1436964118004,1659.0
381,1436964118025,1590.0
382,1436964118048,1590.0
383,1436964118068,1520.0
384,1436964118087,1520.0
385,1436964118108,1228.0
386,1436964118125,1228.0
387,1436964118145,768.0
388,1436964118165,1237.0
389,1436964118190,382.0
390,1436964118210,186.0
391,1436964118231,186.0
392,1436964118248,183.0
393,1436964118265,183.0
394,1436964118285,112.0
395,1436964118306,112.0
396,1436964118326,44.0
397,1436964118346,44.0
398,1436964118403,28.0
399,1436964118416,28.0
400,1436964118417,13.0
401,1436964118426,13.0
402,1436964118454,9.0
403,1436964118467,9.0
404,1436964118485,9.0
405,1436964118506,9.0
406,1436964118525,6.0
407,1436964118548,6.0
408,1436964118569,5.0
409,1436964118586,5.0
410,1436964118606,4.0
411,1436964118626,4.0
412,1436964118652,5.0
413,1436964118665,5.0
414,1436964118685,12.0
415,1436964118706,12.0
416,1436964118726,55.0
417,1436964118745,55.0
418,1436964118783,1085.0
419,1436964118796,1085.0
420,1436964118807,1595.0
421,1436964118827,1595.0
422,1436964118846,1667.0
423,1436964118865,1667.0
424,1436964118888,1751.0
425,1436964118906,1751.0
426,1436964118926,1769.0
427,1436964118945,1769.0
428,1436964118965,1725.0
429,1436964118985,1614.0
430,1436964119006,1614.0
431,1436964119026,1727.0
432,1436964119049,1727.0
433,1436964119066,1783.0
434,1436964119086,1783.0
435,1436964119123,1778.0
436,1436964119134,1778.0
437,1436964119146,1737.0
438,1436964119166,1737.0
439,1436964119186,1724.0
440,1436964119206,1724.0
441,1436964119226,1716.0
442,1436964119247,1716.0
443,1436964119265,720.0
444,1436964119286,720.0
445,1436964119306,242.0
446,1436964119326,242.0
447,1436964119347,158.0
448,1436964119368,158.0
449,1436964119388,57.0
450,1436964119406,57.0
451,1436964119426,25.0
452,1436964119447,25.0
453,1436964119470,18.0
454,1436964119490,18.0
455,1436964119510,10.0
456,1436964119530,10.0
457,1436964119547,9.0
458,1436964119567,9.0
459,1436964119587,10.0
460,1436964119605,10.0
461,1436964119625,7.0
462,1436964119649,7.0
463,1436964119668,11.0
464,1436964119690,11.0
465,1436964119710,10.0
466,1436964119730,10.0
467,1436964119745,7.0
468,1436964119767,7.0
469,1436964119788,17.0
470,1436964119806,58.0
471,1436964119878,58.0
472,1436964119879,1140.0
473,1436964119880,1140.0
474,1436964119886,1701.0
475,1436964119907,1701.0
476,1436964119928,1766.0
477,1436964119947,1766.0
478,1436964119971,1835.0
479,1436964119986,1835.0
480,1436964120007,1856.0
481,1436964120032,1856.0
482,1436964120047,1847.0
483,1436964120066,1847.0
484,1436964120086,1771.0
485,1436964120108,1771.0
486,1436964120130,1824.0
487,1436964120147,1824.0
488,1436964120172,1872.0
489,1436964120190,1872.0
490,1436964120210,1866.0
491,1436964120230,1866.0
492,1436964120250,1852.0
493,1436964120268,1852.0
494,1436964120289,1859.0
495,1436964120310,1859.0
496,1436964120329,1844.0
497,1436964120350,1844.0
498,1436964120369,1178.0
499,1436964120390,1178.0
500,1436964120409,600.0
501,1436964120432,600.0
502,1436964120452,266.0
503,1436964120469,266.0
504,1436964120489,73.0
505,1436964120509,73.0
506,1436964120528,26.0
507,1436964120592,26.0
508,1436964120593,19.0
509,1436964120594,19.0
510,1436964120614,11.0
511,1436964120628,9.0
512,1436964120650,9.0
513,1436964120667,9.0
514,1436964120687,9.0
515,1436964120711,11.0
516,1436964120727,11.0
517,1436964120748,5.0
518,1436964120769,5.0
519,1436964120789,4.0
520,1436964120808,4.0
521,1436964120830,4.0
522,1436964120850,4.0
523,1436964120870,25.0
524,1436964120890,25.0
525,1436964120910,590.0
526,1436964120930,590.0
527,1436964120950,1793.0
528,1436964120970,1793.0
529,1436964120989,1915.0
530,1436964121009,1915.0
531,1436964121031,1948.0
532,1436964121051,1948.0
533,1436964121071,1964.0
534,1436964121094,1964.0
535,1436964121110,1964.0
536,1436964121128,1964.0
537,1436964121148,1955.0
538,1436964121169,1955.0
539,1436964121190,1928.0
540,1436964121224,1928.0
541,1436964121228,1965.0
542,1436964121247,1965.0
543,1436964121268,1982.0
544,1436964121299,1982.0
545,1436964121318,1960.0
546,1436964121329,1960.0
547,1436964121348,1923.0
548,1436964121368,1923.0
549,1436964121389,1943.0
550,1436964121417,1935.0
551,1436964121430,1935.0
552,1436964121448,1526.0
553,1436964121468,1526.0
554,1436964121493,1137.0
555,1436964121508,1137.0
556,1436964121529,839.0
557,1436964121548,839.0
558,1436964121569,402.0
559,1436964121590,402.0
560,1436964121608,104.0
561,1436964121630,104.0
562,1436964121650,53.0
563,1436964121671,53.0
564,1436964121690,19.0
565,1436964121710,19.0
566,1436964121730,13.0
567,1436964121751,13.0
568,1436964121770,11.0
569,1436964121790,11.0
570,1436964121811,9.0
571,1436964121828,9.0
572,1436964121848,7.0
573,1436964121868,7.0
574,1436964121893,5.0
575,1436964121913,5.0
576,1436964121930,8.0
577,1436964121951,8.0
578,1436964121968,19.0
579,1436964121989,19.0
580,1436964122008,420.0
581,1436964122029,420.0
582,1436964122052,1443.0
583,1436964122109,1443.0
584,1436964122110,1821.0
585,1436964122111,1821.0
586,1436964122131,2026.0
587,1436964122149,2026.0
588,1436964122171,2126.0
589,1436964122189,2126.0
590,1436964122208,2132.0
591,1436964122230,2089.0
592,1436964122250,2089.0
593,1436964122270,2065.0
594,1436964122289,2065.0
595,1436964122309,2126.0
596,1436964122329,2126.0
597,1436964122350,2114.0
598,1436964122369,2114.0
599,1436964122389,2059.0
600,1436964122409,2059.0
601,1436964122429,2037.0
602,1436964122449,2037.0
603,1436964122469,2052.0
604,1436964122494,2052.0
605,1436964122512,1990.0
606,1436964122552,1990.0
607,1436964122553,691.0
608,1436964122581,691.0
609,1436964122589,251.0
610,1436964122609,251.0
611,1436964122661,125.0
612,1436964122662,125.0
613,1436964122672,27.0
614,1436964122689,27.0
615,1436964122716,24.0
616,1436964122730,24.0
617,1436964122751,26.0
618,1436964122778,26.0
619,1436964122837,14.0
620,1436964122839,14.0
621,1436964122840,15.0
622,1436964122849,15.0
623,1436964122869,12.0
624,1436964122890,12.0
625,1436964122911,8.0
626,1436964122929,8.0
627,1436964122949,6.0
628,1436964122970,6.0
629,1436964122990,5.0
630,1436964123012,5.0
631,1436964123030,6.0
632,1436964123049,12.0
633,1436964123071,12.0
634,1436964123093,552.0
635,1436964123112,552.0
636,1436964123130,1591.0
637,1436964123150,1591.0
638,1436964123173,1887.0
639,1436964123193,1887.0
640,1436964123212,2088.0
641,1436964123230,2088.0
642,1436964123251,2172.0
643,1436964123278,2172.0
644,1436964123290,2158.0
645,1436964123312,2158.0
646,1436964123331,2080.0
647,1436964123350,2080.0
648,1436964123373,2092.0
649,1436964123393,2092.0
650,1436964123439,2169.0
651,1436964123440,2169.0
652,1436964123451,2152.0
653,1436964123471,2152.0
654,1436964123493,2100.0
655,1436964123513,2100.0
656,1436964123533,2100.0
657,1436964123596,2100.0
658,1436964123608,2109.0
659,1436964123609,2109.0
660,1436964123610,1916.0
661,1436964123633,1916.0
662,1436964123658,583.0
663,1436964123670,583.0
664,1436964123690,359.0
665,1436964123758,359.0
666,1436964123759,173.0
667,1436964123760,173.0
668,1436964123800,25.0
669,1436964123801,25.0
670,1436964123811,14.0
671,1436964123833,14.0
672,1436964123851,14.0
673,1436964123871,15.0
674,1436964123891,15.0
675,1436964123913,19.0
676,1436964123931,19.0
677,1436964123953,10.0
678,1436964123972,10.0
679,1436964123991,6.0
680,1436964124011,6.0
681,1436964124034,6.0
682,1436964124052,6.0
683,1436964124077,4.0
684,1436964124094,4.0
685,1436964124112,4.0
686,1436964124136,4.0
687,1436964124157,17.0
688,1436964124171,17.0
689,1436964124190,907.0
690,1436964124211,907.0
691,1436964124230,1795.0
692,1436964124257,1795.0
693,1436964124271,2008.0
694,1436964124293,2008.0
695,1436964124311,2093.0
696,1436964124335,2093.0
697,1436964124394,2149.0
698,1436964124395,2149.0
699,1436964124396,2143.0
700,1436964124419,2143.0
701,1436964124431,2123.0
702,1436964124454,2123.0
703,1436964124471,2144.0
704,1436964124491,2144.0
705,1436964124515,2188.0
706,1436964124531,2188.0
707,1436964124554,2144.0
708,1436964124578,2144.0
709,1436964124592,2120.0
710,1436964124611,2120.0
711,1436964124634,2156.0
712,1436964124653,2156.0
713,1436964124674,2107.0
714,1436964124693,8106.0
715,1436964124713,535.0
716,1436964124735,41.0
717,1436964124753,41.0
718,1436964124774,19.0
719,1436964124793,19.0
720,1436964124818,8.0
721,1436964124835,8.0
722,1436964124854,5.0
723,1436964124875,5.0
724,1436964124894,2.0
725,1436964124915,2.0
726,1436964124934,2.0
727,1436964124953,2.0
728,1436964124975,4.0
729,1436964124992,4.0
730,1436964125015,2.0
731,1436964125035,2.0
732,1436964125052,1.0
733,1436964125072,1.0
734,1436964125136,0.0
735,1436964125137,0.0
736,1436964125138,0.0
737,1436964125160,0.0
738,1436964125171,0.0
739,1436964125195,0.0
740,1436964125212,3.0
741,1436964125231,3.0
742,1436964125252,288.0
743,1436964125271,288.0
744,1436964125297,965.0
745,1436964125314,965.0
746,1436964125333,1530.0
747,1436964125352,1530.0
748,1436964125375,1960.0
749,1436964125396,1960.0
750,1436964125415,2287.0
751,1436964125435,2287.0
752,1436964125456,2346.0
753,1436964125475,2346.0
754,1436964125495,2308.0
755,1436964125514,2318.0
756,1436964125535,2318.0
757,1436964125553,2394.0
758,1436964125576,2394.0
759,1436964125595,2401.0
760,1436964125615,2401.0
761,1436964125635,2362.0
762,1436964125655,2362.0
763,1436964125675,2361.0
764,1436964125695,2361.0
765,1436964125715,2366.0
766,1436964125736,2366.0
767,1436964125756,2145.0
768,1436964125776,2145.0
769,1436964125795,864.0
770,1436964125817,864.0
771,1436964125878,564.0
772,1436964125879,564.0
773,1436964125880,137.0
774,1436964125899,137.0
775,1436964125915,31.0
776,1436964125939,31.0
777,1436964125952,42.0
778,1436964125972,42.0
779,1436964126006,32.0
780,1436964126013,32.0
781,1436964126038,18.0
782,1436964126053,18.0
783,1436964126079,14.0
784,1436964126095,14.0
785,1436964126116,13.0
786,1436964126136,13.0
787,1436964126156,10.0
788,1436964126176,10.0
789,1436964126196,7.0
790,1436964126216,7.0
791,1436964126235,5.0
792,1436964126256,5.0
793,1436964126273,6.0
794,1436964126295,6.0
795,1436964126315,16.0
796,1436964126337,512.0
797,1436964126355,512.0
798,1436964126376,1702.0
799,1436964126395,1702.0
800,1436964126416,2093.0
801,1436964126433,2093.0
802,1436964126456,2353.0
803,1436964126476,2353.0
804,1436964126496,2529.0
805,1436964126515,2529.0
806,1436964126538,2567.0
807,1436964126600,2567.0
808,1436964126601,2545.0
809,1436964126611,2545.0
810,1436964126613,2539.0
811,1436964126634,2539.0
812,1436964126659,2589.0
813,1436964126675,2589.0
814,1436964126693,2605.0
815,1436964126716,2605.0
816,1436964126735,2599.0
817,1436964126754,2599.0
818,1436964126773,2598.0
819,1436964126799,2598.0
820,1436964126815,2601.0
821,1436964126836,2601.0
822,1436964126856,1884.0
823,1436964126876,1884.0
824,1436964126896,299.0
825,1436964126916,299.0
826,1436964126936,111.0
827,1436964126956,111.0
828,1436964126976,31.0
829,1436964126994,31.0
830,1436964127016,37.0
831,1436964127036,37.0
832,1436964127054,40.0
833,1436964127090,40.0
834,1436964127093,31.0
835,1436964127115,216.0
836,1436964127135,19.0
837,1436964127155,16.0
838,1436964127173,16.0
839,1436964127195,11.0
840,1436964127214,11.0
841,1436964127236,8.0
842,1436964127256,8.0
843,1436964127274,6.0
844,1436964127328,6.0
845,1436964127329,4.0
846,1436964127347,4.0
847,1436964127356,4.0
848,1436964127377,4.0
849,1436964127397,12.0
850,1436964127413,12.0
851,1436964127440,486.0
852,1436964127458,486.0
853,1436964127475,2017.0
854,1436964127496,2017.0
855,1436964127515,2385.0
856,1436964127538,2385.0
857,1436964127557,2518.0
858,1436964127576,2518.0
859,1436964127597,2535.0
860,1436964127617,2535.0
861,1436964127637,2510.0
862,1436964127657,2510.0
863,1436964127677,2487.0
864,1436964127697,2487.0
865,1436964127717,2466.0
