id,attr_time,attr_light
1,1436964110434,265.0
2,1436964110461,265.0
3,1436964110474,267.0
4,1436964110495,267.0
5,1436964110514,269.0
6,1436964110534,269.0
7,1436964110557,272.0
8,1436964110577,272.0
9,1436964110597,273.0
10,1436964110617,272.0
11,1436964110636,272.0
12,1436964110657,271.0
13,1436964110677,271.0
14,1436964110696,270.0
15,1436964110717,270.0
16,1436964110737,271.0
17,1436964110756,271.0
18,1436964110776,272.0
19,1436964110797,272.0
20,1436964110817,274.0
21,1436964110838,274.0
22,1436964110857,274.0
23,1436964110877,274.0
24,1436964110897,274.0
25,1436964110915,274.0
26,1436964110936,274.0
27,1436964110965,273.0
28,1436964111019,273.0
29,1436964111020,273.0
30,1436964111021,273.0
31,1436964111045,273.0
32,1436964111054,273.0
33,1436964111078,273.0
34,1436964111095,273.0
35,1436964111114,273.0
36,1436964111136,273.0
37,1436964111154,273.0
38,1436964111177,274.0
39,1436964111199,274.0
40,1436964111215,275.0
41,1436964111237,275.0
42,1436964111257,275.0
43,1436964111278,275.0
44,1436964111298,276.0
45,1436964111318,276.0
46,1436964111338,275.0
47,1436964111356,275.0
48,1436964111377,275.0
49,1436964111398,275.0
50,1436964111418,276.0
51,1436964111436,276.0
52,1436964111456,275.0
53,1436964111478,275.0
54,1436964111497,275.0
55,1436964111517,274.0
56,1436964111536,274.0
57,1436964111557,272.0
58,1436964111578,272.0
59,1436964111597,271.0
60,1436964111615,271.0
61,1436964111635,270.0
62,1436964111655,270.0
63,1436964111675,270.0
64,1436964111706,270.0
65,1436964111717,271.0
66,1436964111765,271.0
67,1436964111766,271.0
68,1436964111775,271.0
69,1436964111795,271.0
70,1436964111815,270.0
71,1436964111835,270.0
72,1436964111855,270.0
73,1436964111878,270.0
74,1436964111895,270.0
75,1436964111916,270.0
76,1436964111935,270.0
77,1436964111956,270.0
78,1436964111977,270.0
79,1436964111997,270.0
80,1436964112019,270.0
81,1436964112038,270.0
82,1436964112059,270.0
83,1436964112076,269.0
84,1436964112097,269.0
85,1436964112118,269.0
86,1436964112137,269.0
87,1436964112159,269.0
88,1436964112177,269.0
89,1436964112197,269.0
90,1436964112219,269.0
91,1436964112237,267.0
92,1436964112258,267.0
93,1436964112275,266.0
94,1436964112298,266.0
95,1436964112319,267.0
96,1436964112338,268.0
97,1436964112359,268.0
98,1436964112376,268.0
99,1436964112398,268.0
100,1436964112418,268.0
101,1436964112436,268.0
102,1436964112460,267.0
103,1436964112528,267.0
104,1436964112529,267.0
105,1436964112530,267.0
106,1436964112537,268.0
107,1436964112556,268.0
108,1436964112578,268.0
109,1436964112596,269.0
110,1436964112617,269.0
111,1436964112636,269.0
112,1436964112658,269.0
113,1436964112679,269.0
114,1436964112697,269.0
115,1436964112717,270.0
116,1436964112739,270.0
117,1436964112759,269.0
118,1436964112781,269.0
119,1436964112811,268.0
120,1436964112816,268.0
121,1436964112836,269.0
122,1436964112856,269.0
123,1436964112876,268.0
124,1436964112896,268.0
125,1436964112916,268.0
126,1436964112936,269.0
127,1436964112956,269.0
128,1436964112984,270.0
129,1436964112996,270.0
130,1436964113019,270.0
131,1436964113042,270.0
132,1436964113056,271.0
133,1436964113076,271.0
134,1436964113096,271.0
135,1436964113116,271.0
136,1436964113136,272.0
137,1436964113157,272.0
138,1436964113216,272.0
139,1436964113217,272.0
140,1436964113218,272.0
141,1436964113242,271.0
142,1436964113256,271.0
143,1436964113277,273.0
144,1436964113297,273.0
145,1436964113317,277.0
146,1436964113337,277.0
147,1436964113385,280.0
148,1436964113386,280.0
149,1436964113395,278.0
150,1436964113416,278.0
151,1436964113435,269.0
152,1436964113455,264.0
153,1436964113475,264.0
154,1436964113496,264.0
155,1436964113516,264.0
156,1436964113535,267.0
157,1436964113555,267.0
158,1436964113575,266.0
159,1436964113595,266.0
160,1436964113615,265.0
161,1436964113635,265.0
162,1436964113655,266.0
163,1436964113676,266.0
164,1436964113696,285.0
165,1436964113716,285.0
166,1436964113736,294.0
167,1436964113757,363.0
168,1436964113778,363.0
169,1436964113796,410.0
170,1436964113819,410.0
171,1436964113838,417.0
172,1436964113856,417.0
173,1436964113877,407.0
174,1436964113921,407.0
175,1436964113922,445.0
176,1436964113936,445.0
177,1436964113958,501.0
178,1436964113977,501.0
179,1436964113996,499.0
180,1436964114018,525.0
181,1436964114041,525.0
182,1436964114057,486.0
183,1436964114081,486.0
184,1436964114098,359.0
185,1436964114119,359.0
186,1436964114139,265.0
187,1436964114161,265.0
188,1436964114178,252.0
189,1436964114199,252.0
190,1436964114219,250.0
191,1436964114240,250.0
192,1436964114257,249.0
193,1436964114283,249.0
194,1436964114300,248.0
195,1436964114317,247.0
196,1436964114342,247.0
197,1436964114362,248.0
198,1436964114377,248.0
199,1436964114397,251.0
200,1436964114418,251.0
201,1436964114439,253.0
202,1436964114464,253.0
203,1436964114480,251.0
204,1436964114503,251.0
205,1436964114518,244.0
206,1436964114543,244.0
207,1436964114610,246.0
208,1436964114611,246.0
209,1436964114612,247.0
210,1436964114620,243.0
211,1436964114638,243.0
212,1436964114658,242.0
213,1436964114678,242.0
214,1436964114698,234.0
215,1436964114719,234.0
216,1436964114741,228.0
217,1436964114765,228.0
218,1436964114779,223.0
219,1436964114798,223.0
220,1436964114821,219.0
221,1436964114841,219.0
222,1436964114861,216.0
223,1436964114879,213.0
224,1436964114902,213.0
225,1436964114923,210.0
226,1436964114941,210.0
227,1436964114961,212.0
228,1436964114980,212.0
229,1436964115003,217.0
230,1436964115022,217.0
231,1436964115044,214.0
232,1436964115064,214.0
233,1436964115080,208.0
234,1436964115102,208.0
235,1436964115118,207.0
236,1436964115138,207.0
237,1436964115158,205.0
238,1436964115183,203.0
239,1436964115205,203.0
240,1436964115225,202.0
241,1436964115243,202.0
242,1436964115365,200.0
243,1436964115366,200.0
244,1436964115367,198.0
245,1436964115368,198.0
246,1436964115369,196.0
247,1436964115370,196.0
248,1436964115389,196.0
249,1436964115402,196.0
250,1436964115622,197.0
251,1436964115623,197.0
252,1436964115624,198.0
253,1436964115625,199.0
254,1436964115626,199.0
255,1436964115627,200.0
256,1436964115628,200.0
257,1436964115629,203.0
258,1436964115630,203.0
259,1436964115631,206.0
260,1436964115632,206.0
261,1436964115669,210.0
262,1436964115670,210.0
263,1436964115679,213.0
264,1436964115699,213.0
265,1436964115720,216.0
266,1436964115739,219.0
267,1436964115760,219.0
268,1436964115779,219.0
269,1436964115801,219.0
270,1436964115822,219.0
271,1436964115842,219.0
272,1436964115862,219.0
273,1436964115878,219.0
274,1436964115902,218.0
275,1436964115920,218.0
276,1436964115940,220.0
277,1436964115959,220.0
278,1436964115982,221.0
279,1436964115999,221.0
280,1436964116024,221.0
281,1436964116053,221.0
282,1436964116067,221.0
283,1436964116079,222.0
284,1436964116101,222.0
285,1436964116119,222.0
286,1436964116140,222.0
287,1436964116162,224.0
288,1436964116179,224.0
289,1436964116200,228.0
290,1436964116223,228.0
291,1436964116242,229.0
292,1436964116258,229.0
293,1436964116283,236.0
294,1436964116302,226.0
295,1436964116323,226.0
296,1436964116343,218.0
297,1436964116360,218.0
298,1436964116381,216.0
299,1436964116403,216.0
300,1436964116421,214.0
301,1436964116442,214.0
302,1436964116464,211.0
303,1436964116493,211.0
304,1436964116500,210.0
305,1436964116520,210.0
306,1436964116542,208.0
307,1436964116563,208.0
308,1436964116582,206.0
309,1436964116602,204.0
310,1436964116622,204.0
311,1436964116642,202.0
312,1436964116662,202.0
313,1436964116682,200.0
314,1436964116766,200.0
315,1436964116767,199.0
316,1436964116768,199.0
317,1436964116769,197.0
318,1436964116792,197.0
319,1436964116803,195.0
320,1436964116820,195.0
321,1436964116853,193.0
322,1436964116860,193.0
323,1436964116881,191.0
324,1436964116907,189.0
325,1436964116920,189.0
326,1436964116940,188.0
327,1436964116960,188.0
328,1436964116981,187.0
329,1436964117002,187.0
330,1436964117020,187.0
331,1436964117042,187.0
332,1436964117063,187.0
333,1436964117081,187.0
334,1436964117103,188.0
335,1436964117122,188.0
336,1436964117142,188.0
337,1436964117163,192.0
338,1436964117182,192.0
339,1436964117202,262.0
340,1436964117220,262.0
341,1436964117247,301.0
342,1436964117265,301.0
343,1436964117287,294.0
344,1436964117303,294.0
345,1436964117322,226.0
346,1436964117341,226.0
347,1436964117362,198.0
348,1436964117382,198.0
349,1436964117401,190.0
350,1436964117468,190.0
351,1436964117469,184.0
352,1436964117470,182.0
353,1436964117480,182.0
354,1436964117507,181.0
355,1436964117543,181.0
356,1436964117544,179.0
357,1436964117566,179.0
358,1436964117583,177.0
359,1436964117606,177.0
360,1436964117621,175.0
361,1436964117644,175.0
362,1436964117661,173.0
363,1436964117684,173.0
364,1436964117704,174.0
365,1436964117724,181.0
366,1436964117744,181.0
367,1436964117764,191.0
368,1436964117784,191.0
369,1436964117804,196.0
370,1436964117825,196.0
371,1436964117843,198.0
372,1436964117864,198.0
373,1436964117883,178.0
374,1436964117902,178.0
375,1436964117922,164.0
376,1436964117944,164.0
377,1436964117964,161.0
378,1436964117984,161.0
379,1436964118004,162.0
380,1436964118022,169.0
381,1436964118043,169.0
382,1436964118063,161.0
383,1436964118084,161.0
384,1436964118102,163.0
385,1436964118157,163.0
386,1436964118158,164.0
387,1436964118162,164.0
388,1436964118182,165.0
389,1436964118201,165.0
390,1436964118221,181.0
391,1436964118243,181.0
392,1436964118261,254.0
393,1436964118282,254.0
394,1436964118302,325.0
395,1436964118325,325.0
396,1436964118342,325.0
397,1436964118365,256.0
398,1436964118385,256.0
399,1436964118405,187.0
400,1436964118424,187.0
401,1436964118444,189.0
402,1436964118474,189.0
403,1436964118492,185.0
404,1436964118524,185.0
405,1436964118525,173.0
406,1436964118544,173.0
407,1436964118562,168.0
408,1436964118585,164.0
409,1436964118603,164.0
410,1436964118622,165.0
411,1436964118643,165.0
412,1436964118666,167.0
413,1436964118687,167.0
414,1436964118707,168.0
415,1436964118725,168.0
416,1436964118744,166.0
417,1436964118763,166.0
418,1436964118783,166.0
419,1436964118804,166.0
420,1436964118825,177.0
421,1436964118892,177.0
422,1436964118893,175.0
423,1436964118894,167.0
424,1436964118903,167.0
425,1436964118928,165.0
426,1436964118943,165.0
427,1436964118962,164.0
428,1436964118985,164.0
429,1436964119003,160.0
430,1436964119024,160.0
431,1436964119047,157.0
432,1436964119071,157.0
433,1436964119086,159.0
434,1436964119105,159.0
435,1436964119126,155.0
436,1436964119146,155.0
437,1436964119166,149.0
438,1436964119185,146.0
439,1436964119205,146.0
440,1436964119225,144.0
441,1436964119247,144.0
442,1436964119266,142.0
443,1436964119283,142.0
444,1436964119306,193.0
445,1436964119328,193.0
446,1436964119349,182.0
447,1436964119368,182.0
448,1436964119386,139.0
449,1436964119403,139.0
450,1436964119423,153.0
451,1436964119443,161.0
452,1436964119469,161.0
453,1436964119489,149.0
454,1436964119509,149.0
455,1436964119525,138.0
456,1436964119551,138.0
457,1436964119608,134.0
458,1436964119619,134.0
459,1436964119620,138.0
460,1436964119626,138.0
461,1436964119644,188.0
462,1436964119668,188.0
463,1436964119683,284.0
464,1436964119703,284.0
465,1436964119724,293.0
466,1436964119745,372.0
467,1436964119765,372.0
468,1436964119783,403.0
469,1436964119806,403.0
470,1436964119826,463.0
471,1436964119846,463.0
472,1436964119865,471.0
473,1436964119886,471.0
474,1436964119906,406.0
475,1436964119926,406.0
476,1436964119946,366.0
477,1436964119990,366.0
478,1436964119991,166.0
479,1436964120032,134.0
480,1436964120033,134.0
481,1436964120043,140.0
482,1436964120064,140.0
483,1436964120083,148.0
484,1436964120104,148.0
485,1436964120127,147.0
486,1436964120148,147.0
487,1436964120168,143.0
488,1436964120186,143.0
489,1436964120204,139.0
490,1436964120224,139.0
491,1436964120243,138.0
492,1436964120266,138.0
493,1436964120283,140.0
494,1436964120337,143.0
495,1436964120338,143.0
496,1436964120344,147.0
497,1436964120363,147.0
498,1436964120389,152.0
499,1436964120425,152.0
500,1436964120426,158.0
501,1436964120449,158.0
502,1436964120466,164.0
503,1436964120485,164.0
504,1436964120505,169.0
505,1436964120527,169.0
506,1436964120544,172.0
507,1436964120567,172.0
508,1436964120587,174.0
509,1436964120607,175.0
510,1436964120627,175.0
511,1436964120647,175.0
512,1436964120667,175.0
513,1436964120687,174.0
514,1436964120707,174.0
515,1436964120727,175.0
516,1436964120747,175.0
517,1436964120764,176.0
518,1436964120787,176.0
519,1436964120804,176.0
520,1436964120824,176.0
521,1436964120844,175.0
522,1436964120868,174.0
523,1436964120888,174.0
524,1436964120908,176.0
525,1436964120927,176.0
526,1436964120945,174.0
527,1436964120964,174.0
528,1436964120985,175.0
529,1436964121004,175.0
530,1436964121027,176.0
531,1436964121092,176.0
532,1436964121093,176.0
533,1436964121094,176.0
534,1436964121104,176.0
535,1436964121124,176.0
536,1436964121145,177.0
537,1436964121164,179.0
538,1436964121186,179.0
539,1436964121204,180.0
540,1436964121224,180.0
541,1436964121247,180.0
542,1436964121265,180.0
543,1436964121287,181.0
544,1436964121306,181.0
545,1436964121327,182.0
546,1436964121348,182.0
547,1436964121366,182.0
548,1436964121387,182.0
549,1436964121407,182.0
550,1436964121427,180.0
551,1436964121448,180.0
552,1436964121468,180.0
553,1436964121486,180.0
554,1436964121508,183.0
555,1436964121526,183.0
556,1436964121547,189.0
557,1436964121568,189.0
558,1436964121586,193.0
559,1436964121607,193.0
560,1436964121627,194.0
561,1436964121647,194.0
562,1436964121668,195.0
563,1436964121688,195.0
564,1436964121705,196.0
565,1436964121726,194.0
566,1436964121745,194.0
567,1436964121767,192.0
568,1436964121834,192.0
569,1436964121835,190.0
570,1436964121836,190.0
571,1436964121845,190.0
572,1436964121870,190.0
573,1436964121886,190.0
574,1436964121905,190.0
575,1436964121926,189.0
576,1436964121945,189.0
577,1436964121969,187.0
578,1436964121987,187.0
579,1436964122007,184.0
580,1436964122026,183.0
581,1436964122047,183.0
582,1436964122068,183.0
583,1436964122088,183.0
584,1436964122108,184.0
585,1436964122125,184.0
586,1436964122147,186.0
587,1436964122168,186.0
588,1436964122188,188.0
589,1436964122207,188.0
590,1436964122225,190.0
591,1436964122247,190.0
592,1436964122268,192.0
593,1436964122288,192.0
594,1436964122307,192.0
595,1436964122327,192.0
596,1436964122347,192.0
597,1436964122369,193.0
598,1436964122389,193.0
599,1436964122409,192.0
600,1436964122452,192.0
601,1436964122453,195.0
602,1436964122466,195.0
603,1436964122485,199.0
604,1436964122510,199.0
605,1436964122538,198.0
606,1436964122546,198.0
607,1436964122566,203.0
608,1436964122585,213.0
609,1436964122606,213.0
610,1436964122626,226.0
611,1436964122646,226.0
612,1436964122672,235.0
613,1436964122686,235.0
614,1436964122706,241.0
615,1436964122732,241.0
616,1436964122747,246.0
617,1436964122769,246.0
618,1436964122789,249.0
619,1436964122809,249.0
620,1436964122829,247.0
621,1436964122846,245.0
622,1436964122867,245.0
623,1436964122889,242.0
624,1436964122908,242.0
625,1436964122926,237.0
626,1436964122946,237.0
627,1436964122968,232.0
628,1436964123026,232.0
629,1436964123027,229.0
630,1436964123028,229.0
631,1436964123047,225.0
632,1436964123066,225.0
633,1436964123086,222.0
634,1436964123106,222.0
635,1436964123126,221.0
636,1436964123148,224.0
637,1436964123166,224.0
638,1436964123186,227.0
639,1436964123206,227.0
640,1436964123226,230.0
641,1436964123246,230.0
642,1436964123282,233.0
643,1436964123290,233.0
644,1436964123306,235.0
645,1436964123326,235.0
646,1436964123347,233.0
647,1436964123366,233.0
648,1436964123389,234.0
649,1436964123406,234.0
650,1436964123426,259.0
651,1436964123449,476.0
652,1436964123466,476.0
653,1436964123485,863.0
654,1436964123508,863.0
655,1436964123527,1052.0
656,1436964123549,1052.0
657,1436964123565,922.0
658,1436964123586,922.0
659,1436964123608,1046.0
660,1436964123628,1046.0
661,1436964123647,1364.0
662,1436964123667,1364.0
663,1436964123688,1932.0
664,1436964123706,2253.0
665,1436964123728,2253.0
666,1436964123748,2154.0
667,1436964123767,2154.0
668,1436964123787,2510.0
669,1436964123807,2510.0
670,1436964123827,2907.0
671,1436964123847,2907.0
672,1436964123868,3385.0
673,1436964123888,3385.0
674,1436964123908,4933.0
675,1436964123928,4933.0
676,1436964123959,5681.0
677,1436964123966,5681.0
678,1436964123988,6081.0
679,1436964124007,5666.0
680,1436964124027,5666.0
681,1436964124047,5582.0
682,1436964124069,5582.0
683,1436964124089,6498.0
684,1436964124108,6498.0
685,1436964124128,6972.0
686,1436964124148,6972.0
687,1436964124168,7555.0
688,1436964124188,7555.0
689,1436964124208,8261.0
690,1436964124234,8261.0
691,1436964124250,9118.0
692,1436964124269,7618.0
693,1436964124290,10133.0
694,1436964124308,10622.0
695,1436964124330,10622.0
696,1436964124351,11179.0
697,1436964124371,11179.0
698,1436964124388,11482.0
699,1436964124412,11482.0
700,1436964124432,0.0
701,1436964124454,11268.0
702,1436964124468,11268.0
703,1436964124488,10965.0
704,1436964124508,10965.0
705,1436964124530,10918.0
706,1436964124553,10918.0
707,1436964124574,10496.0
708,1436964124591,10496.0
709,1436964124611,10282.0
710,1436964124629,0.0
711,1436964124682,10206.0
712,1436964124683,10206.0
713,1436964124691,10049.0
714,1436964124707,10049.0
715,1436964124730,9909.0
716,1436964124751,9909.0
717,1436964124767,9943.0
718,1436964124788,9943.0
719,1436964124810,9942.0
720,1436964124829,0.0
721,1436964124849,9927.0
722,1436964124869,9927.0
723,1436964124894,9989.0
724,1436964124912,9989.0
725,1436964124930,10180.0
726,1436964124951,10180.0
727,1436964125014,10405.0
728,1436964125015,10405.0
729,1436964125016,10527.0
730,1436964125028,0.0
731,1436964125048,10777.0
732,1436964125068,10777.0
733,1436964125089,10441.0
734,1436964125108,10441.0
735,1436964125128,10352.0
736,1436964125148,10352.0
737,1436964125168,10333.0
738,1436964125188,10333.0
739,1436964125210,10409.0
740,1436964125236,0.0
741,1436964125248,10821.0
742,1436964125268,10821.0
743,1436964125288,11293.0
744,1436964125308,11293.0
745,1436964125329,11554.0
746,1436964125352,11554.0
747,1436964125368,11681.0
748,1436964125397,11681.0
749,1436964125410,11634.0
750,1436964125428,0.0
751,1436964125463,11605.0
752,1436964125468,11605.0
753,1436964125488,11524.0
754,1436964125509,11524.0
755,1436964125527,11143.0
756,1436964125547,11143.0
757,1436964125570,10382.0
758,1436964125587,10382.0
759,1436964125607,6211.0
760,1436964125627,6211.0
761,1436964125647,2156.0
762,1436964125667,2156.0
763,1436964125687,481.0
764,1436964125707,264.0
765,1436964125727,264.0
766,1436964125747,265.0
767,1436964125767,265.0
768,1436964125787,268.0
769,1436964125807,268.0
770,1436964125827,274.0
771,1436964125847,274.0
772,1436964125868,282.0
773,1436964125887,282.0
774,1436964125907,289.0
775,1436964125927,289.0
776,1436964125947,295.0
777,1436964125967,295.0
778,1436964125987,301.0
779,1436964126007,305.0
780,1436964126027,305.0
781,1436964126047,307.0
782,1436964126068,307.0
783,1436964126088,309.0
784,1436964126107,309.0
785,1436964126127,310.0
786,1436964126147,310.0
787,1436964126167,311.0
788,1436964126187,311.0
789,1436964126207,309.0
790,1436964126228,309.0
791,1436964126248,307.0
792,1436964126268,307.0
793,1436964126288,307.0
794,1436964126308,304.0
795,1436964126332,304.0
796,1436964126348,298.0
797,1436964126369,298.0
798,1436964126400,291.0
799,1436964126442,291.0
800,1436964126443,287.0
801,1436964126448,287.0
802,1436964126469,286.0
803,1436964126488,286.0
804,1436964126508,285.0
805,1436964126528,285.0
806,1436964126548,283.0
807,1436964126568,280.0
808,1436964126588,280.0
809,1436964126608,277.0
810,1436964126628,277.0
811,1436964126648,273.0
812,1436964126668,273.0
813,1436964126688,267.0
814,1436964126708,267.0
815,1436964126728,261.0
816,1436964126749,261.0
817,1436964126769,255.0
818,1436964126789,255.0
819,1436964126809,249.0
820,1436964126829,249.0
821,1436964126852,244.0
822,1436964126873,241.0
823,1436964126893,241.0
824,1436964126911,244.0
825,1436964126933,244.0
826,1436964126953,251.0
827,1436964126971,251.0
828,1436964126993,260.0
829,1436964127013,260.0
830,1436964127032,268.0
831,1436964127053,268.0
