id,attr_time,attr_light
1,1436466716633,25.0
2,1436466716653,25.0
3,1436466716671,25.0
4,1436466716693,25.0
5,1436466716709,25.0
6,1436466716731,25.0
7,1436466716752,25.0
8,1436466716771,25.0
9,1436466716788,25.0
10,1436466716810,25.0
11,1436466716835,25.0
12,1436466716885,25.0
13,1436466716886,25.0
14,1436466716888,25.0
15,1436466716910,25.0
16,1436466716932,25.0
17,1436466716960,25.0
18,1436466716971,25.0
19,1436466716992,25.0
20,1436466717010,25.0
21,1436466717031,25.0
22,1436466717052,25.0
23,1436466717070,25.0
24,1436466717091,25.0
25,1436466717113,25.0
26,1436466717130,25.0
27,1436466717152,25.0
28,1436466717170,25.0
29,1436466717190,25.0
30,1436466717213,25.0
31,1436466717231,25.0
32,1436466717251,25.0
33,1436466717272,25.0
34,1436466717290,25.0
35,1436466717311,25.0
36,1436466717330,25.0
37,1436466717353,25.0
38,1436466717371,25.0
39,1436466717392,25.0
40,1436466717413,25.0
41,1436466717431,25.0
42,1436466717452,25.0
43,1436466717471,25.0
44,1436466717492,25.0
45,1436466717559,25.0
46,1436466717560,26.0
47,1436466717561,26.0
48,1436466717584,26.0
49,1436466717590,26.0
50,1436466717611,25.0
51,1436466717631,25.0
52,1436466717651,25.0
53,1436466717670,25.0
54,1436466717696,25.0
55,1436466717710,25.0
56,1436466717735,25.0
57,1436466717755,25.0
58,1436466717782,25.0
59,1436466717796,25.0
60,1436466717823,25.0
61,1436466717832,25.0
62,1436466717852,25.0
63,1436466717932,25.0
64,1436466717933,25.0
65,1436466717934,25.0
66,1436466717935,25.0
67,1436466717950,25.0
68,1436466717969,25.0
69,1436466717989,25.0
70,1436466718011,25.0
71,1436466718029,25.0
72,1436466718052,24.0
73,1436466718073,24.0
74,1436466718092,24.0
75,1436466718113,24.0
76,1436466718132,24.0
77,1436466718152,24.0
78,1436466718171,24.0
79,1436466718190,24.0
80,1436466718212,24.0
81,1436466718231,24.0
82,1436466718250,24.0
83,1436466718285,24.0
84,1436466718298,24.0
85,1436466718310,23.0
86,1436466718329,23.0
87,1436466718354,23.0
88,1436466718371,23.0
89,1436466718389,23.0
90,1436466718411,23.0
91,1436466718433,23.0
92,1436466718454,23.0
93,1436466718474,23.0
94,1436466718491,23.0
95,1436466718514,23.0
96,1436466718535,24.0
97,1436466718559,24.0
98,1436466718571,24.0
99,1436466718591,24.0
100,1436466718611,23.0
101,1436466718632,23.0
102,1436466718652,23.0
103,1436466718671,23.0
104,1436466718695,23.0
105,1436466718713,23.0
106,1436466718735,24.0
107,1436466718753,24.0
108,1436466718774,24.0
109,1436466718793,24.0
110,1436466718814,24.0
111,1436466718835,24.0
112,1436466718855,24.0
113,1436466718875,24.0
114,1436466718895,24.0
115,1436466718914,24.0
116,1436466718997,24.0
117,1436466718998,24.0
118,1436466718999,24.0
119,1436466719000,25.0
120,1436466719015,25.0
121,1436466719035,25.0
122,1436466719051,25.0
123,1436466719071,25.0
124,1436466719105,25.0
125,1436466719112,25.0
126,1436466719132,25.0
127,1436466719153,25.0
128,1436466719171,24.0
129,1436466719191,24.0
130,1436466719211,24.0
131,1436466719236,24.0
132,1436466719254,24.0
133,1436466719274,24.0
134,1436466719295,24.0
135,1436466719315,24.0
136,1436466719334,24.0
137,1436466719355,24.0
138,1436466719373,24.0
139,1436466719392,25.0
140,1436466719412,25.0
141,1436466719434,24.0
142,1436466719454,24.0
143,1436466719473,24.0
144,1436466719495,24.0
145,1436466719514,25.0
146,1436466719534,25.0
147,1436466719555,25.0
148,1436466719575,26.0
149,1436466719595,26.0
150,1436466719615,26.0
151,1436466719634,26.0
152,1436466719656,26.0
153,1436466719704,26.0
154,1436466719705,26.0
155,1436466719721,26.0
156,1436466719732,26.0
157,1436466719757,26.0
158,1436466719775,26.0
159,1436466719792,26.0
160,1436466719817,26.0
161,1436466719832,26.0
162,1436466719858,26.0
163,1436466719877,26.0
164,1436466719893,26.0
165,1436466719912,26.0
166,1436466719935,26.0
167,1436466719955,26.0
168,1436466719975,26.0
169,1436466719995,26.0
170,1436466720015,26.0
171,1436466720035,26.0
172,1436466720055,26.0
173,1436466720075,26.0
174,1436466720098,26.0
175,1436466720112,26.0
176,1436466720135,26.0
177,1436466720155,26.0
178,1436466720175,26.0
179,1436466720196,26.0
180,1436466720215,26.0
181,1436466720234,26.0
182,1436466720254,26.0
183,1436466720276,26.0
184,1436466720296,26.0
185,1436466720319,26.0
186,1436466720336,26.0
187,1436466720354,26.0
188,1436466720375,26.0
189,1436466720454,25.0
190,1436466720455,25.0
191,1436466720456,26.0
192,1436466720457,26.0
193,1436466720475,25.0
194,1436466720497,25.0
195,1436466720513,25.0
196,1436466720540,25.0
197,1436466720566,26.0
198,1436466720574,26.0
199,1436466720594,26.0
200,1436466720614,26.0
201,1436466720639,26.0
202,1436466720654,26.0
203,1436466720676,26.0
204,1436466720696,25.0
205,1436466720716,25.0
206,1436466720736,25.0
207,1436466720756,25.0
208,1436466720776,25.0
209,1436466720796,25.0
210,1436466720816,25.0
211,1436466720835,25.0
212,1436466720855,25.0
213,1436466720876,25.0
214,1436466720894,25.0
215,1436466720915,25.0
216,1436466720937,25.0
217,1436466720956,25.0
218,1436466720978,25.0
219,1436466720999,24.0
220,1436466721017,24.0
221,1436466721034,25.0
222,1436466721053,25.0
223,1436466721076,25.0
224,1436466721103,25.0
225,1436466721177,25.0
226,1436466721178,25.0
227,1436466721179,25.0
228,1436466721180,25.0
229,1436466721194,25.0
230,1436466721216,25.0
231,1436466721245,25.0
232,1436466721260,25.0
233,1436466721274,25.0
234,1436466721296,25.0
235,1436466721320,25.0
236,1436466721335,25.0
237,1436466721357,25.0
238,1436466721374,25.0
239,1436466721394,25.0
240,1436466721416,25.0
241,1436466721437,25.0
242,1436466721457,26.0
243,1436466721477,26.0
244,1436466721497,26.0
245,1436466721517,26.0
246,1436466721537,26.0
247,1436466721557,26.0
248,1436466721575,26.0
249,1436466721597,26.0
250,1436466721617,26.0
251,1436466721637,26.0
252,1436466721657,26.0
253,1436466721674,26.0
254,1436466721697,26.0
255,1436466721717,26.0
256,1436466721738,26.0
257,1436466721757,26.0
258,1436466721775,26.0
259,1436466721797,26.0
260,1436466721815,26.0
261,1436466721847,26.0
262,1436466721899,26.0
263,1436466721900,26.0
264,1436466721901,26.0
265,1436466721922,26.0
266,1436466721935,26.0
267,1436466721954,26.0
268,1436466721977,25.0
269,1436466721994,25.0
270,1436466722017,25.0
271,1436466722035,26.0
272,1436466722056,26.0
273,1436466722076,26.0
274,1436466722095,26.0
275,1436466722114,26.0
276,1436466722138,26.0
277,1436466722158,26.0
278,1436466722177,26.0
279,1436466722198,26.0
280,1436466722218,26.0
281,1436466722238,26.0
282,1436466722258,26.0
283,1436466722278,26.0
284,1436466722299,26.0
285,1436466722315,26.0
286,1436466722338,26.0
287,1436466722355,26.0
288,1436466722376,26.0
289,1436466722396,26.0
290,1436466722419,26.0
291,1436466722439,26.0
292,1436466722460,26.0
293,1436466722478,26.0
294,1436466722495,26.0
295,1436466722516,26.0
296,1436466722537,26.0
297,1436466722557,26.0
298,1436466722626,26.0
299,1436466722627,26.0
300,1436466722628,26.0
301,1436466722650,26.0
302,1436466722655,26.0
303,1436466722675,26.0
304,1436466722697,26.0
305,1436466722715,26.0
306,1436466722738,26.0
307,1436466722756,26.0
308,1436466722775,26.0
309,1436466722798,26.0
310,1436466722815,26.0
311,1436466722838,26.0
312,1436466722858,26.0
313,1436466722878,26.0
314,1436466722900,26.0
315,1436466722918,26.0
316,1436466722938,26.0
317,1436466722958,26.0
318,1436466722978,26.0
319,1436466722998,26.0
320,1436466723019,26.0
321,1436466723041,26.0
322,1436466723055,26.0
323,1436466723078,26.0
324,1436466723098,26.0
325,1436466723119,26.0
326,1436466723139,26.0
327,1436466723159,26.0
328,1436466723179,26.0
329,1436466723198,26.0
330,1436466723217,26.0
331,1436466723239,26.0
332,1436466723259,26.0
333,1436466723280,25.0
334,1436466723299,25.0
335,1436466723322,25.0
336,1436466724988,25.0
337,1436466724989,26.0
338,1436466724990,26.0
339,1436466724991,26.0
340,1436466724992,25.0
341,1436466724993,25.0
342,1436466724994,25.0
343,1436466724995,25.0
344,1436466724996,26.0
345,1436466724997,26.0
346,1436466724998,25.0
347,1436466724999,25.0
348,1436466725000,24.0
349,1436466725001,24.0
350,1436466725002,23.0
351,1436466725003,24.0
352,1436466725004,24.0
353,1436466725005,24.0
354,1436466725006,24.0
355,1436466725007,24.0
356,1436466725008,24.0
357,1436466725009,24.0
358,1436466725010,24.0
359,1436466725011,24.0
360,1436466725012,24.0
361,1436466725013,24.0
362,1436466725014,24.0
363,1436466725015,24.0
364,1436466725016,24.0
365,1436466725017,25.0
366,1436466725018,25.0
367,1436466725019,25.0
368,1436466725020,25.0
369,1436466725021,25.0
370,1436466725022,26.0
371,1436466725023,26.0
372,1436466725024,25.0
373,1436466725025,25.0
374,1436466725026,25.0
375,1436466725027,25.0
376,1436466725028,25.0
377,1436466725029,25.0
378,1436466725030,25.0
379,1436466725031,26.0
380,1436466725032,26.0
381,1436466725033,25.0
382,1436466725034,25.0
383,1436466725035,25.0
384,1436466725036,25.0
385,1436466725037,25.0
386,1436466725038,25.0
387,1436466725039,25.0
388,1436466725040,25.0
389,1436466725041,25.0
390,1436466725042,25.0
391,1436466725043,25.0
392,1436466725044,25.0
393,1436466725045,25.0
394,1436466725046,25.0
395,1436466725047,25.0
396,1436466725048,25.0
397,1436466725049,25.0
398,1436466725050,25.0
399,1436466725051,25.0
400,1436466725052,25.0
401,1436466725053,25.0
402,1436466725054,25.0
403,1436466725055,25.0
404,1436466725056,25.0
405,1436466725057,25.0
406,1436466725058,25.0
407,1436466725059,25.0
408,1436466725060,25.0
409,1436466725061,25.0
410,1436466725062,25.0
411,1436466725063,24.0
412,1436466725064,24.0
413,1436466725065,25.0
414,1436466725066,25.0
415,1436466725067,25.0
416,1436466725068,25.0
417,1436466725069,25.0
418,1436466725070,25.0
419,1436466725071,25.0
420,1436466725072,25.0
421,1436466725073,25.0
422,1436466725074,25.0
423,1436466725075,25.0
424,1436466725095,24.0
425,1436466725115,24.0
426,1436466725135,24.0
427,1436466725155,24.0
428,1436466725175,25.0
429,1436466725195,25.0
430,1436466725217,25.0
431,1436466725237,25.0
432,1436466725258,25.0
433,1436466725276,25.0
434,1436466725301,25.0
435,1436466725320,25.0
436,1436466725339,25.0
437,1436466725357,25.0
438,1436466725379,25.0
439,1436466725403,25.0
440,1436466725424,25.0
441,1436466725441,25.0
442,1436466725457,25.0
443,1436466725478,24.0
444,1436466725497,24.0
445,1436466725519,24.0
446,1436466725607,24.0
447,1436466725608,24.0
448,1436466725609,24.0
449,1436466725610,24.0
450,1436466725628,25.0
451,1436466725638,25.0
452,1436466725662,25.0
453,1436466725678,25.0
454,1436466725698,25.0
455,1436466725720,25.0
456,1436466725739,26.0
457,1436466725759,26.0
458,1436466725778,25.0
459,1436466725799,25.0
460,1436466725832,25.0
461,1436466725878,25.0
462,1436466725879,25.0
463,1436466725880,25.0
464,1436466725898,25.0
465,1436466725918,24.0
466,1436466725938,24.0
467,1436466725958,24.0
468,1436466725978,24.0
469,1436466725998,24.0
470,1436466726018,24.0
471,1436466726041,25.0
472,1436466726060,25.0
473,1436466726081,25.0
474,1436466726098,25.0
475,1436466726118,25.0
476,1436466726138,25.0
477,1436466726158,25.0
478,1436466726181,25.0
479,1436466726202,25.0
480,1436466726222,25.0
481,1436466726240,25.0
482,1436466726259,25.0
483,1436466726321,25.0
484,1436466726322,25.0
485,1436466726323,25.0
486,1436466726337,25.0
487,1436466726357,25.0
488,1436466726378,25.0
489,1436466726397,24.0
490,1436466726417,24.0
491,1436466726438,25.0
492,1436466726458,25.0
493,1436466726478,24.0
494,1436466726498,24.0
495,1436466726518,25.0
496,1436466726538,25.0
497,1436466726558,25.0
498,1436466726578,25.0
499,1436466726599,24.0
500,1436466726622,24.0
501,1436466726638,24.0
502,1436466726658,24.0
503,1436466726678,24.0
504,1436466726700,25.0
505,1436466726720,25.0
506,1436466726740,25.0
507,1436466726761,25.0
508,1436466726779,25.0
509,1436466726799,25.0
510,1436466726822,24.0
511,1436466726840,24.0
512,1436466726861,24.0
513,1436466726883,24.0
514,1436466726908,24.0
515,1436466726949,24.0
516,1436466726961,24.0
517,1436466726962,24.0
518,1436466726979,24.0
519,1436466726999,24.0
520,1436466727021,24.0
521,1436466727039,24.0
522,1436466727086,24.0
523,1436466727087,25.0
524,1436466727109,25.0
525,1436466727119,24.0
526,1436466727139,24.0
527,1436466727160,24.0
528,1436466727180,24.0
529,1436466727199,24.0
530,1436466727220,25.0
531,1436466727239,25.0
532,1436466727260,25.0
533,1436466727281,25.0
534,1436466727300,25.0
535,1436466727320,25.0
536,1436466727339,25.0
537,1436466727362,25.0
538,1436466727380,24.0
539,1436466727400,24.0
540,1436466727419,24.0
541,1436466727440,25.0
542,1436466727460,25.0
543,1436466727480,25.0
544,1436466727501,25.0
545,1436466727526,25.0
546,1436466727539,25.0
547,1436466727559,25.0
548,1436466727581,25.0
549,1436466727600,25.0
550,1436466727621,25.0
551,1436466727650,24.0
552,1436466727753,24.0
553,1436466727771,24.0
554,1436466727772,24.0
555,1436466727773,24.0
556,1436466727774,24.0
557,1436466727775,24.0
558,1436466727781,24.0
559,1436466727800,24.0
560,1436466727820,23.0
561,1436466727840,23.0
562,1436466727862,23.0
563,1436466727882,23.0
564,1436466727901,23.0
565,1436466727921,23.0
566,1436466727940,23.0
567,1436466727964,23.0
568,1436466727982,23.0
569,1436466728003,23.0
570,1436466728021,23.0
571,1436466728042,24.0
572,1436466728064,24.0
573,1436466728082,24.0
574,1436466728100,24.0
575,1436466728121,24.0
576,1436466728143,24.0
577,1436466728164,24.0
578,1436466728185,24.0
579,1436466728202,24.0
580,1436466728225,24.0
581,1436466728242,25.0
582,1436466728260,26.0
583,1436466728281,26.0
584,1436466728302,26.0
585,1436466728325,26.0
586,1436466728346,26.0
587,1436466728369,26.0
588,1436466728382,26.0
589,1436466728411,26.0
590,1436466728481,26.0
591,1436466728482,26.0
592,1436466728483,26.0
593,1436466728484,26.0
594,1436466728504,26.0
595,1436466728520,26.0
596,1436466728542,26.0
597,1436466728568,26.0
598,1436466728582,26.0
599,1436466728603,26.0
600,1436466728622,26.0
601,1436466728646,25.0
602,1436466728670,25.0
603,1436466728684,25.0
604,1436466728701,25.0
605,1436466728721,25.0
606,1436466728743,25.0
607,1436466728765,26.0
608,1436466728786,26.0
609,1436466728821,26.0
610,1436466728822,26.0
611,1436466728841,26.0
612,1436466728861,25.0
613,1436466728881,25.0
614,1436466728968,25.0
615,1436466728969,25.0
616,1436466728970,25.0
617,1436466728971,25.0
618,1436466728983,25.0
619,1436466729003,25.0
620,1436466729022,25.0
621,1436466729041,25.0
622,1436466729061,25.0
623,1436466729081,25.0
624,1436466729101,25.0
625,1436466729121,25.0
626,1436466729141,25.0
627,1436466729161,25.0
628,1436466729181,25.0
629,1436466729205,25.0
630,1436466729230,25.0
631,1436466729244,25.0
632,1436466729261,25.0
633,1436466729287,26.0
634,1436466729322,26.0
635,1436466729323,26.0
636,1436466729343,26.0
637,1436466729360,26.0
638,1436466729380,25.0
639,1436466729400,25.0
640,1436466729421,25.0
641,1436466729440,25.0
642,1436466729460,25.0
643,1436466729480,25.0
644,1436466729500,25.0
645,1436466729520,25.0
646,1436466729540,25.0
647,1436466729560,25.0
648,1436466729580,25.0
649,1436466729600,25.0
650,1436466729620,25.0
651,1436466729640,25.0
652,1436466729660,25.0
653,1436466729685,25.0
654,1436466729705,25.0
655,1436466729722,25.0
656,1436466729740,25.0
657,1436466729764,25.0
658,1436466729785,25.0
659,1436466729804,25.0
660,1436466729824,25.0
661,1436466729841,25.0
662,1436466729865,25.0
663,1436466729882,25.0
664,1436466729904,25.0
665,1436466729921,25.0
666,1436466729958,25.0
667,1436466729962,25.0
668,1436466729984,25.0
669,1436466730003,25.0
670,1436466730025,25.0
671,1436466730042,25.0
672,1436466730065,25.0
673,1436466730084,25.0
674,1436466730102,25.0
675,1436466730126,25.0
676,1436466730145,25.0
677,1436466730161,24.0
678,1436466730186,24.0
679,1436466730205,24.0
680,1436466730226,24.0
681,1436466730246,24.0
682,1436466730265,24.0
683,1436466730286,24.0
684,1436466730306,24.0
685,1436466730323,24.0
686,1436466730348,24.0
687,1436466730365,24.0
688,1436466730387,24.0
689,1436466730408,24.0
690,1436466730427,24.0
691,1436466730446,24.0
692,1436466730465,25.0
693,1436466730484,25.0
694,1436466730502,25.0
695,1436466730528,25.0
696,1436466730552,25.0
697,1436466730567,25.0
698,1436466730585,25.0
699,1436466730605,25.0
700,1436466730685,25.0
701,1436466730686,25.0
702,1436466730687,25.0
703,1436466730688,25.0
704,1436466730706,25.0
705,1436466730727,24.0
706,1436466730742,24.0
707,1436466730769,25.0
708,1436466730796,25.0
709,1436466730803,26.0
710,1436466730824,26.0
711,1436466730844,25.0
712,1436466730867,25.0
713,1436466730886,25.0
714,1436466730906,25.0
715,1436466730926,25.0
716,1436466730946,25.0
717,1436466730963,25.0
718,1436466730986,25.0
719,1436466731006,25.0
720,1436466731026,25.0
721,1436466731046,25.0
722,1436466731064,25.0
723,1436466731086,25.0
724,1436466731104,25.0
725,1436466731125,25.0
726,1436466731147,24.0
727,1436466731165,24.0
728,1436466731186,25.0
729,1436466731207,25.0
730,1436466731226,24.0
731,1436466731246,25.0
732,1436466731267,25.0
733,1436466731285,25.0
734,1436466731304,25.0
735,1436466731325,25.0
736,1436466731396,25.0
737,1436466731397,25.0
738,1436466731400,25.0
739,1436466731415,25.0
740,1436466731424,25.0
741,1436466731450,25.0
742,1436466731464,25.0
743,1436466731483,25.0
744,1436466731505,25.0
745,1436466731524,25.0
746,1436466731545,25.0
747,1436466731564,25.0
748,1436466731584,25.0
749,1436466731603,25.0
750,1436466731627,25.0
751,1436466731647,25.0
752,1436466731667,25.0
753,1436466731687,25.0
754,1436466731707,25.0
755,1436466731727,25.0
756,1436466731747,25.0
757,1436466731767,25.0
758,1436466731787,25.0
759,1436466731805,25.0
760,1436466731827,25.0
761,1436466731846,25.0
762,1436466731866,25.0
763,1436466731885,25.0
764,1436466731907,25.0
765,1436466731927,25.0
766,1436466731948,25.0
767,1436466731967,25.0
768,1436466731984,25.0
769,1436466732006,25.0
770,1436466732026,25.0
771,1436466732046,25.0
772,1436466732067,25.0
773,1436466732135,25.0
774,1436466732136,25.0
775,1436466732137,25.0
776,1436466732145,25.0
777,1436466732171,25.0
778,1436466732187,25.0
779,1436466732204,25.0
780,1436466732227,25.0
781,1436466732245,25.0
782,1436466732265,25.0
783,1436466732285,25.0
784,1436466732305,25.0
785,1436466732324,25.0
786,1436466732347,25.0
787,1436466732368,24.0
788,1436466732387,24.0
789,1436466732408,24.0
790,1436466732428,24.0
791,1436466732448,24.0
792,1436466732468,24.0
793,1436466732487,24.0
794,1436466732509,24.0
795,1436466732527,24.0
796,1436466732548,24.0
797,1436466732567,25.0
798,1436466732586,25.0
799,1436466732606,25.0
800,1436466732628,25.0
801,1436466732648,25.0
802,1436466732669,25.0
803,1436466732698,25.0
804,1436466732705,25.0
805,1436466732724,25.0
806,1436466732745,25.0
807,1436466732765,25.0
808,1436466732784,25.0
809,1436466732818,25.0
810,1436466732830,25.0
811,1436466732845,25.0
812,1436466732865,25.0
813,1436466732885,25.0
814,1436466732906,25.0
815,1436466732925,25.0
816,1436466732949,25.0
817,1436466732965,25.0
818,1436466732986,25.0
819,1436466733009,25.0
820,1436466733026,25.0
821,1436466733045,25.0
822,1436466733068,25.0
823,1436466733088,26.0
824,1436466733106,26.0
825,1436466733128,26.0
826,1436466733148,26.0
827,1436466733168,26.0
828,1436466733188,26.0
829,1436466733208,26.0
830,1436466734786,26.0
831,1436466734787,26.0
832,1436466734788,27.0
833,1436466734789,27.0
834,1436466734790,27.0
835,1436466734791,27.0
836,1436466734792,26.0
837,1436466734793,26.0
838,1436466734794,26.0
839,1436466734795,26.0
840,1436466734796,26.0
841,1436466734797,26.0
842,1436466734798,26.0
843,1436466734799,26.0
844,1436466734800,26.0
845,1436466734801,25.0
846,1436466734802,25.0
847,1436466734803,25.0
848,1436466734804,25.0
849,1436466734805,25.0
850,1436466734806,25.0
851,1436466734807,25.0
852,1436466734808,25.0
853,1436466734809,25.0
854,1436466734810,25.0
855,1436466734811,25.0
856,1436466734812,25.0
857,1436466734813,25.0
858,1436466734814,25.0
859,1436466734815,25.0
860,1436466734816,25.0
861,1436466734817,25.0
862,1436466734818,25.0
863,1436466734819,25.0
864,1436466734820,25.0
865,1436466734821,25.0
866,1436466734822,25.0
867,1436466734823,25.0
868,1436466734824,25.0
869,1436466734825,25.0
870,1436466734826,25.0
871,1436466734827,25.0
872,1436466734828,25.0
873,1436466734829,25.0
