id,attr_time,attr_x,attr_y,attr_z
1,1436170463010,7.261,-48.562,18.183
2,1436170463031,7.261,-48.562,18.183
3,1436170463051,7.261,-48.562,18.183
4,1436170463071,7.261,-48.562,18.183
5,1436170463091,7.261,-48.562,18.183
6,1436170463112,7.261,-48.562,18.183
7,1436170463131,7.261,-48.562,18.183
8,1436170463153,7.261,-48.562,18.183
9,1436170463171,7.261,-48.562,18.183
10,1436170463189,7.261,-48.562,18.183
11,1436170463209,7.261,-48.562,18.183
12,1436170463265,7.261,-48.562,18.183
13,1436170463277,7.261,-48.562,18.183
14,1436170463278,7.261,-48.562,18.183
15,1436170463290,7.261,-48.562,18.183
16,1436170463326,7.261,-48.562,18.183
17,1436170463329,7.261,-48.562,18.183
18,1436170463349,7.261,-48.562,18.183
19,1436170463370,7.261,-48.562,18.183
20,1436170463391,7.261,-48.562,18.183
21,1436170463409,7.261,-48.562,18.183
22,1436170463430,7.261,-48.562,18.183
23,1436170463449,7.583,-48.562,18.183
24,1436170463469,7.583,-48.562,18.484
25,1436170463490,7.583,-48.562,18.484
26,1436170463512,7.583,-48.562,18.484
27,1436170463532,7.583,-48.562,18.484
28,1436170463552,7.583,-48.562,18.484
29,1436170463572,7.583,-48.562,18.484
30,1436170463590,7.583,-48.562,18.484
31,1436170463613,7.583,-48.562,18.484
32,1436170463632,7.583,-48.562,18.484
33,1436170463652,7.583,-48.562,18.484
34,1436170463670,7.888,-48.562,18.484
35,1436170463692,7.888,-48.562,18.484
36,1436170463713,7.888,-48.562,18.484
37,1436170463733,7.888,-48.562,18.484
38,1436170463752,7.888,-48.562,18.484
39,1436170463773,7.888,-48.562,18.484
40,1436170463793,7.888,-48.562,18.484
41,1436170463813,7.888,-48.562,18.484
42,1436170463833,7.888,-48.562,18.484
43,1436170463852,7.888,-48.562,18.484
44,1436170463872,7.888,-48.562,18.484
45,1436170463910,7.888,-48.252,18.484
46,1436170463911,7.888,-48.252,18.484
47,1436170463929,7.888,-48.252,18.484
48,1436170463965,7.888,-48.252,18.484
49,1436170463972,7.888,-48.252,18.484
50,1436170464050,7.888,-48.252,18.484
51,1436170464051,7.888,-48.252,18.484
52,1436170464052,7.888,-48.252,18.484
53,1436170464053,7.888,-48.252,18.484
54,1436170464070,7.888,-48.252,18.484
55,1436170464091,7.888,-48.252,18.484
56,1436170464110,7.888,-48.252,18.484
57,1436170464129,7.888,-48.252,18.484
58,1436170464150,7.888,-48.252,18.484
59,1436170464171,7.888,-48.252,18.484
60,1436170464191,7.888,-48.252,18.484
61,1436170464210,7.888,-48.252,18.484
62,1436170464231,7.888,-48.252,18.484
63,1436170464253,7.888,-48.252,18.484
64,1436170464273,7.888,-48.252,18.484
65,1436170464293,7.888,-48.252,18.484
66,1436170464313,7.888,-48.252,18.484
67,1436170464332,7.888,-48.252,18.484
68,1436170464353,7.888,-48.252,18.484
69,1436170464373,7.888,-48.252,18.484
70,1436170464393,7.888,-48.252,18.484
71,1436170464413,7.888,-48.252,18.484
72,1436170464438,7.888,-48.252,18.484
73,1436170464450,7.888,-48.252,18.484
74,1436170464470,7.888,-48.252,18.484
75,1436170464490,7.888,-48.252,18.484
76,1436170464510,7.888,-48.252,18.484
77,1436170464530,7.888,-48.252,18.484
78,1436170464552,7.585,-48.252,18.484
79,1436170464571,7.585,-48.252,18.484
80,1436170464590,7.585,-48.252,18.484
81,1436170464610,7.585,-48.252,18.484
82,1436170464630,7.585,-48.252,18.484
83,1436170464650,7.585,-48.252,18.484
84,1436170464670,7.585,-48.252,18.484
85,1436170464692,7.585,-48.252,18.484
86,1436170464714,7.585,-48.252,18.484
87,1436170464775,7.585,-48.252,18.484
88,1436170464776,7.585,-48.252,18.484
89,1436170464777,7.585,-48.252,18.484
90,1436170464810,7.585,-48.252,18.484
91,1436170464811,7.585,-48.252,18.484
92,1436170464837,7.585,-48.252,18.484
93,1436170464850,7.585,-48.252,18.484
94,1436170464870,7.585,-48.252,18.484
95,1436170464891,7.585,-48.252,18.484
96,1436170464911,7.585,-48.252,18.484
97,1436170464932,7.585,-48.252,18.484
98,1436170464951,7.585,-48.252,18.484
99,1436170464973,7.247,-48.252,18.484
100,1436170464990,7.247,-48.252,18.484
101,1436170465012,7.247,-48.252,18.484
102,1436170465034,7.247,-48.252,18.484
103,1436170465054,7.247,-48.252,18.484
104,1436170465073,7.247,-48.252,18.17
105,1436170465093,7.247,-47.908,18.17
106,1436170465114,7.247,-47.908,18.17
107,1436170465135,7.247,-47.908,18.17
108,1436170465154,7.247,-47.908,18.17
109,1436170465174,7.247,-47.908,18.17
110,1436170465191,7.632,-47.908,18.17
111,1436170465215,7.632,-47.908,18.17
112,1436170465231,7.632,-47.908,18.17
113,1436170465250,7.632,-47.908,18.17
114,1436170465270,7.969,-48.228,18.17
115,1436170465296,7.969,-48.228,18.17
116,1436170465316,7.969,-48.228,18.17
117,1436170465338,7.969,-48.228,18.17
118,1436170465354,7.969,-48.228,18.17
119,1436170465371,8.325,-48.228,18.17
120,1436170465391,8.325,-48.228,18.17
121,1436170465411,8.325,-48.228,18.17
122,1436170465432,8.325,-48.567,18.17
123,1436170465454,8.325,-48.567,18.17
124,1436170465518,8.325,-48.567,18.17
125,1436170465519,8.702,-48.567,18.17
126,1436170465520,8.702,-48.567,18.17
127,1436170465531,8.702,-48.567,18.17
128,1436170465556,8.702,-48.567,18.17
129,1436170465591,8.702,-48.567,18.17
130,1436170465592,8.702,-48.567,18.17
131,1436170465614,8.702,-48.567,18.17
132,1436170465635,8.702,-48.567,18.17
133,1436170465655,8.702,-48.567,18.17
134,1436170465671,8.702,-48.567,18.17
135,1436170465694,8.702,-48.567,18.17
136,1436170465713,8.702,-48.567,17.848
137,1436170465734,9.013,-48.567,17.848
138,1436170465754,9.013,-48.567,17.848
139,1436170465774,9.013,-48.567,17.848
140,1436170465794,9.013,-48.567,17.848
141,1436170465814,9.013,-48.567,17.848
142,1436170465834,9.013,-48.567,17.848
143,1436170465854,9.013,-48.567,17.848
144,1436170465875,9.013,-48.567,17.848
145,1436170465891,9.013,-48.567,17.848
146,1436170465914,9.013,-48.567,17.848
147,1436170465934,9.013,-48.567,17.848
148,1436170465954,9.013,-48.567,17.848
149,1436170465974,9.013,-48.567,17.541
150,1436170465994,9.013,-48.567,17.541
151,1436170466014,9.013,-48.567,17.541
152,1436170466034,9.013,-48.567,17.541
153,1436170466054,9.013,-48.567,17.541
154,1436170466074,9.013,-48.567,17.541
155,1436170466095,9.013,-48.567,17.541
156,1436170466115,9.013,-48.567,17.541
157,1436170466134,9.013,-48.567,17.541
158,1436170466159,9.013,-48.567,17.541
159,1436170466217,9.013,-48.567,17.541
160,1436170466229,9.013,-48.567,17.541
161,1436170466231,9.013,-48.567,17.541
162,1436170466232,9.013,-48.567,17.541
163,1436170466252,9.013,-48.567,17.541
164,1436170466276,9.013,-48.567,17.236
165,1436170466291,9.013,-48.567,17.236
166,1436170466311,9.327,-48.567,17.236
167,1436170466333,9.327,-48.567,17.236
168,1436170466353,9.327,-48.567,17.236
169,1436170466372,9.327,-48.567,17.236
170,1436170466392,9.327,-48.567,17.236
171,1436170466413,9.327,-48.567,17.236
172,1436170466435,9.327,-48.567,17.236
173,1436170466455,9.327,-48.567,17.236
174,1436170466475,9.327,-48.567,17.236
175,1436170466494,9.327,-48.567,17.236
176,1436170466515,9.327,-48.567,17.236
177,1436170466535,9.327,-48.567,17.236
178,1436170466555,9.327,-48.567,17.236
179,1436170466575,9.327,-48.567,17.236
180,1436170466594,9.327,-48.567,17.236
181,1436170466615,9.327,-48.567,17.236
182,1436170466635,9.651,-48.567,17.236
183,1436170466655,9.651,-48.567,17.236
184,1436170466673,9.651,-48.567,17.236
185,1436170466693,9.651,-48.567,17.236
186,1436170466713,9.651,-48.567,17.236
187,1436170466734,9.651,-48.567,17.236
188,1436170466756,9.651,-48.567,17.236
189,1436170466776,9.651,-48.567,17.236
190,1436170466794,9.651,-48.567,17.236
191,1436170466813,9.651,-48.567,17.236
192,1436170466832,9.651,-48.567,17.236
193,1436170466852,9.651,-48.567,17.236
194,1436170466873,9.651,-48.567,17.236
195,1436170466892,9.651,-48.567,17.236
196,1436170466944,9.651,-48.567,17.236
197,1436170466945,9.651,-48.567,17.236
198,1436170466963,9.651,-48.567,17.236
199,1436170466972,9.651,-48.567,17.236
200,1436170466998,9.651,-48.567,17.236
201,1436170467013,9.651,-48.567,17.236
202,1436170467034,9.651,-48.567,17.236
203,1436170467054,9.651,-48.225,17.236
204,1436170467073,9.324,-48.225,17.236
205,1436170467094,9.324,-48.225,17.236
206,1436170467114,9.324,-48.225,17.236
207,1436170467134,9.324,-47.908,17.236
208,1436170467154,8.946,-47.908,17.236
209,1436170467174,8.946,-47.908,17.236
210,1436170467196,8.946,-47.908,17.236
211,1436170467214,8.57,-47.535,17.236
212,1436170467236,8.57,-47.535,17.236
213,1436170467256,8.57,-47.535,17.236
214,1436170467276,8.57,-47.535,17.236
215,1436170467297,8.247,-47.535,17.236
216,1436170467314,8.247,-47.189,17.236
217,1436170467335,8.247,-47.189,17.236
218,1436170467352,8.247,-47.189,17.236
219,1436170467374,8.247,-47.189,17.236
220,1436170467395,8.247,-47.189,17.236
221,1436170467414,8.247,-47.189,17.236
222,1436170467434,8.247,-47.189,17.236
223,1436170467456,8.247,-47.189,17.236
224,1436170467476,8.247,-47.189,17.236
225,1436170467496,8.247,-47.563,17.236
226,1436170467514,8.628,-47.563,17.236
227,1436170467534,8.628,-47.563,17.236
228,1436170467556,8.929,-47.563,17.236
229,1436170467575,8.929,-47.988,17.236
230,1436170467595,9.254,-47.988,17.236
231,1436170467615,9.254,-47.988,17.236
232,1436170467667,9.254,-48.292,17.236
233,1436170467668,9.622,-48.292,17.236
234,1436170467684,9.622,-48.292,17.236
235,1436170467693,9.622,-48.292,17.236
236,1436170467720,9.983,-48.593,17.236
237,1436170467734,9.983,-48.593,17.561
238,1436170467755,9.983,-48.593,17.561
239,1436170467774,9.983,-48.593,17.561
240,1436170467793,9.983,-48.593,17.561
241,1436170467819,9.983,-48.593,17.561
242,1436170467835,10.307,-48.593,17.561
243,1436170467854,10.307,-48.593,17.561
244,1436170467874,10.307,-48.593,17.561
245,1436170467894,10.307,-48.593,17.561
246,1436170467916,10.307,-48.593,17.561
247,1436170467934,10.307,-48.593,17.561
248,1436170467956,10.307,-48.593,17.561
249,1436170467976,10.617,-48.593,17.561
250,1436170467996,10.617,-48.593,17.561
251,1436170468016,10.617,-48.593,17.561
252,1436170468033,10.617,-48.593,17.561
253,1436170468054,10.617,-48.593,17.561
254,1436170468075,10.617,-48.593,17.561
255,1436170468094,10.617,-48.593,17.561
256,1436170468116,10.617,-48.593,17.561
257,1436170468133,10.617,-48.593,17.561
258,1436170468154,10.617,-48.593,17.561
259,1436170468176,10.617,-48.593,17.561
260,1436170468196,10.617,-48.593,17.561
261,1436170468216,10.617,-48.593,17.561
262,1436170468235,10.617,-48.593,17.561
263,1436170468254,10.617,-48.593,17.561
264,1436170468277,10.617,-48.593,17.561
265,1436170468294,10.617,-48.268,17.561
266,1436170468316,10.617,-48.268,17.561
267,1436170468343,10.617,-48.268,17.561
268,1436170468402,10.617,-48.268,17.561
269,1436170468414,10.617,-48.268,17.561
270,1436170468415,10.617,-48.268,17.561
271,1436170468416,10.293,-48.268,17.561
272,1436170468434,10.293,-48.268,17.561
273,1436170468456,10.293,-48.268,17.561
274,1436170468475,10.293,-48.268,17.561
275,1436170468495,10.293,-48.268,17.561
276,1436170468516,10.293,-48.268,17.561
277,1436170468535,10.293,-48.268,17.561
278,1436170468556,10.293,-48.268,17.561
279,1436170468574,10.293,-48.268,17.561
280,1436170468597,10.293,-48.268,17.561
281,1436170468616,10.293,-48.268,17.561
282,1436170468637,9.983,-48.268,17.561
283,1436170468654,9.983,-48.268,17.561
284,1436170468675,9.983,-48.268,17.561
285,1436170468697,9.983,-48.268,17.561
286,1436170468717,9.983,-48.268,17.561
287,1436170468735,9.983,-48.268,17.561
288,1436170468755,9.983,-48.268,17.561
289,1436170468777,9.983,-48.268,17.561
290,1436170468794,10.299,-48.268,17.561
291,1436170468816,10.299,-48.268,17.561
292,1436170468837,10.299,-48.268,17.561
293,1436170468856,10.299,-48.268,17.561
294,1436170468878,10.299,-48.268,17.561
295,1436170468895,10.299,-48.268,17.561
296,1436170468916,10.299,-48.268,17.561
297,1436170468937,10.299,-48.268,17.561
298,1436170468957,10.299,-48.268,17.561
299,1436170468975,10.299,-48.268,17.561
300,1436170468998,10.299,-48.268,17.561
301,1436170469026,10.299,-48.268,17.561
302,1436170469045,10.299,-48.268,17.561
303,1436170469099,10.299,-48.268,17.561
304,1436170469100,10.299,-48.268,17.561
305,1436170469101,10.299,-48.268,17.561
306,1436170469201,10.299,-48.268,17.561
307,1436170469202,10.299,-48.268,17.561
308,1436170469203,10.299,-48.268,17.561
309,1436170469204,10.299,-48.268,17.561
310,1436170469205,10.299,-48.57,17.561
311,1436170469229,10.299,-48.57,17.561
312,1436170469254,10.299,-48.57,17.561
313,1436170469255,10.299,-48.57,17.561
314,1436170469274,10.299,-48.57,17.561
315,1436170469296,10.299,-48.57,17.561
316,1436170469314,10.299,-48.57,17.561
317,1436170469335,10.299,-48.57,17.561
318,1436170469354,10.299,-48.57,17.561
319,1436170469377,10.299,-48.57,17.561
320,1436170469398,10.299,-48.57,17.25
321,1436170469416,9.979,-48.57,17.25
322,1436170469438,9.979,-48.57,17.25
323,1436170469455,9.979,-48.57,17.25
324,1436170469475,9.979,-48.57,17.25
325,1436170469495,9.979,-48.57,17.25
326,1436170469515,9.979,-48.57,17.25
327,1436170469544,9.979,-48.57,17.25
328,1436170469583,9.979,-48.57,17.25
329,1436170469584,9.979,-48.57,17.25
330,1436170469595,9.663,-48.57,17.25
331,1436170469615,9.663,-48.57,17.25
332,1436170469635,9.663,-48.57,17.25
333,1436170469655,9.663,-48.234,17.25
334,1436170469675,9.294,-48.234,17.25
335,1436170469695,9.294,-48.234,17.25
336,1436170469715,9.294,-48.234,17.25
337,1436170469735,9.294,-48.234,16.934
338,1436170469755,9.294,-48.234,16.934
339,1436170469775,9.294,-48.234,16.934
340,1436170469795,9.294,-48.234,16.934
341,1436170469815,9.294,-48.234,16.934
342,1436170469835,9.294,-48.234,16.934
343,1436170469864,9.294,-48.234,16.934
344,1436170469899,9.294,-48.234,16.934
345,1436170469900,9.294,-48.234,16.934
346,1436170469915,9.294,-48.234,16.934
347,1436170469935,9.294,-48.234,16.934
348,1436170469955,9.294,-48.234,16.934
349,1436170469977,9.294,-48.234,16.934
350,1436170469999,9.294,-48.234,16.934
351,1436170470019,9.294,-48.234,16.934
352,1436170470037,9.294,-48.234,16.934
353,1436170470054,9.294,-48.567,16.934
354,1436170470074,9.294,-48.567,16.934
355,1436170470101,9.294,-48.567,16.934
356,1436170470114,9.646,-48.567,16.934
357,1436170470139,9.646,-48.567,16.934
358,1436170470156,9.646,-48.567,16.934
359,1436170470175,9.646,-48.567,16.934
360,1436170470196,9.646,-48.567,16.934
361,1436170470218,9.646,-48.567,16.934
362,1436170470239,9.646,-48.567,16.934
363,1436170470257,9.646,-48.567,16.934
364,1436170470276,9.289,-48.567,16.934
365,1436170470295,9.289,-48.869,16.934
366,1436170470319,9.289,-48.869,16.934
367,1436170470338,8.822,-48.869,16.934
368,1436170470358,8.822,-48.869,16.934
369,1436170470378,8.442,-48.869,16.934
370,1436170470396,7.873,-48.869,17.256
371,1436170470415,6.654,-48.869,17.256
372,1436170470439,5.285,-48.869,17.256
373,1436170470459,4.322,-48.869,17.611
374,1436170470476,3.01,-48.869,17.611
375,1436170470499,1.899,-48.869,17.927
376,1436170470519,1.214,-48.869,17.927
377,1436170470540,-0.213,-48.869,18.289
378,1436170470560,-1.324,-48.869,18.289
379,1436170470660,-1.84,-48.869,18.618
380,1436170470661,-2.224,-48.869,18.618
381,1436170470662,-3.32,-48.869,18.949
382,1436170470663,-3.32,-48.869,18.949
383,1436170470664,-3.994,-48.869,19.302
384,1436170470691,-4.421,-48.869,19.302
385,1436170470697,-4.925,-48.869,19.627
386,1436170470716,-5.607,-48.869,19.627
387,1436170470736,-4.992,-48.869,20.051
388,1436170470756,-5.435,-48.869,20.361
389,1436170470778,-5.435,-48.519,20.762
390,1436170470796,-5.435,-48.519,20.762
391,1436170470817,-6.094,-48.519,21.263
392,1436170470836,-6.52,-48.519,21.263
393,1436170470859,-7.058,-48.519,21.69
394,1436170470879,-7.058,-48.519,22.016
395,1436170470900,-7.478,-48.208,22.016
396,1436170470919,-7.478,-48.208,22.016
397,1436170470939,-7.478,-48.208,22.016
398,1436170470960,-7.478,-48.208,22.016
399,1436170470979,-7.478,-48.208,22.016
400,1436170470996,-7.971,-48.208,22.413
401,1436170471019,-7.971,-48.208,22.413
402,1436170471039,-8.331,-48.208,22.413
403,1436170471057,-8.331,-48.208,22.413
404,1436170471079,-8.331,-48.208,22.793
405,1436170471097,-8.331,-48.208,22.793
406,1436170471116,-8.819,-48.208,22.793
407,1436170471138,-8.819,-48.208,22.793
408,1436170471159,-8.819,-48.208,22.793
409,1436170471180,-8.819,-48.208,22.793
410,1436170471202,-8.819,-48.208,22.793
411,1436170471221,-9.315,-48.208,22.793
412,1436170471240,-9.315,-48.208,22.793
413,1436170471259,-9.62,-48.208,22.793
414,1436170471277,-9.62,-48.208,22.483
415,1436170471298,-9.62,-48.208,22.483
416,1436170471326,-9.968,-48.208,22.483
417,1436170471337,-9.968,-48.208,22.483
418,1436170471385,-9.968,-48.208,22.074
419,1436170471386,-10.357,-48.208,22.074
420,1436170471406,-10.357,-48.208,22.074
421,1436170471416,-10.357,-48.208,21.708
422,1436170471437,-10.357,-48.208,21.708
423,1436170471457,-10.67,-48.208,21.708
424,1436170471476,-10.67,-48.208,21.342
425,1436170471500,-10.67,-48.208,21.342
426,1436170471516,-10.67,-48.208,21.342
427,1436170471540,-10.67,-48.208,21.006
428,1436170471561,-10.67,-48.208,21.006
429,1436170471579,-10.67,-48.208,21.006
430,1436170471597,-10.67,-48.208,21.006
431,1436170471619,-10.67,-48.541,21.006
432,1436170471637,-10.67,-48.541,21.006
433,1436170471660,-10.67,-48.541,21.006
434,1436170471677,-10.67,-48.541,20.642
435,1436170471700,-10.67,-48.541,20.642
436,1436170471717,-10.67,-48.541,20.642
437,1436170471739,-10.67,-48.541,20.642
438,1436170471759,-10.67,-48.541,20.642
439,1436170471780,-10.67,-48.541,20.642
440,1436170471800,-10.67,-48.541,20.642
441,1436170471817,-10.67,-48.541,20.642
442,1436170471840,-10.362,-48.541,20.642
443,1436170471860,-10.362,-48.924,20.642
444,1436170471880,-9.976,-48.924,20.642
445,1436170471901,-9.449,-48.924,20.642
446,1436170471920,-8.575,-49.256,20.642
447,1436170471940,-8.575,-49.256,20.642
448,1436170471961,-7.702,-49.256,20.642
449,1436170471980,-7.702,-49.256,20.642
450,1436170472000,-7.702,-49.256,20.315
451,1436170472019,-8.169,-49.256,20.315
452,1436170472038,-8.508,-49.256,20.315
453,1436170472067,-8.508,-49.578,20.315
454,1436170472078,-8.508,-49.578,20.315
455,1436170472124,-8.073,-49.578,20.808
456,1436170472125,-8.073,-49.578,21.231
457,1436170472147,-7.591,-49.578,21.231
458,1436170472157,-7.591,-49.578,21.231
459,1436170472177,-7.002,-49.578,21.231
460,1436170472200,-7.002,-49.578,21.231
461,1436170472217,-6.695,-49.578,20.709
462,1436170472238,-6.225,-49.578,20.709
463,1436170472257,-5.683,-49.578,20.709
464,1436170472279,-5.683,-49.578,20.709
465,1436170472299,-5.319,-49.578,20.709
466,1436170472318,-5.009,-49.578,20.709
467,1436170472337,-5.009,-49.578,20.709
468,1436170472361,-4.624,-49.578,20.709
469,1436170472380,-4.054,-49.237,20.709
470,1436170472401,-3.198,-49.237,20.709
471,1436170472420,-2.821,-49.237,20.709
472,1436170472440,-2.821,-49.237,20.709
473,1436170472460,-2.105,-49.237,20.709
474,1436170472477,-2.105,-49.237,20.329
475,1436170472501,-1.625,-49.237,20.329
476,1436170472521,-1.217,-49.237,20.329
477,1436170472538,-0.346,-49.237,19.926
478,1436170472560,-0.346,-49.237,19.926
479,1436170472581,0.289,-49.237,19.926
480,1436170472603,0.289,-49.237,19.926
481,1436170472628,-0.212,-49.237,19.926
482,1436170472637,-0.686,-49.237,19.926
483,1436170472661,-1.498,-49.237,19.926
484,1436170472678,-1.498,-49.237,19.926
485,1436170472727,-1.498,-49.237,19.926
486,1436170472728,-1.498,-49.237,19.926
487,1436170472790,-1.498,-49.237,20.295
488,1436170472791,-1.101,-49.237,20.295
489,1436170472792,-1.101,-49.237,20.295
490,1436170472871,-0.726,-49.237,20.295
491,1436170472872,-0.726,-49.237,20.295
492,1436170472873,-0.726,-49.237,20.295
493,1436170472874,-0.726,-49.237,20.599
494,1436170472889,-0.354,-49.237,20.599
495,1436170472902,-0.354,-49.237,20.599
496,1436170472918,-0.354,-48.864,20.599
497,1436170472938,-0.354,-48.864,20.599
498,1436170472965,-0.03,-48.864,20.599
499,1436170472993,-0.03,-48.864,20.599
500,1436170472999,0.595,-48.518,20.91
501,1436170473021,1.034,-48.518,20.91
502,1436170473038,1.38,-48.518,20.91
503,1436170473066,1.914,-48.518,20.91
504,1436170473077,1.914,-48.518,20.91
505,1436170473098,2.279,-48.178,20.91
506,1436170473118,2.279,-48.178,20.91
507,1436170473138,2.279,-48.178,20.91
508,1436170473161,2.279,-48.178,20.91
509,1436170473181,2.279,-48.178,20.593
510,1436170473201,2.279,-47.781,20.593
511,1436170473221,2.279,-47.781,20.593
512,1436170473239,2.279,-47.781,20.593
