id,attr_time,attr_x,attr_y,attr_z
1,1436170463013,-1.04,-55.453,9.968
2,1436170463033,-1.04,-55.453,9.968
3,1436170463055,-1.04,-55.453,9.968
4,1436170463074,-1.04,-55.453,9.968
5,1436170463092,-1.04,-55.453,9.968
6,1436170463113,-1.04,-55.453,9.968
7,1436170463162,-1.04,-55.453,9.968
8,1436170463163,-1.04,-55.453,9.968
9,1436170463176,-1.04,-55.453,9.968
10,1436170463202,-1.04,-55.453,9.968
11,1436170463212,-1.04,-55.453,9.968
12,1436170463230,-1.04,-55.453,9.968
13,1436170463255,-1.04,-55.453,9.968
14,1436170463274,-1.04,-55.453,9.968
15,1436170463294,-1.04,-55.453,9.968
16,1436170463313,-1.04,-55.453,9.968
17,1436170463332,-1.04,-55.453,9.968
18,1436170463354,-1.04,-55.453,9.968
19,1436170463370,-1.04,-55.453,9.968
20,1436170463391,-1.04,-55.453,9.968
21,1436170463410,-1.04,-55.453,9.968
22,1436170463435,-1.04,-55.453,9.968
23,1436170463456,-1.04,-55.453,9.606
24,1436170463477,-1.04,-55.453,9.606
25,1436170463493,-1.04,-55.453,9.606
26,1436170463511,-1.04,-55.453,9.606
27,1436170463531,-0.697,-55.453,9.606
28,1436170463551,-0.697,-55.453,9.606
29,1436170463573,-0.697,-55.453,9.606
30,1436170463596,-0.697,-55.453,9.606
31,1436170463646,-0.697,-55.453,9.606
32,1436170463647,-0.697,-55.453,9.606
33,1436170463652,-0.697,-55.453,9.606
34,1436170463676,-0.697,-55.453,9.606
35,1436170463693,-0.697,-55.453,9.606
36,1436170463735,-0.697,-55.453,9.606
37,1436170463736,-0.697,-55.453,9.606
38,1436170463757,-0.697,-55.453,9.606
39,1436170463772,-0.697,-55.453,9.606
40,1436170463799,-0.697,-55.453,9.928
41,1436170463818,-0.697,-55.453,9.928
42,1436170463838,-0.697,-55.453,9.928
43,1436170463865,-0.697,-55.453,9.928
44,1436170463871,-1.02,-55.453,9.928
45,1436170463892,-1.02,-55.453,9.928
46,1436170464305,-1.02,-55.453,9.928
47,1436170464306,-1.02,-55.453,9.928
48,1436170464307,-1.02,-55.453,10.263
49,1436170464308,-1.02,-55.453,10.263
50,1436170464309,-1.02,-55.453,10.263
51,1436170464310,-1.336,-55.453,10.263
52,1436170464332,-1.336,-55.453,10.263
53,1436170464333,-1.336,-55.453,10.263
54,1436170464334,-1.336,-55.453,10.263
55,1436170464335,-1.336,-55.453,10.263
56,1436170464336,-1.336,-55.453,10.263
57,1436170464337,-1.336,-55.453,10.263
58,1436170464338,-1.336,-55.453,10.263
59,1436170464339,-1.336,-55.453,10.263
60,1436170464340,-1.336,-55.453,10.263
61,1436170464341,-1.336,-55.453,10.263
62,1436170464342,-1.007,-55.453,10.263
63,1436170464343,-1.007,-55.453,10.263
64,1436170464344,-1.007,-55.453,10.263
65,1436170464345,-1.007,-55.453,9.947
66,1436170464346,-1.007,-55.453,9.947
67,1436170464363,-0.688,-55.453,9.947
68,1436170464364,-0.688,-55.453,9.947
69,1436170464415,-0.688,-55.453,9.947
70,1436170464416,-0.688,-55.453,9.947
71,1436170464417,-0.688,-55.453,9.947
72,1436170464503,-0.688,-55.453,9.947
73,1436170464504,-0.688,-55.453,9.947
74,1436170464505,-0.688,-55.453,9.947
75,1436170464506,-0.688,-55.453,9.947
76,1436170464510,-0.688,-55.453,9.947
77,1436170464530,-0.688,-55.453,9.947
78,1436170464550,-0.688,-55.453,9.947
79,1436170464570,-0.688,-55.453,9.947
80,1436170464590,-0.688,-55.453,9.947
81,1436170464610,-0.688,-55.453,9.947
82,1436170464630,-0.688,-55.453,9.947
83,1436170464650,-0.688,-55.453,9.947
84,1436170464671,-0.688,-55.453,9.947
85,1436170464691,-0.688,-55.453,9.947
86,1436170464711,-0.688,-55.453,9.947
87,1436170464730,-0.688,-55.453,9.947
88,1436170464751,-0.688,-55.453,9.947
89,1436170464771,-0.688,-55.453,9.947
90,1436170464791,-0.688,-55.453,9.947
91,1436170464812,-0.688,-55.453,9.947
92,1436170464836,-0.688,-55.453,9.947
93,1436170464853,-0.688,-55.453,9.947
94,1436170464873,-0.688,-55.453,9.947
95,1436170464891,-0.688,-55.453,9.947
96,1436170464912,-0.688,-55.453,9.947
97,1436170464933,-0.688,-55.453,9.947
98,1436170464955,-0.688,-55.453,9.947
99,1436170464973,-0.688,-55.453,9.947
100,1436170464992,-0.688,-55.453,9.947
101,1436170465030,-0.688,-55.453,9.947
102,1436170465031,-0.688,-55.453,9.947
103,1436170465052,-0.688,-55.453,9.947
104,1436170465074,-0.688,-55.453,9.947
105,1436170465093,-0.688,-55.453,9.947
106,1436170465113,-0.375,-55.453,9.947
107,1436170465132,-0.375,-55.453,9.947
108,1436170465152,-0.375,-55.453,9.947
109,1436170465173,-0.375,-55.453,9.947
110,1436170465196,-0.375,-55.453,9.947
111,1436170465217,-0.375,-55.453,9.947
112,1436170465233,-0.375,-55.453,9.947
113,1436170465253,-0.375,-55.453,9.645
114,1436170465276,-0.375,-55.453,9.645
115,1436170465292,-0.375,-55.453,9.645
116,1436170465312,-0.375,-55.453,9.645
117,1436170465332,-0.375,-55.453,9.645
118,1436170465358,-0.375,-55.453,9.645
119,1436170465378,-0.375,-55.453,9.645
120,1436170465398,-0.375,-55.453,9.645
121,1436170465414,-0.375,-55.453,9.645
122,1436170465433,-0.375,-55.453,9.645
123,1436170465488,-0.375,-55.453,9.645
124,1436170465489,-0.375,-55.453,9.645
125,1436170465513,-0.375,-55.453,9.645
126,1436170465514,-0.375,-55.453,9.645
127,1436170465533,-0.375,-55.453,9.645
128,1436170465561,-0.375,-55.453,9.645
129,1436170465576,-0.375,-55.453,9.645
130,1436170465596,-0.375,-55.453,9.645
131,1436170465617,-0.375,-55.453,9.645
132,1436170465634,-0.375,-55.453,9.645
133,1436170465656,-0.375,-55.453,9.645
134,1436170465676,-0.375,-55.453,9.645
135,1436170465693,-0.375,-55.453,9.645
136,1436170465713,-0.375,-55.453,9.645
137,1436170465733,-0.375,-55.453,9.947
138,1436170465758,-0.375,-55.453,9.947
139,1436170465778,-0.375,-55.453,9.947
140,1436170465798,-0.375,-55.453,9.947
141,1436170465816,-0.375,-55.453,9.947
142,1436170465834,-0.375,-55.453,9.947
143,1436170465853,-0.375,-55.453,9.947
144,1436170465873,-0.375,-55.453,9.947
145,1436170466056,-0.375,-55.453,9.947
146,1436170466057,-0.375,-55.453,9.947
147,1436170466058,-0.375,-55.453,9.947
148,1436170466059,-0.375,-55.453,9.947
149,1436170466060,-0.375,-55.453,9.947
150,1436170466061,-0.375,-55.453,9.947
151,1436170466062,-0.375,-55.453,9.947
152,1436170466063,-0.375,-55.453,9.947
153,1436170466064,-0.375,-55.453,9.947
154,1436170466104,-0.375,-55.453,9.947
155,1436170466105,-0.375,-55.453,9.947
156,1436170466113,-0.375,-55.453,9.947
157,1436170466146,-0.375,-55.453,9.947
158,1436170466156,-0.375,-55.453,9.947
159,1436170466175,-0.375,-55.453,9.947
160,1436170466195,-0.375,-55.453,9.947
161,1436170466214,-0.375,-55.453,9.947
162,1436170466233,-0.375,-55.453,9.947
163,1436170466253,-0.375,-55.453,9.947
164,1436170466278,-0.375,-55.453,9.947
165,1436170466293,-0.375,-55.453,9.947
166,1436170466313,-0.375,-55.453,9.947
167,1436170466334,-0.375,-55.453,9.947
168,1436170466355,-0.375,-55.453,9.947
169,1436170466377,-0.375,-55.453,9.947
170,1436170466397,-0.375,-55.453,9.947
171,1436170466422,-0.375,-55.453,9.947
172,1436170466432,-0.375,-55.453,9.947
173,1436170466453,-0.375,-55.453,9.947
174,1436170466473,-0.375,-55.453,9.947
175,1436170466493,-0.375,-55.453,9.947
176,1436170466513,-0.375,-55.453,9.947
177,1436170466534,-0.375,-55.453,9.947
178,1436170466555,-0.375,-55.453,9.947
179,1436170466574,-0.375,-55.453,9.947
180,1436170466594,-0.375,-55.453,9.947
181,1436170466615,-0.375,-55.453,9.947
182,1436170466634,-0.375,-55.453,9.947
183,1436170466657,-0.375,-55.453,9.947
184,1436170466676,-0.375,-55.453,9.947
185,1436170466693,-0.375,-55.453,9.947
186,1436170466714,-0.375,-55.453,9.947
187,1436170466734,-0.375,-55.453,9.947
188,1436170466754,-0.375,-55.453,9.947
189,1436170466774,-0.375,-55.453,9.947
190,1436170466796,-0.375,-55.453,9.947
191,1436170466817,-0.375,-55.453,9.947
192,1436170466837,-0.375,-55.453,9.947
193,1436170466855,-0.375,-55.453,9.947
194,1436170466873,-0.375,-55.453,9.947
195,1436170466897,-0.375,-55.453,9.947
196,1436170466925,-0.375,-55.453,9.947
197,1436170466937,-0.375,-55.453,9.947
198,1436170466956,-0.375,-55.453,9.947
199,1436170466973,-0.375,-55.453,9.632
200,1436170466994,-0.375,-55.453,9.632
201,1436170467015,-0.375,-55.453,9.632
202,1436170467036,-0.375,-55.453,9.632
203,1436170467054,-0.375,-55.453,9.632
204,1436170467074,-0.375,-55.453,9.632
205,1436170467094,-0.375,-55.453,9.632
206,1436170467117,-0.375,-55.453,9.632
207,1436170467135,-0.375,-55.453,9.632
208,1436170467156,-0.375,-55.453,9.632
209,1436170467176,-0.375,-55.453,9.632
210,1436170467197,-0.375,-55.453,9.632
211,1436170467218,-0.375,-55.453,9.632
212,1436170467237,-0.375,-55.453,9.632
213,1436170467258,-0.375,-55.453,9.632
214,1436170467276,-0.375,-55.453,9.632
215,1436170467297,-0.375,-55.453,9.632
216,1436170467316,-0.375,-55.453,9.632
217,1436170467338,-0.375,-55.453,9.632
218,1436170467356,-0.375,-55.453,9.632
219,1436170467389,-0.375,-55.453,9.632
220,1436170467396,-0.375,-55.453,9.632
221,1436170467416,-0.375,-55.453,9.632
222,1436170467435,-0.375,-55.453,9.632
223,1436170467456,-0.375,-55.453,9.632
224,1436170467476,-0.375,-55.453,9.962
225,1436170467496,-0.375,-55.453,9.962
226,1436170467520,-0.375,-55.453,9.962
227,1436170467536,-0.375,-55.453,9.962
228,1436170467555,-0.375,-55.453,9.962
229,1436170467578,-0.375,-55.453,9.962
230,1436170467598,-0.375,-55.453,9.962
231,1436170467616,-0.375,-55.453,9.962
232,1436170467636,-0.375,-55.453,9.962
233,1436170467657,-0.375,-55.453,9.962
234,1436170467680,-0.375,-55.453,9.962
235,1436170467702,-0.682,-55.453,9.962
236,1436170467718,-0.682,-55.453,9.962
237,1436170467742,-0.682,-55.453,9.962
238,1436170467759,-0.682,-55.453,9.962
239,1436170467776,-0.682,-55.453,9.962
240,1436170467881,-0.682,-55.453,9.962
241,1436170467882,-0.682,-55.453,9.962
242,1436170467883,-0.682,-55.453,9.962
243,1436170467884,-0.682,-55.453,9.962
244,1436170467885,-0.682,-55.453,9.962
245,1436170467963,-0.682,-55.453,9.962
246,1436170467964,-0.682,-55.453,9.962
247,1436170467965,-0.682,-55.453,9.962
248,1436170467966,-0.682,-55.453,9.962
249,1436170468001,-0.682,-55.453,9.962
250,1436170468002,-0.682,-55.453,9.962
251,1436170468016,-0.682,-55.453,9.962
252,1436170468035,-0.682,-55.453,9.962
253,1436170468055,-0.682,-55.453,9.962
254,1436170468075,-0.682,-55.453,9.962
255,1436170468097,-0.682,-55.453,9.962
256,1436170468115,-0.682,-55.453,9.962
257,1436170468135,-0.682,-55.453,9.962
258,1436170468155,-0.682,-55.453,9.962
259,1436170468175,-0.682,-55.453,9.962
260,1436170468195,-0.682,-55.453,9.962
261,1436170468217,-0.682,-55.453,9.962
262,1436170468237,-0.682,-55.453,9.962
263,1436170468257,-0.682,-55.453,9.962
264,1436170468276,-0.682,-55.453,9.962
265,1436170468296,-0.682,-55.453,9.962
266,1436170468325,-0.682,-55.453,9.962
267,1436170468384,-0.682,-55.453,9.962
268,1436170468387,-0.682,-55.453,9.962
269,1436170468388,-0.682,-55.453,9.962
270,1436170468412,-0.682,-55.453,9.962
271,1436170468415,-0.682,-55.453,9.962
272,1436170468444,-0.682,-55.453,9.962
273,1436170468457,-0.682,-55.453,9.962
274,1436170468476,-0.682,-55.453,9.962
275,1436170468495,-0.682,-55.453,9.962
276,1436170468516,-0.682,-55.453,9.962
277,1436170468539,-0.682,-55.453,9.962
278,1436170468559,-0.682,-55.453,9.962
279,1436170468575,-0.682,-55.453,9.962
280,1436170468596,-0.682,-55.453,9.962
281,1436170468617,-0.682,-55.453,9.962
282,1436170468636,-0.682,-55.453,9.962
283,1436170468657,-0.682,-55.453,9.962
284,1436170468677,-0.682,-55.453,9.962
285,1436170468699,-0.682,-55.453,9.962
286,1436170468716,-0.682,-55.453,9.962
287,1436170468737,-0.682,-55.453,9.962
288,1436170468756,-0.682,-55.453,9.962
289,1436170468778,-0.682,-55.453,9.962
290,1436170468805,-0.682,-55.453,9.962
291,1436170468817,-0.682,-55.453,9.962
292,1436170468837,-0.682,-55.453,9.962
293,1436170468855,-0.379,-55.453,9.962
294,1436170468876,-0.379,-55.453,9.962
295,1436170468899,-0.379,-55.453,9.962
296,1436170468917,-0.379,-55.453,9.962
297,1436170468937,-0.379,-55.453,9.962
298,1436170468956,-0.379,-55.453,9.962
299,1436170468979,-0.379,-55.453,9.962
300,1436170469001,-0.379,-55.453,9.962
301,1436170469019,-0.379,-55.453,9.962
302,1436170469039,-0.379,-55.453,9.962
303,1436170469059,-0.379,-55.453,9.962
304,1436170469079,-0.379,-55.453,9.962
305,1436170469132,-0.379,-55.453,9.962
306,1436170469154,-0.379,-55.453,9.962
307,1436170469155,-0.379,-55.453,9.962
308,1436170469156,-0.379,-55.453,9.962
309,1436170469176,-0.379,-55.453,9.962
310,1436170469197,-0.379,-55.453,9.962
311,1436170469222,-0.379,-55.453,9.962
312,1436170469273,-0.379,-55.453,9.962
313,1436170469283,-0.379,-55.453,9.962
314,1436170469284,-0.379,-55.453,9.962
315,1436170469304,-0.379,-55.453,9.962
316,1436170469318,-0.379,-55.453,9.962
317,1436170469349,-0.379,-55.453,9.962
318,1436170469361,-0.379,-55.453,9.962
319,1436170469380,-0.379,-55.453,9.962
320,1436170469398,-0.379,-55.453,9.962
321,1436170469418,-0.379,-55.453,9.962
322,1436170469437,-0.379,-55.453,9.962
323,1436170469460,-0.379,-55.453,9.962
324,1436170469479,-0.379,-55.453,9.962
325,1436170469496,-0.379,-55.453,9.962
326,1436170469517,-0.379,-55.453,9.962
327,1436170469543,-0.379,-55.453,9.962
328,1436170469557,-0.379,-55.453,9.962
329,1436170469582,-0.379,-55.453,9.962
330,1436170469600,-0.379,-55.453,9.962
331,1436170469616,-0.379,-55.453,10.292
332,1436170469637,-0.379,-55.453,10.292
333,1436170469658,-0.379,-55.453,10.292
334,1436170469709,-0.692,-55.453,10.292
335,1436170469710,-0.692,-55.453,10.292
336,1436170469799,-0.692,-55.453,10.292
337,1436170469800,-0.692,-55.453,10.292
338,1436170469801,-0.692,-55.453,10.292
339,1436170469802,-0.692,-55.453,10.292
340,1436170469803,-0.37,-55.453,10.292
341,1436170469827,-0.37,-55.453,9.965
342,1436170469838,-0.37,-55.453,9.965
343,1436170469859,-0.062,-55.453,9.965
344,1436170469877,-0.062,-55.453,9.965
345,1436170469897,-0.062,-55.453,9.965
346,1436170469917,-0.062,-55.453,9.605
347,1436170469939,-0.062,-55.453,9.605
348,1436170469957,0.25,-55.453,9.605
349,1436170469978,0.25,-55.453,9.605
350,1436170469997,0.25,-55.453,9.605
351,1436170470023,0.25,-55.453,9.605
352,1436170470041,0.25,-55.453,9.605
353,1436170470063,0.25,-55.453,9.605
354,1436170470080,0.25,-55.453,9.605
355,1436170470097,0.25,-55.453,9.605
356,1436170470117,0.25,-55.453,9.605
357,1436170470138,0.25,-55.453,9.605
358,1436170470159,0.25,-55.453,9.605
359,1436170470178,0.25,-55.453,9.605
360,1436170470223,-0.096,-55.453,9.605
361,1436170470224,-0.096,-55.453,9.939
362,1436170470245,-0.096,-55.453,9.939
363,1436170470257,-0.096,-55.453,9.939
364,1436170470278,-0.096,-55.453,9.939
365,1436170470297,-0.407,-55.453,9.939
366,1436170470318,-0.407,-55.453,9.939
367,1436170470338,-0.407,-55.453,9.939
368,1436170470357,-0.407,-55.453,9.939
369,1436170470379,-0.407,-55.453,9.939
370,1436170470401,-0.407,-55.453,9.939
371,1436170470421,-0.407,-55.453,9.939
372,1436170470440,-0.407,-55.453,9.939
373,1436170470458,-0.407,-55.453,9.939
374,1436170470478,-0.407,-55.453,9.939
375,1436170470504,-0.407,-55.453,9.939
376,1436170470519,-0.407,-55.453,9.939
377,1436170470544,-0.407,-55.453,9.939
378,1436170470561,-0.407,-55.453,9.939
379,1436170470577,-0.407,-55.453,9.939
380,1436170470598,-0.407,-55.453,9.939
381,1436170470618,-0.407,-55.453,9.939
382,1436170470640,-0.407,-55.453,9.939
383,1436170470660,-0.407,-55.453,9.939
384,1436170470704,-0.407,-55.453,9.939
385,1436170470705,-0.407,-55.453,9.939
386,1436170470726,-0.407,-55.453,9.939
387,1436170470751,-0.407,-55.453,9.939
388,1436170470758,-0.407,-55.453,9.939
389,1436170470778,-0.407,-55.453,9.939
390,1436170470798,-0.407,-55.453,9.939
391,1436170470818,-0.407,-55.453,9.939
392,1436170470839,-0.407,-55.453,9.939
393,1436170470859,-0.407,-55.453,9.939
394,1436170470879,-0.407,-55.453,9.939
395,1436170470902,-0.407,-55.453,9.599
396,1436170470918,-0.407,-55.453,9.599
397,1436170470941,-0.407,-55.453,9.599
398,1436170470960,-0.407,-55.453,9.599
399,1436170470978,-0.407,-55.453,9.599
400,1436170471003,-0.407,-55.453,9.599
401,1436170471022,-0.407,-55.453,9.599
402,1436170471043,-0.407,-55.453,9.599
403,1436170471062,-0.407,-55.453,9.599
404,1436170471078,-0.407,-55.453,9.599
405,1436170471098,-0.407,-55.453,9.599
406,1436170471118,-0.407,-55.453,9.599
407,1436170471141,-0.407,-55.453,9.599
408,1436170471160,-0.407,-55.453,9.599
409,1436170471204,-0.407,-55.453,9.599
410,1436170471205,-0.407,-55.453,9.599
411,1436170471227,-0.407,-55.453,9.599
412,1436170471255,-0.407,-55.453,9.599
413,1436170471258,-0.407,-55.453,9.599
414,1436170471278,-0.407,-55.453,9.599
415,1436170471301,-0.407,-55.453,9.931
416,1436170471318,-0.708,-55.453,9.931
417,1436170471339,-0.708,-55.453,9.931
418,1436170471362,-0.708,-55.453,9.931
419,1436170471380,-0.708,-55.453,9.931
420,1436170471400,-0.708,-55.453,9.931
421,1436170471419,-0.708,-55.453,9.931
422,1436170471439,-0.708,-55.453,9.931
423,1436170471459,-0.708,-55.453,10.261
424,1436170471478,-0.708,-55.453,10.261
425,1436170471504,-0.708,-55.453,10.261
426,1436170471525,-1.019,-55.453,10.261
427,1436170471555,-1.019,-55.453,10.261
428,1436170471576,-1.019,-55.453,10.591
429,1436170471578,-1.019,-55.453,10.591
430,1436170471598,-1.019,-55.453,10.591
431,1436170471618,-1.019,-55.453,10.591
432,1436170471639,-1.368,-55.453,10.591
433,1436170471658,-1.368,-55.453,10.958
434,1436170471705,-1.368,-55.453,10.958
435,1436170471706,-1.368,-55.453,10.958
436,1436170471719,-1.776,-55.453,11.328
437,1436170471739,-1.776,-55.453,11.328
438,1436170471760,-1.776,-55.453,11.328
439,1436170471779,-2.259,-55.453,11.328
440,1436170471799,-2.259,-55.453,11.764
441,1436170471822,-3.033,-55.453,11.764
442,1436170471839,-3.601,-55.453,11.764
443,1436170471864,-4.229,-55.453,11.764
444,1436170471879,-4.873,-55.453,12.159
445,1436170471899,-5.451,-55.453,12.159
446,1436170471919,-5.451,-55.453,12.159
447,1436170471938,-5.921,-55.453,12.606
448,1436170471958,-6.32,-55.453,12.606
449,1436170471978,-6.32,-55.453,12.606
450,1436170471998,-6.642,-55.453,13.07
451,1436170472019,-6.642,-55.776,13.07
452,1436170472041,-6.642,-55.776,13.07
453,1436170472063,-6.642,-55.776,13.447
454,1436170472083,-6.642,-55.776,13.447
455,1436170472102,-6.25,-56.098,13.447
456,1436170472119,-6.25,-56.098,13.447
457,1436170472145,-6.25,-56.098,13.751
458,1436170472170,-6.614,-56.483,13.751
459,1436170472179,-6.614,-56.483,13.751
460,1436170472198,-6.614,-56.799,13.751
461,1436170472218,-6.935,-56.799,13.751
462,1436170472241,-6.935,-57.475,13.751
463,1436170472262,-6.935,-58.041,13.751
464,1436170472280,-6.935,-58.601,13.751
465,1436170472299,-7.295,-59.266,13.751
466,1436170472319,-7.295,-59.587,13.751
467,1436170472343,-7.295,-59.587,13.751
468,1436170472363,-7.295,-60.241,13.751
469,1436170472382,-7.604,-60.241,13.333
470,1436170472402,-7.604,-60.571,13.333
471,1436170472423,-7.604,-60.571,12.794
472,1436170472442,-7.604,-61.001,12.265
473,1436170472461,-7.604,-61.001,11.727
474,1436170472481,-7.604,-61.317,10.636
475,1436170472503,-7.604,-61.317,10.636
476,1436170472523,-7.604,-61.708,9.22
477,1436170472543,-7.604,-61.708,8.789
478,1436170472561,-7.604,-61.708,8.323
479,1436170472586,-6.884,-61.708,7.864
480,1436170472616,-6.079,-61.708,6.845
481,1436170472619,-5.584,-61.708,6.222
482,1436170472640,-4.69,-62.121,5.488
483,1436170472661,-4.084,-62.121,4.969
484,1436170472679,-4.084,-62.121,4.443
485,1436170472703,-3.503,-62.524,4.443
486,1436170472721,-2.911,-62.524,3.903
487,1436170472739,-2.911,-62.524,4.553
488,1436170472760,-2.558,-62.915,4.553
489,1436170472781,-2.558,-62.915,4.553
490,1436170472803,-2.558,-62.915,4.553
491,1436170472824,-1.91,-63.339,5.085
492,1436170472841,-1.91,-63.339,5.085
493,1436170472862,-1.91,-63.647,5.085
494,1436170472882,-1.91,-63.647,5.56
495,1436170472904,-1.422,-64.016,5.56
496,1436170472924,-0.891,-64.462,5.101
497,1436170472944,0.216,-65.252,5.101
498,1436170472962,1.104,-66.119,5.101
499,1436170472982,2.604,-66.723,5.101
500,1436170473002,4.306,-67.34,5.537
501,1436170473023,5.81,-68.098,6.115
502,1436170473042,7.405,-68.597,7.038
503,1436170473092,8.892,-68.597,8.586
504,1436170473093,10.888,-68.597,8.586
505,1436170473108,13.053,-68.597,7.94
506,1436170473141,14.654,-68.597,7.94
507,1436170473142,15.951,-68.597,7.94
508,1436170473160,16.934,-68.203,7.94
509,1436170473186,16.934,-68.203,8.497
510,1436170473202,16.137,-68.719,8.497
511,1436170473223,16.137,-68.719,8.497
512,1436170473242,15.579,-68.719,8.497
513,1436170473262,15.579,-68.719,8.497
514,1436170473280,15.579,-68.719,8.497
