id,attr_time,attr_x,attr_y,attr_z
1,1436170463028,-4.052,-30.364,13.96
2,1436170463049,-4.052,-30.364,13.96
3,1436170463069,-4.052,-30.364,13.652
4,1436170463089,-4.052,-30.364,13.652
5,1436170463107,-4.052,-30.364,13.652
6,1436170463128,-4.052,-30.364,13.652
7,1436170463147,-4.052,-30.364,13.652
8,1436170463217,-4.052,-30.364,13.652
9,1436170463218,-4.052,-30.364,13.652
10,1436170463219,-4.052,-30.364,13.652
11,1436170463233,-3.747,-30.364,13.652
12,1436170463246,-3.747,-30.364,13.652
13,1436170463267,-3.747,-30.364,13.652
14,1436170463285,-3.747,-30.364,13.652
15,1436170463306,-3.747,-30.364,13.652
16,1436170463334,-3.747,-30.364,13.652
17,1436170463346,-3.747,-30.364,13.652
18,1436170463367,-3.747,-30.364,13.652
19,1436170463393,-3.747,-30.364,13.652
20,1436170463407,-3.747,-30.364,13.652
21,1436170463426,-3.747,-30.364,13.652
22,1436170463446,-3.747,-30.364,13.652
23,1436170463469,-3.747,-30.364,13.652
24,1436170463489,-3.747,-30.364,13.652
25,1436170463509,-3.747,-30.364,13.652
26,1436170463527,-3.747,-30.364,13.652
27,1436170463549,-3.747,-30.364,13.652
28,1436170463573,-3.747,-30.364,13.652
29,1436170463588,-3.747,-30.364,13.652
30,1436170463607,-3.747,-30.364,13.652
31,1436170463639,-3.747,-30.364,13.652
32,1436170463647,-3.747,-30.364,13.652
33,1436170463668,-3.747,-30.364,13.652
34,1436170463687,-3.747,-30.364,13.652
35,1436170463720,-3.747,-30.364,13.652
36,1436170463735,-3.747,-30.364,13.652
37,1436170463871,-3.747,-30.364,13.652
38,1436170463872,-3.747,-30.364,13.652
39,1436170463873,-3.747,-30.364,13.652
40,1436170463874,-3.747,-30.364,13.652
41,1436170463875,-3.747,-30.364,13.652
42,1436170463876,-3.747,-30.364,13.652
43,1436170463877,-3.747,-30.364,13.652
44,1436170464207,-3.747,-30.364,13.652
45,1436170464208,-3.747,-30.364,13.652
46,1436170464209,-3.747,-30.364,13.652
47,1436170464210,-3.747,-30.364,13.652
48,1436170464211,-3.747,-30.364,13.652
49,1436170464212,-3.747,-30.364,13.952
50,1436170464213,-3.747,-30.364,13.952
51,1436170464214,-3.747,-30.364,13.952
52,1436170464215,-3.747,-30.364,13.952
53,1436170464216,-3.747,-30.364,13.952
54,1436170464217,-3.747,-30.364,13.952
55,1436170464218,-3.747,-30.364,13.952
56,1436170464219,-3.747,-30.364,13.952
57,1436170464220,-3.747,-30.364,13.952
58,1436170464221,-3.747,-30.364,13.952
59,1436170464222,-3.747,-30.364,13.952
60,1436170464223,-3.747,-30.364,13.952
61,1436170464228,-3.747,-30.364,13.952
62,1436170464249,-3.747,-30.364,13.952
63,1436170464270,-3.747,-30.364,13.952
64,1436170464290,-3.747,-30.364,13.952
65,1436170464310,-3.747,-30.364,13.952
66,1436170464329,-3.747,-30.364,13.952
67,1436170464350,-3.747,-30.364,13.952
68,1436170464370,-3.747,-30.364,13.952
69,1436170464390,-3.747,-30.364,13.952
70,1436170464409,-3.747,-30.364,13.952
71,1436170464431,-3.747,-30.364,13.952
72,1436170464449,-3.747,-30.364,13.952
73,1436170464469,-3.747,-30.364,13.952
74,1436170464489,-3.747,-30.364,13.952
75,1436170464510,-3.747,-30.364,13.952
76,1436170464530,-3.747,-30.364,13.952
77,1436170464550,-3.747,-30.364,13.952
78,1436170464569,-3.747,-30.364,13.952
79,1436170464595,-3.747,-30.364,13.952
80,1436170464668,-3.747,-30.364,13.952
81,1436170464669,-3.747,-30.364,13.952
82,1436170464670,-3.747,-30.364,13.952
83,1436170464671,-3.747,-30.364,13.952
84,1436170464687,-3.747,-30.364,13.952
85,1436170464707,-3.747,-30.364,13.63
86,1436170464727,-3.747,-30.364,13.63
87,1436170464752,-3.747,-30.364,13.63
88,1436170464769,-3.747,-30.364,13.63
89,1436170464789,-3.747,-30.364,13.63
90,1436170464808,-3.747,-30.364,13.63
91,1436170464828,-3.747,-30.364,13.63
92,1436170464848,-3.747,-30.364,13.63
93,1436170464870,-3.747,-30.364,13.63
94,1436170464890,-3.747,-30.364,13.63
95,1436170464910,-3.747,-30.364,13.63
96,1436170464930,-3.747,-30.364,13.63
97,1436170464950,-3.747,-30.364,13.63
98,1436170464968,-3.747,-30.364,13.63
99,1436170464991,-3.747,-30.364,13.63
100,1436170465011,-3.747,-30.364,13.63
101,1436170465031,-3.747,-30.364,13.63
102,1436170465051,-3.747,-30.364,13.63
103,1436170465069,-3.747,-30.364,13.63
104,1436170465091,-3.747,-30.364,13.63
105,1436170465111,-3.747,-30.364,13.63
106,1436170465131,-3.747,-30.364,13.63
107,1436170465148,-3.747,-30.364,13.63
108,1436170465170,-3.747,-30.364,13.63
109,1436170465190,-3.747,-30.364,13.63
110,1436170465211,-3.747,-30.364,13.63
111,1436170465231,-3.747,-30.364,13.63
112,1436170465251,-3.747,-30.364,13.63
113,1436170465268,-3.747,-30.364,13.63
114,1436170465289,-3.747,-30.364,13.63
115,1436170465308,-3.747,-30.364,13.63
116,1436170465379,-3.747,-30.364,13.63
117,1436170465380,-3.747,-30.364,13.63
118,1436170465382,-3.747,-30.364,13.63
119,1436170465397,-3.747,-30.364,13.63
120,1436170465408,-3.747,-30.364,13.63
121,1436170465430,-3.747,-30.364,13.94
122,1436170465448,-3.747,-30.364,13.94
123,1436170465468,-3.747,-30.364,13.94
124,1436170465490,-3.747,-30.364,13.94
125,1436170465509,-3.747,-30.364,13.94
126,1436170465529,-3.747,-30.364,13.94
127,1436170465550,-4.074,-30.364,13.94
128,1436170465569,-4.074,-30.364,13.94
129,1436170465590,-4.074,-30.364,13.94
130,1436170465610,-4.074,-30.364,14.254
131,1436170465631,-4.074,-30.364,14.254
132,1436170465651,-4.074,-30.364,14.254
133,1436170465671,-4.074,-30.364,14.254
134,1436170465691,-4.074,-30.364,14.254
135,1436170465711,-4.074,-30.364,14.254
136,1436170465731,-4.074,-30.364,14.254
137,1436170465750,-4.074,-30.364,14.254
138,1436170465771,-4.074,-30.364,14.254
139,1436170465790,-4.074,-30.364,14.254
140,1436170465810,-4.074,-30.364,14.254
141,1436170465831,-4.074,-30.364,14.254
142,1436170465851,-4.074,-30.364,14.254
143,1436170465871,-4.074,-30.364,14.254
144,1436170465890,-4.074,-30.364,14.254
145,1436170465911,-4.074,-30.364,14.254
146,1436170465931,-4.074,-30.364,14.254
147,1436170465951,-3.775,-30.364,14.254
148,1436170465972,-3.775,-30.364,14.254
149,1436170465991,-3.775,-30.364,13.945
150,1436170466008,-3.775,-30.364,13.945
151,1436170466031,-3.775,-30.364,13.945
152,1436170466058,-3.775,-30.364,13.945
153,1436170466131,-3.775,-30.364,13.945
154,1436170466132,-3.775,-30.364,13.945
155,1436170466133,-3.775,-30.364,13.945
156,1436170466134,-3.775,-30.364,13.945
157,1436170466149,-3.775,-30.364,13.945
158,1436170466176,-3.775,-30.364,13.945
159,1436170466189,-3.775,-30.364,13.945
160,1436170466209,-3.775,-30.364,13.945
161,1436170466230,-3.775,-30.364,13.945
162,1436170466250,-3.775,-30.364,13.945
163,1436170466271,-3.775,-30.364,13.945
164,1436170466290,-3.775,-30.364,13.945
165,1436170466309,-3.775,-30.364,13.945
166,1436170466330,-3.775,-30.364,13.945
167,1436170466352,-3.775,-30.364,13.945
168,1436170466372,-3.775,-30.364,13.945
169,1436170466392,-3.775,-30.364,13.945
170,1436170466412,-3.775,-30.364,13.945
171,1436170466432,-3.775,-30.364,13.945
172,1436170466455,-3.775,-30.364,13.945
173,1436170466469,-3.775,-30.364,13.945
174,1436170466489,-3.775,-30.364,13.945
175,1436170466509,-3.775,-30.364,13.945
176,1436170466530,-3.775,-30.364,13.945
177,1436170466550,-3.775,-30.364,13.945
178,1436170466570,-3.775,-30.364,13.945
179,1436170466592,-3.775,-30.364,13.945
180,1436170466612,-3.775,-30.364,13.945
181,1436170466630,-3.775,-30.364,13.945
182,1436170466651,-3.775,-30.364,13.945
183,1436170466671,-3.775,-30.364,13.945
184,1436170466691,-3.775,-30.364,13.945
185,1436170466712,-3.775,-30.364,13.945
186,1436170466732,-3.775,-30.364,13.945
187,1436170466749,-3.775,-30.364,13.945
188,1436170466772,-3.775,-30.364,13.945
189,1436170466802,-3.775,-30.364,13.945
190,1436170466870,-3.775,-30.364,13.945
191,1436170466871,-3.775,-30.364,13.945
192,1436170466872,-3.775,-30.364,13.945
193,1436170466873,-3.775,-30.364,13.945
194,1436170466889,-3.775,-30.364,13.945
195,1436170466909,-3.775,-30.364,13.945
196,1436170466929,-3.775,-30.364,13.945
197,1436170466949,-3.775,-30.364,13.945
198,1436170466970,-3.775,-30.364,13.945
199,1436170466992,-3.775,-30.364,13.945
200,1436170467010,-3.775,-30.364,13.945
201,1436170467030,-3.775,-30.364,13.945
202,1436170467051,-3.775,-30.364,13.945
203,1436170467073,-3.775,-30.364,13.945
204,1436170467093,-3.775,-30.364,13.945
205,1436170467113,-3.775,-30.364,13.945
206,1436170467133,-3.775,-30.364,13.945
207,1436170467153,-3.775,-30.364,13.945
208,1436170467173,-3.775,-30.364,13.945
209,1436170467193,-3.775,-30.364,13.945
210,1436170467213,-3.775,-30.364,13.945
211,1436170467233,-3.775,-30.364,13.945
212,1436170467251,-3.775,-30.364,13.945
213,1436170467272,-3.775,-30.364,13.945
214,1436170467293,-3.775,-30.364,13.945
215,1436170467312,-3.775,-30.364,13.945
216,1436170467332,-3.775,-30.364,13.945
217,1436170467351,-3.775,-30.364,13.945
218,1436170467372,-3.775,-30.364,13.945
219,1436170467392,-3.775,-30.364,13.945
220,1436170467413,-3.775,-30.364,13.945
221,1436170467430,-3.775,-30.364,13.945
222,1436170467452,-3.775,-30.364,13.945
223,1436170467470,-3.775,-30.364,13.945
224,1436170467492,-4.092,-30.364,13.945
225,1436170467512,-4.092,-30.364,13.945
226,1436170467579,-4.092,-30.364,13.945
227,1436170467580,-4.092,-30.364,13.945
228,1436170467581,-4.092,-30.364,13.945
229,1436170467597,-4.092,-30.364,13.945
230,1436170467611,-4.092,-30.364,13.945
231,1436170467630,-4.092,-30.364,13.945
232,1436170467652,-4.092,-30.364,13.945
233,1436170467672,-4.092,-30.364,13.945
234,1436170467693,-4.092,-30.364,13.945
235,1436170467711,-4.092,-30.364,13.945
236,1436170467731,-4.092,-30.364,13.945
237,1436170467751,-4.092,-30.364,13.945
238,1436170467774,-4.092,-30.364,13.945
239,1436170467790,-4.092,-30.364,13.945
240,1436170467811,-4.092,-30.364,13.945
241,1436170467860,-4.092,-30.364,13.945
242,1436170467861,-4.092,-30.364,13.945
243,1436170467873,-4.092,-30.364,13.945
244,1436170467894,-4.092,-30.364,13.945
245,1436170467912,-4.092,-30.364,13.945
246,1436170467933,-4.092,-30.364,13.945
247,1436170467954,-4.092,-30.364,13.945
248,1436170467972,-4.092,-30.364,13.945
249,1436170467990,-4.092,-30.364,13.945
250,1436170468014,-4.092,-30.364,13.945
251,1436170468030,-4.092,-30.364,13.945
252,1436170468053,-4.092,-30.364,13.945
253,1436170468070,-4.092,-30.364,13.945
254,1436170468093,-4.092,-30.364,13.945
255,1436170468114,-4.092,-30.364,13.945
256,1436170468132,-4.092,-30.364,13.945
257,1436170468154,-3.79,-30.364,13.945
258,1436170468173,-3.79,-30.364,13.945
259,1436170468194,-3.79,-30.364,13.945
260,1436170468211,-3.79,-30.364,13.945
261,1436170468232,-3.79,-30.364,13.945
262,1436170468254,-3.79,-30.364,13.945
263,1436170468311,-3.79,-30.364,13.945
264,1436170468312,-3.79,-30.364,13.945
265,1436170468313,-3.79,-30.364,13.945
266,1436170468333,-3.79,-30.364,13.945
267,1436170468351,-3.79,-30.364,13.945
268,1436170468371,-3.79,-30.364,13.945
269,1436170468391,-3.79,-30.364,13.945
270,1436170468411,-3.79,-30.364,13.945
271,1436170468431,-3.79,-30.364,13.945
272,1436170468452,-3.79,-30.364,13.945
273,1436170468488,-3.79,-30.364,13.945
274,1436170468498,-3.79,-30.364,13.945
275,1436170468521,-3.79,-30.364,13.945
276,1436170468542,-3.79,-30.364,13.945
277,1436170468552,-3.79,-30.364,13.945
278,1436170468583,-3.79,-30.364,13.945
279,1436170468590,-3.79,-30.364,13.945
280,1436170468611,-3.79,-30.364,13.945
281,1436170468631,-4.1,-30.364,13.945
282,1436170468655,-4.1,-30.364,13.945
283,1436170468671,-4.1,-30.364,13.945
284,1436170468691,-4.1,-30.364,13.945
285,1436170468711,-4.1,-30.364,13.945
286,1436170468731,-4.1,-30.364,13.945
287,1436170468751,-4.1,-30.364,13.945
288,1436170468773,-4.1,-30.364,13.945
289,1436170468793,-4.1,-30.364,13.945
290,1436170468813,-4.1,-30.364,13.945
291,1436170468831,-4.1,-30.364,13.945
292,1436170468851,-4.1,-30.364,13.945
293,1436170468871,-4.1,-30.364,13.945
294,1436170468891,-4.1,-30.364,13.945
295,1436170468911,-4.1,-30.364,13.945
296,1436170468936,-4.1,-30.364,13.945
297,1436170468954,-4.1,-30.364,13.945
298,1436170468972,-4.1,-30.364,13.945
299,1436170468991,-4.1,-30.364,13.945
300,1436170469016,-4.1,-30.364,13.945
301,1436170469030,-4.1,-30.364,13.945
302,1436170469050,-4.1,-30.364,13.945
303,1436170469070,-4.1,-30.364,13.945
304,1436170469090,-4.406,-30.364,13.945
305,1436170469110,-4.406,-30.364,13.945
306,1436170469130,-4.406,-30.364,13.945
307,1436170469150,-4.406,-30.364,13.945
308,1436170469170,-4.406,-30.364,13.945
309,1436170469190,-4.406,-30.364,13.945
310,1436170469210,-4.406,-30.364,13.945
311,1436170469230,-4.406,-30.364,13.945
312,1436170469250,-4.406,-30.364,13.945
313,1436170469270,-4.406,-30.364,13.945
314,1436170469290,-4.406,-30.364,13.945
315,1436170469310,-4.406,-30.364,13.945
316,1436170469330,-4.406,-30.364,13.945
317,1436170469350,-4.406,-30.364,13.945
318,1436170469370,-4.406,-30.364,13.945
319,1436170469390,-4.406,-30.364,13.945
320,1436170469410,-4.406,-30.364,13.945
321,1436170469435,-4.406,-30.364,13.945
322,1436170469453,-4.406,-30.364,13.945
323,1436170469470,-4.406,-30.364,13.945
324,1436170469490,-4.406,-30.364,13.945
325,1436170469514,-4.406,-30.364,13.945
326,1436170469531,-4.406,-30.364,13.945
327,1436170469554,-4.406,-30.364,13.945
328,1436170469572,-4.406,-30.364,13.945
329,1436170469598,-4.406,-30.364,13.945
330,1436170469637,-4.406,-30.364,13.945
331,1436170469638,-4.406,-30.364,13.945
332,1436170469651,-4.406,-30.364,13.945
333,1436170469671,-4.406,-30.364,13.945
334,1436170469691,-4.406,-30.364,13.945
335,1436170469715,-4.406,-30.364,13.945
336,1436170469735,-4.406,-30.364,13.945
337,1436170469752,-4.093,-30.364,13.945
338,1436170469772,-4.093,-30.364,13.945
339,1436170469793,-4.093,-30.364,13.945
340,1436170469815,-4.093,-30.364,13.945
341,1436170469837,-4.093,-30.364,13.945
342,1436170469855,-4.093,-30.364,13.945
343,1436170469875,-4.093,-30.364,13.945
344,1436170469897,-4.093,-30.364,13.945
345,1436170469915,-4.093,-30.364,13.945
346,1436170469935,-4.093,-30.364,13.945
347,1436170469955,-4.093,-30.364,13.945
348,1436170469975,-4.093,-30.364,13.945
349,1436170469995,-4.093,-30.364,13.945
350,1436170470013,-4.093,-30.364,13.945
351,1436170470033,-4.093,-30.364,13.945
352,1436170470055,-4.093,-30.364,13.945
353,1436170470075,-4.093,-30.364,13.945
354,1436170470094,-4.093,-30.364,13.945
355,1436170470116,-4.093,-30.364,13.945
356,1436170470136,-4.093,-30.364,13.945
357,1436170470156,-4.093,-30.364,13.945
358,1436170470176,-4.093,-30.364,13.945
359,1436170470195,-4.093,-30.364,13.945
360,1436170470216,-3.793,-30.364,13.945
361,1436170470236,-3.793,-30.364,13.945
362,1436170470256,-3.793,-30.364,13.945
363,1436170470275,-3.793,-30.364,13.945
364,1436170470353,-3.793,-30.364,13.945
365,1436170470354,-3.793,-30.364,13.945
366,1436170470355,-3.793,-30.364,13.945
367,1436170470356,-3.793,-30.364,13.945
368,1436170470374,-3.793,-30.364,13.945
369,1436170470397,-3.793,-30.364,13.945
370,1436170470414,-3.793,-30.364,13.945
371,1436170470433,-3.793,-30.364,13.945
372,1436170470455,-3.793,-30.364,13.945
373,1436170470474,-3.793,-30.364,13.945
374,1436170470494,-3.793,-30.364,13.945
375,1436170470515,-3.793,-30.364,13.945
376,1436170470539,-3.793,-30.364,13.945
377,1436170470556,-3.793,-30.364,13.945
378,1436170470577,-3.793,-30.364,13.945
379,1436170470595,-3.793,-30.364,13.945
380,1436170470614,-3.793,-30.364,13.945
381,1436170470638,-3.793,-30.364,13.945
382,1436170470654,-3.793,-30.364,13.945
383,1436170470675,-3.793,-30.364,13.945
384,1436170470696,-3.793,-30.364,13.945
385,1436170470716,-3.793,-30.364,13.945
386,1436170470738,-3.793,-30.364,13.945
387,1436170470753,-3.793,-30.364,13.945
388,1436170470776,-3.793,-30.364,13.945
389,1436170470797,-3.793,-30.364,13.945
390,1436170470817,-3.793,-30.364,13.945
391,1436170470837,-3.793,-30.364,13.945
392,1436170470856,-3.793,-30.364,13.945
393,1436170470876,-3.793,-30.364,13.945
394,1436170470895,-3.793,-30.364,13.945
395,1436170470915,-3.793,-30.364,13.945
396,1436170470938,-3.793,-30.364,13.945
397,1436170470957,-3.793,-30.364,13.945
398,1436170470977,-3.793,-30.364,13.945
399,1436170470995,-3.793,-30.364,13.945
400,1436170471016,-3.793,-30.364,13.945
401,1436170471087,-3.793,-30.364,13.945
402,1436170471088,-3.793,-30.364,13.945
403,1436170471089,-4.106,-30.364,13.945
404,1436170471095,-4.106,-30.364,13.945
405,1436170471122,-4.106,-30.364,13.945
406,1436170471135,-4.106,-30.364,13.945
407,1436170471153,-4.106,-30.364,13.945
408,1436170471175,-4.106,-30.364,13.945
409,1436170471193,-4.106,-30.364,13.945
410,1436170471218,-4.106,-30.364,13.945
411,1436170471238,-4.106,-30.364,13.945
412,1436170471254,-4.106,-30.364,13.945
413,1436170471273,-4.106,-30.364,13.945
414,1436170471297,-4.106,-30.364,13.945
415,1436170471317,-4.106,-30.364,13.945
416,1436170471337,-4.106,-30.364,13.945
417,1436170471356,-4.106,-30.364,13.945
418,1436170471377,-4.106,-30.364,13.945
419,1436170471397,-4.106,-30.364,13.945
420,1436170471417,-4.106,-30.364,13.945
421,1436170471437,-4.106,-30.364,13.945
422,1436170471458,-4.106,-30.364,13.945
423,1436170471475,-4.106,-30.364,13.945
424,1436170471496,-4.106,-30.364,13.945
425,1436170471516,-4.106,-30.364,13.945
426,1436170471538,-4.106,-30.364,13.945
427,1436170471558,-4.106,-30.364,13.945
428,1436170471574,-4.425,-30.364,14.27
429,1436170471596,-4.425,-30.065,14.27
430,1436170471614,-4.425,-30.065,14.27
431,1436170471636,-4.425,-30.065,14.595
432,1436170471662,-4.425,-30.065,14.595
433,1436170471678,-4.425,-30.065,14.595
434,1436170471696,-4.425,-29.725,15.046
435,1436170471714,-4.736,-29.725,15.046
436,1436170471804,-4.736,-29.725,15.377
437,1436170471805,-4.736,-29.725,15.377
438,1436170471806,-4.736,-29.725,15.884
439,1436170471807,-4.736,-29.414,15.884
440,1436170471815,-5.097,-29.414,15.884
441,1436170471836,-5.097,-29.414,16.275
442,1436170471855,-5.097,-29.414,16.275
443,1436170471874,-5.097,-29.414,16.609
444,1436170471899,-5.097,-29.054,16.609
445,1436170471915,-5.406,-29.054,16.609
446,1436170471935,-5.406,-29.054,17.059
447,1436170471955,-5.406,-29.054,17.059
448,1436170471975,-5.714,-29.054,17.059
449,1436170471996,-5.714,-29.054,17.462
450,1436170472017,-5.714,-28.73,17.462
451,1436170472037,-6.118,-28.73,17.462
452,1436170472117,-6.118,-28.73,17.462
453,1436170472118,-6.501,-28.73,17.462
454,1436170472119,-6.501,-28.73,17.462
455,1436170472120,-7.859,-28.73,17.462
456,1436170472134,-8.691,-28.73,17.462
457,1436170472156,-9.855,-28.385,17.462
458,1436170472176,-10.987,-28.385,17.462
459,1436170472203,-12.29,-28.385,17.462
460,1436170472217,-13.735,-28.031,16.712
461,1436170472237,-15.0,-28.031,15.071
462,1436170472257,-16.584,-27.674,13.851
463,1436170472277,-18.728,-26.347,13.221
464,1436170472296,-20.179,-23.921,12.069
465,1436170472318,-21.501,-21.844,12.069
466,1436170472337,-22.378,-19.282,12.435
467,1436170472357,-22.378,-16.65,12.435
468,1436170472377,-22.378,-15.019,12.844
469,1436170472398,-21.678,-14.048,13.177
470,1436170472418,-20.642,-14.048,13.177
471,1436170472436,-18.533,-13.644,14.562
472,1436170472462,-16.105,-13.644,15.109
473,1436170472536,-12.683,-14.576,16.372
474,1436170472537,-9.652,-15.653,16.372
475,1436170472538,-5.833,-16.894,16.372
476,1436170472539,-1.844,-17.369,16.372
477,1436170472556,2.001,-17.941,16.372
478,1436170472580,5.776,-17.941,15.788
479,1436170472597,9.263,-17.239,15.411
480,1436170472617,12.8,-16.511,13.85
481,1436170472637,15.647,-16.032,13.404
482,1436170472657,18.263,-16.032,12.503
483,1436170472689,20.295,-15.151,11.752
484,1436170472700,21.409,-15.151,11.282
485,1436170472720,21.798,-15.151,11.282
486,1436170472736,22.424,-15.151,11.282
487,1436170472798,22.424,-15.151,11.727
488,1436170472799,22.424,-15.579,12.695
489,1436170472800,21.759,-15.579,14.183
490,1436170472815,21.759,-15.946,15.261
491,1436170472896,20.945,-15.946,15.87
492,1436170472897,20.512,-16.452,16.397
493,1436170472898,19.964,-17.625,16.397
494,1436170472899,20.677,-19.107,15.321
495,1436170472916,20.677,-20.42,15.321
496,1436170472936,19.467,-21.52,15.91
497,1436170472957,18.93,-21.942,15.91
498,1436170472982,18.594,-22.357,16.618
499,1436170473002,18.927,-22.86,16.618
500,1436170473023,18.927,-23.362,16.618
501,1436170473038,19.413,-23.362,16.618
502,1436170473057,18.939,-23.73,16.618
503,1436170473074,18.49,-23.73,17.07
504,1436170473094,18.49,-23.73,17.07
505,1436170473115,18.49,-23.73,17.07
