id,attr_time,attr_db
1,1436547648075,36.2608421337338
2,1436547648758,33.6766412908745
3,1436547649488,34.7977676382495
4,1436547650279,41.5119991919583
5,1436547651002,30.2332346875372
6,1436547651745,31.2590936964185
7,1436547652552,47.54109261104
8,1436547653194,44.3369970480093
9,1436547653927,63.0999817855456
10,1436547654663,34.6908753199564
11,1436547655406,53.6266886083152
12,1436547656130,51.4868486927138
13,1436547656872,51.554819175409
14,1436547657676,36.6742203992533
15,1436547658412,39.2671594106151
16,1436547659141,43.0765600596169
17,1436547659878,45.1694183562719
18,1436547660581,33.4263751103251
19,1436547661223,33.6118800008714
20,1436547661929,42.2018210956676
21,1436547662709,41.164456111355
22,1436547663362,45.2075432633014
23,1436547664109,34.2320773408883
24,1436547664835,34.7958389717846
25,1436547665569,40.0796173621719
26,1436547666281,58.8311311392501
27,1436547667023,36.2324621004977
28,1436547667762,35.8142668566001
29,1436547668493,40.5579996147691
30,1436547669215,54.1039404024097
31,1436547669943,39.5528076929585
32,1436547670672,46.888455643064
33,1436547671401,47.639541619307
34,1436547672130,46.3472355166597
35,1436547672888,51.6662208475432
36,1436547673662,41.6635717759185
37,1436547674372,38.7997010582875
38,1436547675115,42.2380089270433
39,1436547675842,40.0906296065206
40,1436547676569,38.4059179849377
41,1436547677253,38.2790154901549
42,1436547677984,40.719030465062
43,1436547678696,33.8858787067469
44,1436547679437,53.501227687987
45,1436547680166,45.2726080879713
46,1436547681021,35.1324906845194
47,1436547681750,48.6645086180273
48,1436547682487,47.5017965286778
49,1436547683195,39.2968479609328
50,1436547683857,37.659738728766
51,1436547684653,35.5886556166679
52,1436547685372,33.9523467658604
53,1436547686072,50.6080192842354
54,1436547686773,41.6157715804018
55,1436547687448,41.6756128881354
56,1436547688174,38.6235588425007
57,1436547688910,48.4918826907107
58,1436547689597,42.6188575212656
59,1436547690335,37.708649383564
60,1436547691068,37.1435034465082
61,1436547691807,38.8420646060781
62,1436547692565,43.7214398772216
63,1436547693259,54.9111295929686
64,1436547693910,47.7581095374158
65,1436547694638,47.3507533292434
66,1436547695349,40.1188484016359
67,1436547696075,41.8957320255596
68,1436547696830,37.3150726923764
69,1436547697574,58.2826265575865
70,1436547698309,37.9153321919257
71,1436547699046,42.1612053534703
72,1436547699780,33.309747532323
73,1436547700496,32.6153009704241
74,1436547701225,46.8041368184561
75,1436547701954,54.4088174729906
76,1436547702671,32.0939227978375
77,1436547703382,31.0889986299499
78,1436547704083,37.7951998528571
79,1436547704715,39.6598867366787
80,1436547705377,39.9564504423745
81,1436547706095,56.6487177886407
82,1436547706871,50.1852545772196
83,1436547707614,58.9673593093318
84,1436547708354,41.1428786951231
85,1436547709098,39.0304276393905
86,1436547709842,45.7818507289161
87,1436547710570,47.3826477436619
88,1436547711284,35.7584582971498
89,1436547712013,54.6957047089485
90,1436547712726,50.2412701323425
91,1436547713429,55.8099278062155
92,1436547714082,46.1183960647728
93,1436547714829,36.3020943738362
94,1436547715577,41.297755786387
95,1436547716283,35.952948412906
96,1436547717015,46.3635793138963
97,1436547717749,39.3065494476465
98,1436547718413,51.065367725795
99,1436547719119,42.481235914043
100,1436547719838,34.126904320302
101,1436547720596,41.4092770650231
102,1436547721284,35.031040600217
103,1436547722755,48.0872264530365
104,1436547723487,48.342371844289
105,1436547724247,32.1006596101473
106,1436547724916,41.5877760135069
107,1436547725653,44.6837288005049
108,1436547726378,31.622751451224
109,1436547727110,39.4745382290604
110,1436547727818,33.6715057200693
111,1436547729784,39.5615911832093
112,1436547730517,47.9524383980078
113,1436547731253,32.2302945761428
114,1436547731978,47.5559346666372
115,1436547732713,46.9947264122945
116,1436547733429,58.8810446620554
117,1436547734105,45.7422304783251
118,1436547734736,38.5174898354651
119,1436547736266,45.5564270525092
120,1436547737064,34.9894068462766
121,1436547737801,50.6644856180145
122,1436547738544,50.7721640441248
123,1436547739241,45.1172425528504
124,1436547739895,33.73311568023
125,1436547741117,31.0965747949595
126,1436547741684,46.0563554030284
127,1436547742423,49.9945566240923
128,1436547743146,47.0410461592476
129,1436547743852,35.5923876040662
130,1436547744514,51.277942547227
131,1436547745250,52.1062355291182
132,1436547745985,37.6857917978474
133,1436547746732,37.3056528551349
134,1436547747455,41.112904087623
135,1436547748180,54.062135012308
136,1436547748937,53.3450579916242
137,1436547749661,44.4356561563979
138,1436547750401,40.4202852190292
139,1436547751152,44.7325837398262
140,1436547751887,41.2975882032329
141,1436547752694,48.931601911448
142,1436547753408,46.2690473587583
143,1436547754131,43.9696295061345
144,1436547754819,39.1190680301566
145,1436547755500,53.6013255221032
146,1436547756220,51.1559838924392
147,1436547756899,45.6475021677452
148,1436547757750,42.3073554252258
149,1436547758484,35.5002709641036
150,1436547759202,40.0295410401551
151,1436547759883,43.3827687739702
152,1436547760541,37.0361263314608
153,1436547761257,42.9269296851812
154,1436547761947,51.0352621131408
155,1436547762723,46.0325854995462
156,1436547763463,58.158039879018
157,1436547764184,55.1104938685737
158,1436547764886,44.4012510810744
159,1436547765540,56.6179263837902
160,1436547766239,40.0607966329322
161,1436547766951,56.2780347109111
162,1436547767750,43.6597798078686
163,1436547768475,44.8397396286822
164,1436547769192,45.8901255793541
165,1436547769902,44.3428708332549
166,1436547770657,37.7240282049227
167,1436547771382,47.3913688218151
168,1436547772120,52.5153846200149
169,1436547772953,45.3954938177886
170,1436547773648,46.8059396596409
171,1436547774372,46.4489664032246
172,1436547775069,51.8299549360085
173,1436547775735,61.3314720882504
174,1436547776482,55.0045220196
175,1436547777193,44.0464972842438
176,1436547777921,35.1236480087349
177,1436547778638,50.7103704267426
178,1436547779364,44.0464929209186
179,1436547780106,43.1223156228223
180,1436547780846,39.2236618790354
181,1436547781521,35.5572649874607
182,1436547782111,40.6116959188616
183,1436547782808,38.5359089743138
184,1436547783544,50.3545731726299
185,1436547784265,43.9557268050699
186,1436547784954,40.8135922209791
187,1436547785623,37.4600113957742
188,1436547786352,34.7740761101721
189,1436547787063,52.0653929169061
190,1436547787793,45.1262115950178
191,1436547788536,45.2721115422527
192,1436547789208,55.5309557295988
193,1436547789881,52.8835166742696
194,1436547790620,42.225284654855
195,1436547791324,45.8152501152849
196,1436547792033,51.9942696131574
197,1436547792778,53.7453422756646
198,1436547793518,48.0056588371404
199,1436547794259,44.3105513656909
200,1436547794978,56.6301592854309
201,1436547795730,52.5001846606158
202,1436547796518,43.5144839264446
203,1436547797255,63.6275355482702
204,1436547797995,55.4721469318904
205,1436547798786,56.9080724019771
206,1436547799503,46.5363197193447
207,1436547800246,41.3412494347742
208,1436547800981,43.8057816070146
209,1436547801711,49.3748991688817
210,1436547802361,42.828837974559
211,1436547803099,44.6619816344127
212,1436547803820,44.4080431156497
213,1436547804541,42.7643665704477
214,1436547805258,56.1884773580364
215,1436547805909,45.9810495915831
216,1436547806655,42.1142347729063
217,1436547807373,41.7288286334968
218,1436547808077,40.8660031576752
219,1436547808856,46.2055047742471
220,1436547809568,39.5928359004709
221,1436547810314,46.5611388201031
222,1436547811053,43.2974082914963
223,1436547811772,40.7684826186959
224,1436547812497,42.4604949762346
225,1436547813233,37.2040495300828
226,1436547813967,47.8174709445023
227,1436547814700,32.0000668728021
228,1436547815456,42.5334880725461
229,1436547816145,39.8464502115475
230,1436547816795,37.4222984222482
231,1436547817501,33.2355058729283
232,1436547818226,34.4414957843613
233,1436547818972,48.1797381005781
234,1436547819723,55.9120984200748
235,1436547820443,52.5806488496701
236,1436547821173,46.0663208386643
237,1436547821903,44.7741639740961
238,1436547822528,44.2734378146703
239,1436547823226,37.8455092880251
240,1436547823938,40.726660443151
241,1436547824687,44.0983413792402
242,1436547825425,43.1279388615111
243,1436547826140,36.3147128383392
244,1436547826876,51.9789374331525
245,1436547827651,61.7334506492665
246,1436547828374,48.5065316365989
247,1436547829109,48.1311125846193
248,1436547829864,34.6101299235573
249,1436547830597,41.2246771828598
250,1436547831354,48.9047991274377
251,1436547832099,49.6161415352272
252,1436547832792,36.6748542204725
253,1436547833526,39.4434367406951
254,1436547834257,43.6880367663159
255,1436547834986,26.760642993502
256,1436547835723,41.7759697247626
257,1436547836477,46.1904770680489
258,1436547837144,39.1280546319065
259,1436547837870,44.7375945030457
260,1436547838636,41.0320929917532
261,1436547839372,37.5322631827153
262,1436547840063,34.8367338729322
263,1436547840783,48.2738975982421
264,1436547841529,28.914751399013
265,1436547842361,45.062232302959
266,1436547843023,44.643450684231
267,1436547843747,41.9602365332818
268,1436547844505,45.1082585774136
269,1436547845232,41.2480221761815
270,1436547845957,35.2052788235825
271,1436547846718,57.4806482064722
272,1436547847450,40.1380948506498
273,1436547848180,44.6339679679721
274,1436547848918,37.8189757902434
275,1436547849672,39.2218080310913
276,1436547850392,47.8028357143955
277,1436547851093,49.8186549626862
278,1436547851786,49.2683576507481
279,1436547852612,44.4121776611118
280,1436547853342,45.8656853705553
281,1436547854070,55.4695391613791
282,1436547854803,44.1399642321236
283,1436547855544,45.8417405390933
284,1436547856278,56.7571485978535
285,1436547857060,44.0486745150834
286,1436547857724,47.9568915696847
287,1436547858448,48.1148619340942
288,1436547859170,43.7023022751925
289,1436547859887,55.3912615418927
290,1436547860603,49.6215887265006
291,1436547861335,40.064739026777
292,1436547862044,41.3175701064235
293,1436547862666,43.3875676306801
294,1436547863385,46.5973883581741
295,1436547864105,45.4879052092614
296,1436547864823,43.8956026602859
297,1436547865567,45.5818112402305
298,1436547866298,49.7878743554683
299,1436547867077,48.2962067620873
300,1436547867756,54.9196813770852
301,1436547868437,42.0746153708745
302,1436547869188,40.5431553980927
303,1436547869896,43.5016017295745
304,1436547870628,52.9492078402149
305,1436547871375,42.8891042141067
306,1436547872008,34.0420674761951
307,1436547872634,40.6122716918549
308,1436547873382,35.6156744461257
309,1436547874116,39.5040691018436
310,1436547874858,38.1775367994518
311,1436547875592,40.6695997143095
312,1436547876318,45.6656879664282
313,1436547877141,37.1969292405928
314,1436547877888,28.9499296896706
315,1436547878483,51.5103771719775
316,1436547879187,44.179444640181
317,1436547879842,41.7642573072413
318,1436547880538,57.7443721934743
319,1436547881226,44.810751791849
320,1436547881964,42.4171962192444
321,1436547882782,54.7058011905825
322,1436547883522,51.6386156807575
323,1436547884248,39.2243527993631
324,1436547884984,39.0559131163091
325,1436547885711,49.1457936200289
326,1436547886445,39.7100055229597
327,1436547887155,51.6577683785606
328,1436547887918,56.4456147699361
329,1436547888609,41.2944844084989
330,1436547889349,58.3490033889421
331,1436547890070,40.3935233698041
332,1436547890806,51.8729730336009
333,1436547891484,52.8506209904477
334,1436547892143,49.6921775133339
335,1436547892893,53.295858155333
336,1436547893619,54.2263403156846
337,1436547894340,37.8147955886054
338,1436547895080,46.9417424278113
339,1436547895812,43.4794955754941
340,1436547896553,49.215784201199
341,1436547897282,36.4179961905486
342,1436547898009,40.5926143147171
343,1436547898744,57.05922038624
344,1436547899480,37.2012088109897
345,1436547900206,35.6350402709123
346,1436547900940,37.1901287385731
347,1436547901700,50.357570381719
348,1436547902453,42.3689024799612
349,1436547903152,50.9641598863713
350,1436547903841,53.3663992870927
351,1436547904531,58.2080812353106
352,1436547905187,49.4293247455681
353,1436547905901,61.1932000960234
354,1436547906626,52.338720633863
355,1436547907354,46.4015009117943
356,1436547908075,57.1030042295671
357,1436547908755,65.7768181610582
358,1436547909432,56.3534276005523
359,1436547910118,46.5451889145127
360,1436547910856,60.3361156119664
361,1436547911600,55.4640729642108
362,1436547912336,38.8746180561533
363,1436547913073,45.8145354862185
364,1436547913818,42.914801520281
365,1436547914557,40.4267950493744
366,1436547915296,41.2824309528462
367,1436547916008,54.7802270273855
368,1436547916741,55.5596473931191
369,1436547917474,49.2301907981912
370,1436547918157,35.2103417705929
371,1436547918858,43.3477158205169
372,1436547919525,41.3918855254944
373,1436547920260,43.1601934967305
374,1436547921012,41.2664854528317
375,1436547921740,45.096822133265
376,1436547922468,39.6589705294097
377,1436547923277,42.9994193218881
378,1436547923980,62.1502886079349
379,1436547924701,49.0134588717073
380,1436547925385,54.7343776573397
381,1436547926963,41.7135515987867
382,1436547927627,45.520521782546
383,1436547928343,51.7894970333875
384,1436547929043,54.0373245484145
385,1436547929709,36.9393314817292
386,1436547930453,41.5605307591925
387,1436547931150,32.6806601464323
388,1436547931872,39.0457878960211
389,1436547932635,48.0358118221045
390,1436547933352,43.4941337677063
391,1436547934098,43.4973294193046
392,1436547934866,50.3501273513252
393,1436547935594,53.5501785172675
394,1436547936257,54.3447692416222
395,1436547937679,33.505451481522
396,1436547938380,36.1607012704477
397,1436547939065,54.7301448896146
398,1436547939699,49.0642964052906
399,1436547940431,47.05223805727
400,1436547941139,42.4350136781722
401,1436547941872,45.0224721735035
402,1436547942589,42.5975373238931
403,1436547943224,47.9991281044289
404,1436547943921,41.4029216233024
405,1436547944643,38.4882114771385
406,1436547945360,49.9302580586415
407,1436547946085,46.7556115678299
408,1436547946886,38.0941797316711
409,1436547947609,42.9011563063997
410,1436547948333,49.1339387601802
411,1436547949067,37.7075329857981
412,1436547949789,38.7338777973906
413,1436547950517,54.0230144540746
414,1436547951178,55.5936956655174
415,1436547952542,56.0120935643001
416,1436547953175,38.9436306259134
417,1436547953880,44.47288865104
418,1436547954553,46.0255659713643
419,1436547955274,42.4156494826917
420,1436547956014,40.3040215786644
421,1436547956737,39.3509435427246
422,1436547957532,35.2036159982889
423,1436547958261,47.3945008473661
424,1436547958950,47.686876404275
425,1436547959593,41.5450489285082
426,1436547961449,44.9126666894508
427,1436547962105,56.2911250007405
428,1436547962827,32.8641082976814
429,1436547963596,42.5574630058752
430,1436547964294,42.5588490068819
431,1436547965024,34.2249559107319
432,1436547965763,59.9504986408386
433,1436547966478,52.1096356221402
434,1436547967167,43.6211344480032
435,1436547967862,41.8049739168572
436,1436547968594,47.7010647069352
437,1436547969315,36.6863229919802
438,1436547970032,55.8469278871099
439,1436547970714,44.2113033045865
440,1436547971474,34.5189594159472
441,1436547972204,31.9482172397189
442,1436547972931,47.2141105408742
443,1436547973710,51.6960087111214
444,1436547974408,44.0621834656718
445,1436547975131,44.8156347473331
446,1436547975868,54.2066267785564
447,1436547976595,61.7064069833842
448,1436547977338,35.8387502750676
449,1436547978088,48.6916602640243
450,1436547978816,42.6974456860903
451,1436547979542,52.6204021818022
452,1436547980247,41.0342195629684
453,1436547980905,46.2004930339606
454,1436547981668,47.2737685729035
455,1436547982372,46.5334505619763
456,1436547983118,41.9553053095131
457,1436547983990,38.6272993700344
458,1436547984662,51.4802013394775
459,1436547985379,33.7185660516526
460,1436547986078,49.0196137481793
461,1436547986834,32.0874664296633
462,1436547987570,39.230114793507
463,1436547988315,39.9791357566431
464,1436547989044,36.6308497460135
465,1436547989784,59.5101399768193
466,1436547990514,42.2207442314468
467,1436547991168,47.2721780502592
468,1436547991915,51.1383835669672
469,1436547992696,62.8280083269509
470,1436547993419,45.0645467088041
471,1436547994151,47.095999947989
472,1436547994950,64.409326902358
473,1436547995671,47.584120973324
474,1436547996459,51.0362107014618
475,1436547997175,38.0890171635628
476,1436547997914,44.6556124908533
477,1436547998678,50.1288175355799
478,1436547999392,42.8141446132235
479,1436548000105,27.3685954465692
480,1436548000799,36.404976094046
481,1436548001549,60.3130188549859
482,1436548002286,46.4263084186794
483,1436548003031,36.8430929992041
484,1436548003748,25.5532913977926
485,1436548004413,45.6155096243157
486,1436548005147,36.7952950996463
487,1436548005860,39.5774954991509
488,1436548006584,46.7270693390921
489,1436548007324,46.6598519651429
490,1436548008060,42.0467145519855
491,1436548008782,44.5993051154751
492,1436548009506,24.2271710089399
493,1436548010222,41.3753826202237
494,1436548010891,56.3901982432096
495,1436548011617,37.6912410450546
496,1436548012350,36.8738116263772
497,1436548013104,51.0345585933062
498,1436548013857,44.3108265935624
499,1436548014516,44.1915074963949
500,1436548015238,35.6024637432519
501,1436548015964,32.8952568280354
502,1436548016699,33.6196129267034
503,1436548017438,40.1366425232384
504,1436548018175,38.7898631758823
505,1436548018923,46.6586909970322
506,1436548019706,49.0721639506624
507,1436548020466,41.8784025864372
508,1436548021245,41.0762345404386
509,1436548021903,32.7089212976808
510,1436548022645,45.2513845935506
511,1436548023371,36.2348276659772
512,1436548024106,39.3691698261493
513,1436548024785,39.9009999000692
514,1436548025467,47.353956644543
515,1436548026201,34.4901275950381
516,1436548026944,40.6420862233703
517,1436548027678,30.8934711322006
518,1436548028419,43.4306705953328
519,1436548029161,36.9588137046529
520,1436548029890,43.0833547143239
521,1436548030666,40.4572266572724
522,1436548031414,48.7377988629031
523,1436548032233,50.1040254999212
524,1436548032969,48.4974138496027
525,1436548033710,47.2492286710735
526,1436548034432,31.1097555694073
527,1436548035114,25.7553306634211
528,1436548035833,54.081247271829
529,1436548036566,56.5127127835767
530,1436548037364,54.4450752993647
531,1436548038074,57.3754255778505
532,1436548038809,28.1749848904896
533,1436548039555,26.0624509017803
534,1436548040299,44.0144388416557
535,1436548041037,47.6414888567686
536,1436548041751,50.4078966608855
537,1436548042403,49.0379185727269
538,1436548043114,35.4212729055795
539,1436548043873,33.1407933064766
540,1436548044831,35.8712598324285
541,1436548045465,42.0859719480369
542,1436548046140,51.0202419892785
543,1436548046835,53.301564663255
544,1436548047508,38.3034352200168
545,1436548048224,41.0623533255987
546,1436548048941,53.2189312625521
547,1436548049682,50.9725807752837
548,1436548050420,55.8834570197471
549,1436548051134,49.8354368337107
550,1436548051828,55.7750594026054
551,1436548052461,48.9836166569242
552,1436548053165,48.0065550382375
553,1436548053867,52.1127739944086
554,1436548054576,41.5362288457644
555,1436548055315,55.1231060391389
556,1436548056038,44.6971975828571
557,1436548056731,54.933718569895
558,1436548057511,50.433575364366
559,1436548058239,43.7248071584128
560,1436548058976,55.2197384834759
561,1436548059718,38.8173984507824
562,1436548060454,49.7758390013731
563,1436548061178,46.3969156942809
564,1436548061877,42.2361751626014
565,1436548062701,43.8524627598167
566,1436548063433,50.5758830933484
567,1436548064154,39.7986302710929
568,1436548064875,47.11984960663
569,1436548065611,55.2942859853077
570,1436548066291,55.6479267680927
571,1436548067016,42.5477436233216
572,1436548067752,48.83130165316
573,1436548068483,42.2290491124014
574,1436548069225,45.8080763176919
575,1436548069959,52.1892873246145
