id,attr_time,attr_db
1,1436547648503,32.3331781050255
2,1436547649241,30.060577250999
3,1436547650014,35.1567958905418
4,1436547650745,28.7956005671218
5,1436547651463,29.0361017468975
6,1436547652193,25.7706199997349
7,1436547652925,34.169844677436
8,1436547653669,42.0852916690186
9,1436547654395,65.0440250814754
10,1436547655129,65.1574512322828
11,1436547655880,48.0467090846703
12,1436547656552,47.1956679775772
13,1436547657279,54.6170775129569
14,1436547658048,31.3443152149701
15,1436547658671,31.2311010952759
16,1436547659367,47.1924978997379
17,1436547660100,43.8750067729344
18,1436547660853,46.215869359015
19,1436547661614,34.2924711317789
20,1436547662347,32.289676526251
21,1436547663097,35.3821589555339
22,1436547663831,42.5529429090767
23,1436547664526,34.1070354110145
24,1436547665198,29.6256578944313
25,1436547665941,38.6199189343795
26,1436547666683,36.065572996728
27,1436547667473,66.93070035945
28,1436547668175,36.7408307050338
29,1436547668956,36.2246185023505
30,1436547669682,38.0695053375967
31,1436547670418,46.9633729674054
32,1436547671157,53.646366527817
33,1436547671843,39.3422621996961
34,1436547672432,52.9093205517348
35,1436547673115,62.9738134640353
36,1436547673868,38.7299996295871
37,1436547674609,36.7234424803898
38,1436547675229,37.5417306230052
39,1436547676711,30.0523510416879
40,1436547677411,31.7885902349522
41,1436547678147,37.2007349205876
42,1436547678885,34.404807620212
43,1436547679606,37.2498095852922
44,1436547680347,35.1098226486056
45,1436547681027,35.4572579721725
46,1436547682476,41.2626453759055
47,1436547683128,36.5486339648895
48,1436547683894,47.5196892039787
49,1436547684572,34.3847264853058
50,1436547685197,33.7710275636192
51,1436547685923,37.7519896627155
52,1436547686646,40.6402005213145
53,1436547687391,41.5504283167228
54,1436547688265,38.3069634046486
55,1436547689351,41.2080172018368
56,1436547690096,42.1525774562213
57,1436547690835,37.4042381645686
58,1436547691591,41.3307109943446
59,1436547692334,36.2471727812324
60,1436547693052,38.4227620484992
61,1436547694601,59.2720095685597
62,1436547695291,54.2917116004211
63,1436547696021,39.0348027690085
64,1436547696747,53.5617407396368
65,1436547697467,40.6654535199466
66,1436547698207,34.7511703931957
67,1436547698899,55.7403220018637
68,1436547699629,30.8005466003489
69,1436547700365,30.5867733196941
70,1436547701106,39.2600320166088
71,1436547701844,58.7680699412462
72,1436547702584,31.7440094114601
73,1436547703318,33.50220891183
74,1436547704061,35.4653210282472
75,1436547704800,60.7131237528309
76,1436547705497,34.1733469733938
77,1436547706234,66.6371475357744
78,1436547706981,68.0246149618633
79,1436547707717,55.1905391196041
80,1436547708456,37.9604090886776
81,1436547709174,38.222768579173
82,1436547709771,42.1628675214023
83,1436547710456,38.1700965650856
84,1436547711204,37.919419148376
85,1436547711941,46.2713615237801
86,1436547712667,67.7416858626178
87,1436547713409,63.9863265300163
88,1436547714158,54.331430667659
89,1436547714881,35.5506669769265
90,1436547715547,47.2556505785076
91,1436547716293,45.2736669618001
92,1436547717065,37.6446124543352
93,1436547717799,36.8488355874642
94,1436547718537,34.2044505315295
95,1436547719267,31.8547780680351
96,1436547719996,46.4771587116837
97,1436547720728,31.2320518084443
98,1436547721452,30.7279760480673
99,1436547722180,53.9302694272026
100,1436547722939,41.1048464539974
101,1436547723671,49.2692034198955
102,1436547724401,40.6422977475263
103,1436547725105,44.9930424643155
104,1436547725793,37.6060481684305
105,1436547726527,34.1523478568703
106,1436547727277,41.8880575323516
107,1436547728041,30.5703292383656
108,1436547728723,30.4007947090657
109,1436547729333,29.7682664027256
110,1436547730034,31.5927525160475
111,1436547730776,41.1461282071728
112,1436547731518,29.0633518575699
113,1436547732255,30.0697329647529
114,1436547732992,44.2802060755126
115,1436547733718,48.6719183320645
116,1436547734490,38.1313241450878
117,1436547735201,39.0735720544042
118,1436547735825,29.3911686510427
119,1436547736572,40.4604461425369
120,1436547737313,32.6102441604433
121,1436547738093,56.9829916194351
122,1436547738831,46.0322390812756
123,1436547739609,44.6958730130193
124,1436547740306,38.015700844046
125,1436547741031,33.5686265579563
126,1436547741769,33.280584242339
127,1436547742514,42.0032242211322
128,1436547743241,43.6632183731609
129,1436547743988,33.5825186449013
130,1436547744786,44.1894593218954
131,1436547745517,40.5429240740226
132,1436547746236,35.4261716792444
133,1436547746917,37.8572102750729
134,1436547747658,34.1755401219204
135,1436547748395,49.0646768874846
136,1436547749160,33.8604622531403
137,1436547749858,36.0926115416829
138,1436547750543,45.3280150131519
139,1436547751269,57.6858200293567
140,1436547752016,44.4266173106905
141,1436547752764,37.1710670256381
142,1436547753494,37.1294507527755
143,1436547754274,48.1161751367034
144,1436547755009,41.2780397539936
145,1436547755756,51.023708016938
146,1436547756433,43.6000694881165
147,1436547757088,41.4371174764905
148,1436547757812,48.5271560377938
149,1436547758523,37.3723621321606
150,1436547759241,35.3129284491098
151,1436547759824,60.4590477101919
152,1436547760508,55.27413344029
153,1436547761244,38.9991256903968
154,1436547761984,46.716796756955
155,1436547762721,48.9540944887144
156,1436547763444,36.7452484206759
157,1436547764262,37.3171487525316
158,1436547765009,40.7431731651499
159,1436547765751,48.5656390189686
160,1436547766452,34.8634617642512
161,1436547767118,40.6676853289035
162,1436547767842,40.8234184014643
163,1436547768558,46.5152771819736
164,1436547769288,41.0789284279452
165,1436547770081,45.8159337673487
166,1436547770796,40.6996922713216
167,1436547771409,30.9424627771174
168,1436547772112,41.9369440380845
169,1436547772850,42.7224596695733
170,1436547773599,45.6121091756823
171,1436547774335,57.2828732994994
172,1436547775086,62.4921464493792
173,1436547775819,48.5287938905637
174,1436547776447,54.4143315002824
175,1436547777149,41.5882443076254
176,1436547777890,39.8508912757868
177,1436547778629,39.4253870452798
178,1436547779377,62.1972817081494
179,1436547780111,49.7006221311082
180,1436547780780,40.9961953207376
181,1436547781525,35.9297985179243
182,1436547782273,62.6505110180436
183,1436547782999,33.2063234424509
184,1436547783743,38.0893228920933
185,1436547784492,36.2180517072561
186,1436547785228,40.0899956854607
187,1436547785986,37.3597778336675
188,1436547786744,38.3395061099955
189,1436547787445,47.4662524616115
190,1436547788199,39.2136084048198
191,1436547789066,39.1790089065144
192,1436547789798,56.2881274894267
193,1436547790524,40.0982919397791
194,1436547791250,41.6567553951838
195,1436547791935,54.9302526362903
196,1436547792674,50.03847973327
197,1436547793478,36.3878314731846
198,1436547794219,40.3739030511225
199,1436547794963,47.5505049764682
200,1436547795674,50.6331089325583
201,1436547796400,50.691789107638
202,1436547797072,38.682511871283
203,1436547797818,52.2505134713783
204,1436547798576,48.9279617356045
205,1436547799319,36.7878140495776
206,1436547800044,42.5320311157105
207,1436547800709,53.0087362952566
208,1436547801437,55.3068600061883
209,1436547802185,58.070092762853
210,1436547802927,38.2844930138871
211,1436547803665,39.9763311644929
212,1436547804404,38.007511830995
213,1436547805147,34.5881524602834
214,1436547805898,40.8123467299539
215,1436547806646,54.9973313348444
216,1436547807376,49.9071239818884
217,1436547808051,42.9556323974151
218,1436547808799,54.6114129718286
219,1436547809525,30.4786435094364
220,1436547810242,38.8151020828057
221,1436547810997,34.2335271714196
222,1436547811754,41.2493270042384
223,1436547812504,40.1667826141297
224,1436547813234,30.7291078596307
225,1436547813995,43.8504320510467
226,1436547814653,33.5432301015943
227,1436547815373,30.3999650429116
228,1436547816223,36.4382977446451
229,1436547816963,44.7727816316555
230,1436547817683,28.4283673259736
231,1436547818340,47.0389265739129
232,1436547819106,26.5620990557236
233,1436547819838,42.0876931454395
234,1436547820528,33.0194097387225
235,1436547821264,62.1179408880791
236,1436547821986,49.9458346352819
237,1436547822678,55.46465899768
238,1436547823425,42.153836391819
239,1436547824165,43.3154535765056
240,1436547824906,51.3184479357569
241,1436547825649,64.4531336336941
242,1436547826394,63.6962069237067
243,1436547827136,62.1567883677212
244,1436547827882,62.7374606704247
245,1436547828546,58.2735978010007
246,1436547829382,52.8317448260753
247,1436547830098,40.707078055283
248,1436547830835,42.9071509423669
249,1436547831530,57.3193861004833
250,1436547832209,47.7653291616121
251,1436547832903,51.7726928487727
252,1436547833569,51.3405476991403
253,1436547834306,26.2275027370572
254,1436547835043,26.1157443615309
255,1436547835773,31.3392014898569
256,1436547836448,37.6017913130819
257,1436547837122,44.122229084819
258,1436547837849,35.6361621889761
259,1436547838530,35.9233954644054
260,1436547839187,56.4927707366546
261,1436547839928,48.8362780576124
262,1436547840656,36.4203273741482
263,1436547841392,50.8302450901473
264,1436547842151,28.2375453321756
265,1436547842870,53.2939672199422
266,1436547843608,31.9920867292847
267,1436547844384,29.7965508357811
268,1436547845076,23.6872139433629
269,1436547845757,50.4962366610325
270,1436547846497,26.7254270158822
271,1436547847276,28.7199722362449
272,1436547847994,33.7693048532645
273,1436547848679,49.1754050814294
274,1436547849364,52.7004250714673
275,1436547850113,39.8921102361664
276,1436547850866,40.5843167105089
277,1436547851742,38.7166085031841
278,1436547852427,49.1767704482215
279,1436547853157,34.6397147918755
280,1436547853892,34.7418340771474
281,1436547854688,52.4162302423545
282,1436547855434,50.5237822997113
283,1436547856134,60.2983146599747
284,1436547856784,54.1005043085869
285,1436547857465,43.486283609768
286,1436547858197,37.3604723980467
287,1436547858918,55.6790480878992
288,1436547859596,42.0138972671661
289,1436547860358,62.7689654028289
290,1436547861109,37.7726009391573
291,1436547861846,43.4613514191588
292,1436547862562,52.1091467612459
293,1436547863233,35.5743270091383
294,1436547863906,60.8847210693241
295,1436547864678,57.7798452846993
296,1436547865411,48.4383881057299
297,1436547866151,34.0754532588343
298,1436547866897,55.5101574651292
299,1436547867615,46.9822579786027
300,1436547868347,63.7347835456906
301,1436547869053,48.2294418241632
302,1436547869865,47.866354996244
303,1436547870599,45.2273558195096
304,1436547871352,49.0970508752608
305,1436547872154,34.6044865984151
306,1436547872881,32.9513704525954
307,1436547873619,49.6725543376627
308,1436547874359,37.9404930507282
309,1436547875095,42.8516624008962
310,1436547875858,35.6401855859718
311,1436547876671,42.4888657820864
312,1436547877376,43.258914165571
313,1436547878102,31.2717708054987
314,1436547878835,63.4101207759702
315,1436547879489,53.0421997135462
316,1436547880919,43.0194370838933
317,1436547881591,45.050405148125
318,1436547882268,44.9490830161939
319,1436547882885,37.3737887257714
320,1436547883579,29.9350083480003
321,1436547884318,36.2010758623886
322,1436547885045,36.380661844684
323,1436547885796,33.6148368072703
324,1436547886539,28.0332549134713
325,1436547887287,59.0685290872616
326,1436547888026,64.228044920066
327,1436547888727,58.2057669180433
328,1436547890834,60.198985861648
329,1436547891578,60.2228663808115
330,1436547892239,67.2365242566199
331,1436547892862,41.0376240005546
332,1436547893532,34.5263928581243
333,1436547894251,41.1202107349372
334,1436547894965,54.8507744763585
335,1436547895717,34.6821367432761
336,1436547896467,34.9924609361119
337,1436547897183,33.1114838022664
338,1436547897858,30.5039777774629
339,1436547898606,46.2700388808533
340,1436547899324,32.3492007325567
341,1436547899997,42.3493184495251
342,1436547900654,32.9342393383036
343,1436547901438,40.4996875286982
344,1436547902160,48.9979304834881
345,1436547902846,38.9188354178142
346,1436547903581,48.1271383417333
347,1436547904300,64.4532971719074
348,1436547905965,66.3527017353443
349,1436547906743,47.6315629105613
350,1436547907481,42.3133874289317
351,1436547908226,44.6074312864862
352,1436547909018,63.0318964166556
353,1436547909748,67.2600830038598
354,1436547910404,56.5086384008339
355,1436547911145,60.5715141390841
356,1436547911834,49.5660316586985
357,1436547912578,47.1665951338375
358,1436547913239,34.754688189313
359,1436547914796,47.1485992709326
360,1436547915523,33.6990377879012
361,1436547916237,62.1138776598395
362,1436547916981,49.7439604008785
363,1436547917598,42.7418614229969
364,1436547918276,43.0751982033033
365,1436547919095,43.7816034870743
366,1436547919808,37.6868607721734
367,1436547920500,29.925962508549
368,1436547921164,56.1609509272677
369,1436547921949,48.8911611794923
370,1436547922654,53.8625746848661
371,1436547923420,54.5257792994036
372,1436547924193,66.1975246743779
373,1436547924920,64.6467400366926
374,1436547925673,55.2980832829314
375,1436547926402,32.6665205125377
376,1436547927144,41.2708442844073
377,1436547927888,38.4753484626905
378,1436547928616,62.6583522226422
379,1436547929373,51.7302885489816
380,1436547930118,62.862518942233
381,1436547930826,42.0509431843006
382,1436547931563,54.285625274607
383,1436547932278,38.1922036179233
384,1436547933020,46.0558775550966
385,1436547933685,45.7220122416038
386,1436547934389,52.251597917561
387,1436547935133,59.4248294656273
388,1436547935878,57.4273164690576
389,1436547936613,58.693907651411
390,1436547937406,42.8347714196417
391,1436547938133,38.6807664896551
392,1436547938881,40.7955143601552
393,1436547939613,55.2818467134674
394,1436547940326,53.7279936826564
395,1436547941060,41.3779610705744
396,1436547941698,45.1330231677355
397,1436547942392,60.3559279547783
398,1436547943131,41.1181928345395
399,1436547943881,47.1209378957009
400,1436547944591,53.0776209266291
401,1436547945327,63.3645963702332
402,1436547945991,60.2893692127943
403,1436547946723,36.6681645726647
404,1436547947464,46.1678333444564
405,1436547948184,53.2322207153556
406,1436547948909,55.0210124516057
407,1436547949645,62.9910717803592
408,1436547950365,54.0094080761062
409,1436547951087,44.5858281643515
410,1436547951804,42.0274332756892
411,1436547952468,63.7071655663568
412,1436547953143,52.0536339362805
413,1436547953864,50.2765943522809
414,1436547954613,43.3622477464014
415,1436547955311,32.7516953353985
416,1436547955974,40.6837697208415
417,1436547956718,35.9616792408658
418,1436547957440,46.8879066668619
419,1436547958135,44.8851416988792
420,1436547958870,33.4430192405798
421,1436547959601,37.5613274202815
422,1436547960347,39.0871926854756
423,1436547961040,57.4816155650231
424,1436547961776,42.454377706425
425,1436547962536,39.492233381064
426,1436547963268,46.3627660112225
427,1436547964044,45.5279845632713
428,1436547964777,38.8910084715902
429,1436547965507,41.8924488886495
430,1436547966237,53.0488921360781
431,1436547966954,58.890782260556
432,1436547967694,65.903573614608
433,1436547968504,57.9614849094565
434,1436547969240,36.0069527769485
435,1436547969990,57.4511874512612
436,1436547970720,50.4363898644023
437,1436547971444,53.4021289609949
438,1436547972074,61.500662097993
439,1436547972780,30.2033325355978
440,1436547973510,66.5913912842965
441,1436547974225,54.6101759035295
442,1436547974934,32.1669413760825
443,1436547975599,33.7675891216561
444,1436547976333,50.1478970103339
445,1436547977073,57.707624236589
446,1436547977822,53.0702888823678
447,1436547978500,55.4422777511004
448,1436547979226,37.4318026057499
449,1436547979951,35.203914931524
450,1436547980675,28.9426813205875
451,1436547981367,55.3741725516967
452,1436547982003,47.630447701013
453,1436547982684,39.357648652486
454,1436547983425,35.2321661438597
455,1436547984145,33.9751031155686
456,1436547984866,56.7317523785332
457,1436547985615,52.3381102005641
458,1436547986292,52.0875802929499
459,1436547987011,43.5348452356343
460,1436547987744,33.587985118621
461,1436547988488,28.2107297015136
462,1436547989204,39.4267417783624
463,1436547989917,63.2578480330619
464,1436547990638,53.1159935408372
465,1436547991371,54.0816529578297
466,1436547992070,51.2867536084281
467,1436547992763,54.3182679894535
468,1436547993503,64.1617609712673
469,1436547994215,63.331095179387
470,1436547994926,49.2427596419272
471,1436547995545,66.5637063469986
472,1436547996216,51.0856036070364
473,1436547996945,48.7539111245353
474,1436547997703,42.1593707104594
475,1436547998421,55.3800940895523
476,1436547999140,51.0723855936943
477,1436547999875,48.0813766281567
478,1436548000601,41.7083595273457
479,1436548001341,23.7413387872493
480,1436548002001,48.389419582561
481,1436548002698,54.8591051912701
482,1436548003458,43.9528335009705
483,1436548004173,26.2561896506272
484,1436548004899,22.7159947300079
485,1436548005576,64.7774412590273
486,1436548006309,53.535176588835
487,1436548007027,51.1985773813999
488,1436548007743,38.0519170956028
489,1436548008485,45.7522510070083
490,1436548009225,38.1969199106345
491,1436548009943,25.3007724054938
492,1436548010688,41.2253689277704
493,1436548011410,68.2219505129171
494,1436548012107,40.4962447925087
495,1436548012712,49.867145186681
496,1436548013404,62.9438723139226
497,1436548014145,74.4533652256096
498,1436548014885,52.1357974369198
499,1436548015631,58.8650187137254
500,1436548016318,29.8553588879172
501,1436548016988,37.9653869568678
502,1436548017739,40.7764068084272
503,1436548018419,36.7001180652388
504,1436548019118,52.971177531551
505,1436548019917,40.9984860578149
506,1436548020655,44.998252732472
507,1436548021391,53.6234427053194
508,1436548022126,29.9298977887588
509,1436548022803,40.7882347396004
510,1436548023458,40.2925102904645
511,1436548024212,51.1129844160133
512,1436548024987,54.6039437275942
513,1436548025711,51.4845427009557
514,1436548026444,31.4904228078308
515,1436548027175,42.2237873692345
516,1436548027922,30.4068539713986
517,1436548028609,37.2667048167699
518,1436548029312,26.0081612212771
519,1436548030082,46.096289082185
520,1436548030761,37.3917914807892
521,1436548031501,32.0939397319968
522,1436548032221,26.4499996105241
523,1436548032939,59.5269694461507
524,1436548033589,26.400139374587
525,1436548034315,38.3724253115462
526,1436548035085,48.6916892188015
527,1436548035822,41.738789718477
528,1436548036541,36.9198014522949
529,1436548037258,41.2843014023215
530,1436548037976,39.0389094909717
531,1436548038546,41.9973795476593
532,1436548039208,22.1712804533283
533,1436548039908,49.155840875545
534,1436548040576,66.7937883541864
535,1436548041314,45.0801577053769
536,1436548042059,44.4353635102934
537,1436548042776,50.2412625071691
538,1436548043492,31.9788416449809
539,1436548044136,30.4518548590101
540,1436548044947,36.908922750508
541,1436548045668,34.9844045787614
542,1436548046381,48.2393138314372
543,1436548047116,63.8351908159825
544,1436548047848,28.2004180885247
545,1436548048583,69.7155690381384
546,1436548049325,61.9015986665655
547,1436548050055,55.438960440284
548,1436548050809,44.6136698660496
549,1436548051558,62.0111845048356
550,1436548052307,56.4388004511158
551,1436548053023,48.4776041866518
552,1436548053700,36.9996763316205
553,1436548054378,60.7288816995314
554,1436548055142,58.9724274680274
555,1436548055865,31.754303637242
556,1436548056550,58.1489676248471
557,1436548057282,68.7806005196004
558,1436548058021,63.7469717756933
559,1436548058722,51.1347726796898
560,1436548059424,57.5571870632268
561,1436548060180,36.2578070945772
562,1436548060906,58.0688433340089
563,1436548061643,60.4031235576571
564,1436548062342,52.5891895604478
565,1436548063070,38.576439339054
566,1436548063779,56.8343256796824
567,1436548064473,38.8902364429701
568,1436548065218,45.4565645078553
569,1436548065987,41.9159915664523
570,1436548066718,40.6096930857184
571,1436548067437,34.4114759516731
572,1436548068165,32.19487557506
573,1436548068930,36.7995352376956
574,1436548069664,33.8836843999209
575,1436548070400,42.2829513153105
