id,attr_time,attr_db
1,1436547648696,34.6171135784446
2,1436547649393,30.8347683599232
3,1436547650041,31.1091649847248
4,1436547650780,32.9987160207069
5,1436547651485,31.2365470191605
6,1436547653054,32.6551265293415
7,1436547653795,34.5075550633947
8,1436547654525,32.041799679478
9,1436547655231,32.1634706203116
10,1436547655912,36.7458584120888
11,1436547656651,44.3727451119477
12,1436547658244,35.0349448565503
13,1436547658906,51.8215044148933
14,1436547659642,46.4234227771309
15,1436547660342,49.6880903455502
16,1436547661035,48.1335120309009
17,1436547661763,55.1773432655819
18,1436547662535,45.4285083818255
19,1436547663268,47.6336454992851
20,1436547663993,42.6892605384855
21,1436547664782,31.1789393608671
22,1436547665448,38.2438309335852
23,1436547666193,46.1853302845825
24,1436547666917,35.6813169008986
25,1436547667634,36.6143455395472
26,1436547668365,36.6874668916509
27,1436547669173,39.882261284794
28,1436547669908,39.273981084322
29,1436547670592,67.1581830741804
30,1436547671326,45.8861040913555
31,1436547672068,64.4936458024883
32,1436547672810,60.350996874454
33,1436547673566,38.163020654777
34,1436547674253,42.016019621256
35,1436547675011,38.5357582714369
36,1436547675782,32.1596159925385
37,1436547676456,33.0229773000534
38,1436547677179,34.1779903762866
39,1436547677917,39.3820309991923
40,1436547678683,35.4672970528538
41,1436547679437,37.2238588161272
42,1436547680145,36.4031584197948
43,1436547680799,34.2223314063205
44,1436547681520,54.082900379033
45,1436547682251,41.4389624036965
46,1436547682977,36.4387666759585
47,1436547683714,40.825350640609
48,1436547684426,31.0751009486233
49,1436547685098,36.5065496702662
50,1436547685817,50.9368826270861
51,1436547686537,44.8595745822263
52,1436547687256,41.9613547264016
53,1436547687989,41.4222499234452
54,1436547688791,44.8809560227043
55,1436547689530,44.351344717773
56,1436547690324,38.4775695914521
57,1436547691004,39.0336530940533
58,1436547691665,43.4461038185788
59,1436547692405,50.251135450867
60,1436547693133,56.8855882162052
61,1436547693918,54.2429905573555
62,1436547694684,46.7448015389585
63,1436547695355,59.0938410617062
64,1436547696029,49.1116564470136
65,1436547696764,37.4906547153705
66,1436547697506,47.2105586245416
67,1436547698237,55.9981935606614
68,1436547699019,36.1008207407854
69,1436547699760,36.6670650300395
70,1436547700504,34.7486204334945
71,1436547701212,52.1884049442886
72,1436547701900,41.9545851088006
73,1436547702650,32.9910944794498
74,1436547703373,38.4619141713014
75,1436547704123,63.7689019967614
76,1436547704777,38.4256164465316
77,1436547705569,74.0324781978648
78,1436547706314,52.862245307313
79,1436547707037,45.6439688901877
80,1436547707750,58.4264781565431
81,1436547708536,60.3502208261169
82,1436547709262,46.6423316368874
83,1436547710032,44.7961289433628
84,1436547710759,37.4822149984831
85,1436547711392,37.7247576495056
86,1436547712118,60.8193199017139
87,1436547712861,62.1082398352881
88,1436547713624,68.1626899353232
89,1436547714329,53.5837716157414
90,1436547714991,46.5626816783762
91,1436547715740,56.5508397405455
92,1436547716407,34.9710559901374
93,1436547717128,54.1107586736958
94,1436547717863,45.3518756290977
95,1436547718678,33.1348433408154
96,1436547719441,38.6170053653198
97,1436547720180,32.634204838214
98,1436547720881,34.5958658374971
99,1436547721517,54.883876764727
100,1436547722239,57.8555028744737
101,1436547723044,38.6158628468751
102,1436547723775,41.4198076202905
103,1436547724533,35.7795506809358
104,1436547725346,35.2187234625468
105,1436547726094,37.8048132818305
106,1436547726769,57.7958817757195
107,1436547727483,30.9986595580075
108,1436547728202,41.4271149381986
109,1436547728939,32.0666671867268
110,1436547729684,53.4815223692714
111,1436547730370,59.642582836228
112,1436547731030,30.6756293135763
113,1436547731761,32.27615946271
114,1436547732425,48.5909201954555
115,1436547733152,47.6869980930972
116,1436547733886,58.490125818946
117,1436547734632,39.6291675221565
118,1436547735364,31.9103508583196
119,1436547736095,45.0871855870661
120,1436547736832,33.0848705355002
121,1436547737624,56.9812669842305
122,1436547738313,48.3287236751102
123,1436547739071,54.2959626105978
124,1436547739825,34.7307864267185
125,1436547740569,34.8129567226438
126,1436547741318,34.7958564619656
127,1436547742012,55.399224006988
128,1436547742693,33.7713366494051
129,1436547743441,37.2650104371697
130,1436547744157,40.1207251018113
131,1436547744802,42.2576901209222
132,1436547745536,56.8438218348067
133,1436547746255,34.6795062279045
134,1436547746993,36.3498255078139
135,1436547747759,37.8165307150024
136,1436547748501,34.66208113904
137,1436547749228,48.5479183164591
138,1436547749990,42.408488487353
139,1436547750725,44.1879057256072
140,1436547751459,39.9194060454927
141,1436547752146,39.4635240017427
142,1436547752790,38.3861683791334
143,1436547753590,56.364818609808
144,1436547754306,43.4683230832097
145,1436547755046,44.4488431491487
146,1436547755774,44.9915623505011
147,1436547756508,45.6965110908373
148,1436547757186,51.6199185341305
149,1436547757854,44.801170521194
150,1436547758592,37.6171796423221
151,1436547759311,62.6711005893835
152,1436547760006,57.5408391953291
153,1436547760755,40.044663763008
154,1436547761470,47.2325226053743
155,1436547762162,59.3678605559576
156,1436547762853,39.7833712317316
157,1436547763642,62.2282515207202
158,1436547764371,40.6232602962985
159,1436547765149,40.6252092089951
160,1436547765854,61.2952886774842
161,1436547766612,36.3999379301335
162,1436547767339,39.5185983689421
163,1436547768080,50.4276384085361
164,1436547768861,42.6605063885528
165,1436547769598,51.5538027906115
166,1436547770334,41.4565111723579
167,1436547771077,35.0519767242397
168,1436547771809,53.3668989534305
169,1436547772556,59.2962909500627
170,1436547773316,45.269843228263
171,1436547774065,54.2103858043101
172,1436547774802,48.9458640933019
173,1436547775554,60.0683053543279
174,1436547776284,45.5867181151711
175,1436547776966,44.3255756012885
176,1436547777633,41.5392669775972
177,1436547778378,52.9713799072441
178,1436547779049,42.6795673449738
179,1436547779762,48.8165768428936
180,1436547780484,39.2690453058521
181,1436547781218,36.1088285818611
182,1436547781949,55.8550775992993
183,1436547782698,36.9335207489804
184,1436547783412,53.7818599381578
185,1436547784149,47.8844637612327
186,1436547784890,46.4943340505604
187,1436547785673,35.1545290185562
188,1436547786436,43.2807823925887
189,1436547787094,57.2285842834087
190,1436547787809,57.7984748227637
191,1436547788565,41.0709902631755
192,1436547789289,51.2800990389088
193,1436547790033,43.7359477381436
194,1436547790774,42.8223817039114
195,1436547791506,50.2203581725626
196,1436547792244,56.1705243986392
197,1436547792986,37.557736682555
198,1436547793665,36.3691350994113
199,1436547794409,36.5964225621912
200,1436547795127,57.3137956201662
201,1436547795866,53.1925393540814
202,1436547796576,37.9848020305831
203,1436547797211,54.1044280303202
204,1436547797903,52.5370184675346
205,1436547798620,56.6978202913095
206,1436547799326,38.294822202975
207,1436547800064,41.8390175653877
208,1436547800805,38.8105588838891
209,1436547801545,54.5903940664912
210,1436547802285,52.1660209114741
211,1436547803019,59.2314217596426
212,1436547803659,41.7414782720675
213,1436547804366,42.2773802590926
214,1436547805100,59.2284600209813
215,1436547805848,45.2544125856008
216,1436547806599,37.6873267260881
217,1436547807332,42.1763792179307
218,1436547808046,44.8561396281585
219,1436547808804,34.8213241513604
220,1436547809537,39.6880570478454
221,1436547810275,39.0238007197109
222,1436547811067,37.6856230685549
223,1436547811854,46.9305914738975
224,1436547812582,52.1526516295495
225,1436547813299,61.6547257975176
226,1436547814084,37.0957098294891
227,1436547814827,32.4304110733181
228,1436547815575,61.3429992444654
229,1436547816294,33.9727163690486
230,1436547817054,31.3949482994679
231,1436547817788,54.6063262506019
232,1436547818616,32.148754490238
233,1436547819339,30.1712248020966
234,1436547819976,39.8201763897859
235,1436547820686,39.9107816082602
236,1436547821413,57.5171223210451
237,1436547822142,54.9557788642936
238,1436547822880,43.0493615419003
239,1436547823598,33.6514148178921
240,1436547824212,33.1124131009757
241,1436547824929,39.523245376979
242,1436547825660,57.0342397493319
243,1436547826420,59.7353622614381
244,1436547827152,56.5578224747566
245,1436547827887,63.6091886804543
246,1436547828707,49.4940147526298
247,1436547829404,44.6341790767212
248,1436547830171,32.2330291355894
249,1436547830895,46.506321886693
250,1436547831629,28.4510634041322
251,1436547832364,50.0731580163917
252,1436547833099,52.2404052054433
253,1436547833806,28.2391776144965
254,1436547834447,27.2390389246147
255,1436547835190,32.3134959933424
256,1436547835922,46.5089102522727
257,1436547836647,48.2331300035657
258,1436547837341,42.1801252395251
259,1436547837974,66.4866425909994
260,1436547838771,60.2257751511909
261,1436547839499,58.4146726106215
262,1436547840230,37.9608987743099
263,1436547840947,47.272369287634
264,1436547842894,49.9969568109404
265,1436547843711,28.593965185905
266,1436547844439,41.1500376989826
267,1436547845170,44.1799786123592
268,1436547845904,30.6757916210499
269,1436547846633,62.1237068981901
270,1436547847366,44.3588867997699
271,1436547848034,54.9570187067453
272,1436547848754,38.22267047274
273,1436547849539,25.5547609104889
274,1436547850273,52.7377026637712
275,1436547851004,53.9422493234023
276,1436547851733,60.6836650364054
277,1436547852448,54.8911355246948
278,1436547853118,54.5289198135956
279,1436547854568,60.5828243797999
280,1436547855289,66.3884975124453
281,1436547855996,59.261521367025
282,1436547856730,65.793100954489
283,1436547857488,63.4346860093545
284,1436547858196,42.6703100461775
285,1436547858785,49.0294584487913
286,1436547859457,63.8061142320257
287,1436547860208,59.614525267906
288,1436547860956,66.3549027817677
289,1436547861691,66.8089045994052
290,1436547862427,63.8637084056135
291,1436547863172,67.6075181670438
292,1436547863912,35.9252999232208
293,1436547864639,60.6508001906439
294,1436547865320,66.7197976592723
295,1436547866047,45.8569304470059
296,1436547866785,29.1355836605424
297,1436547867537,64.5785013006026
298,1436547869604,51.8434700421988
299,1436547870340,54.3734330616195
300,1436547871072,67.1347855205819
301,1436547871814,30.3047784879302
302,1436547872562,38.0827184220819
303,1436547873283,32.2384770110511
304,1436547874002,44.3546450553284
305,1436547874721,36.4723840119879
306,1436547875357,34.3778716932286
307,1436547876074,57.4988609417074
308,1436547876754,55.1854016104824
309,1436547878437,54.038999000744
310,1436547879112,41.3005391709184
311,1436547879804,33.9922162998393
312,1436547880484,56.0228219369692
313,1436547881223,44.1687232341137
314,1436547881964,41.9230176210966
315,1436547882700,42.1792398605642
316,1436547883424,29.5887570648012
317,1436547884164,39.7993091908256
318,1436547884914,35.4914417752215
319,1436547885608,31.458078807044
320,1436547886335,32.2323452725725
321,1436547887067,65.4845311735077
322,1436547887798,68.0863886525779
323,1436547888555,48.400762177412
324,1436547889299,43.8663019921951
325,1436547890047,34.559659942802
326,1436547890779,67.0233636703589
327,1436547891524,60.6330652599087
328,1436547892256,46.4642323353348
329,1436547893029,35.0636134840859
330,1436547893747,48.2207248399639
331,1436547894592,42.393336889188
332,1436547895271,39.3213054870894
333,1436547895946,43.0961725613505
334,1436547896695,37.3032252809759
335,1436547897459,35.3652238348759
336,1436547898192,43.9310928434778
337,1436547898857,36.0801466798976
338,1436547899506,44.5726355992991
339,1436547900230,35.3737424012434
340,1436547900950,44.2734086540228
341,1436547901676,57.0685225336386
342,1436547902431,42.9183855417597
343,1436547903155,41.5360347276233
344,1436547903909,69.4544741448121
345,1436547904606,43.0801039173114
346,1436547905336,61.6219926291765
347,1436547906058,60.0965012199007
348,1436547906777,35.8522106084114
349,1436547907563,48.6463942074457
350,1436547908269,35.3640248637591
351,1436547908984,64.2469152949675
352,1436547909722,34.1002206506615
353,1436547910438,61.9091034163993
354,1436547911186,49.2343021547066
355,1436547911917,43.5848834290575
356,1436547912652,38.3280527921551
357,1436547913407,35.5822988776016
358,1436547914159,62.0636085580603
359,1436547914903,47.971327714305
360,1436547915635,64.5473466403307
361,1436547916345,59.2727973683947
362,1436547917031,53.7041090662692
363,1436547917764,45.1342758072318
364,1436547918526,37.2562741354445
365,1436547919269,41.7068949828039
366,1436547920000,28.9632287009065
367,1436547920774,55.8514528621956
368,1436547921450,46.5164324317082
369,1436547922195,45.2589420270154
370,1436547922773,41.4977810973859
371,1436547923429,55.2274093416645
372,1436547924161,71.8078917869853
373,1436547924872,60.3049731452658
374,1436547925593,31.431459130698
375,1436547926282,28.7243985320727
376,1436547926952,34.3760103138807
377,1436547927722,31.1584884792035
378,1436547928463,39.9157528703563
379,1436547929185,66.6613594558605
380,1436547929878,64.4984415403392
381,1436547930615,67.215036377075
382,1436547931406,70.0923188544802
383,1436547932138,66.2114098758825
384,1436547932857,55.1283461180421
385,1436547933593,72.7604975662932
386,1436547934307,53.1623602866318
387,1436547935033,63.2861588794979
388,1436547935770,71.0159587941803
389,1436547936544,45.9232716771732
390,1436547937279,59.8522880055292
391,1436547938014,53.6076082088715
392,1436547938745,67.9461656656126
393,1436547939373,72.1022266369709
394,1436547940056,61.9558106298768
395,1436547940797,61.1781801473573
396,1436547941534,58.7324112671144
397,1436547942263,37.5088146443986
398,1436547943003,56.2763299917541
399,1436547943769,59.9034748545353
400,1436547944513,45.8284465457788
401,1436547945249,60.8853440203296
402,1436547945972,65.486838263835
403,1436547946687,34.7589510756467
404,1436547947352,52.7165832510695
405,1436547948087,60.05725587071
406,1436547948806,34.8005861998265
407,1436547949467,71.1229960864529
408,1436547950185,55.6430035888922
409,1436547950925,68.171755318963
410,1436547951726,45.6852398794061
411,1436547952410,63.6915723948167
412,1436547953152,33.9364784417726
413,1436547953952,52.1429651813039
414,1436547954679,29.9761655024032
415,1436547955427,37.4261085284549
416,1436547956162,55.7189058864761
417,1436547956885,46.3011241483459
418,1436547957534,53.102009612041
419,1436547958252,36.6424793110326
420,1436547959035,60.9526348844136
421,1436547959695,37.65841824688
422,1436547960462,57.5020164810413
423,1436547961181,57.3519417314154
424,1436547961879,33.3673038324953
425,1436547962631,33.1242355187747
426,1436547963425,36.5845881176924
427,1436547964155,42.053243965024
428,1436547964889,58.9731563409018
429,1436547965622,59.7631276140488
430,1436547966342,54.7558928073252
431,1436547967070,55.2836841299916
432,1436547967722,41.4388734781823
433,1436547968544,67.6962987189647
434,1436547969271,54.4108834211916
435,1436547969991,62.4083816002645
436,1436547970720,66.865717267987
437,1436547971401,58.261142218548
438,1436547972132,32.3100793440168
439,1436547972863,59.8700512422078
440,1436547973614,62.5830144977294
441,1436547974362,40.2874674544407
442,1436547975099,34.0949111563281
443,1436547975839,56.6860685802884
444,1436547976577,67.0901326486299
445,1436547977296,53.3879157030633
446,1436547977953,65.8058363423634
447,1436547978670,37.7521941989644
448,1436547979333,27.14489081319
449,1436547979915,31.0156897071575
450,1436547980613,47.5654924517253
451,1436547981320,44.2169374331888
452,1436547982002,44.5993967590472
453,1436547982724,31.6085303112281
454,1436547983502,35.4722534045813
455,1436547984267,58.545428585812
456,1436547984989,73.1243772810619
457,1436547985722,47.4179821984914
458,1436547986457,41.1259283447319
459,1436547987178,27.498695251928
460,1436547987920,42.4092038064727
461,1436547988707,42.530492004257
462,1436547989444,67.2587307204064
463,1436547990172,62.2635238682967
464,1436547990976,61.175992300531
465,1436547991685,61.0007079652832
466,1436547992342,45.3319390115731
467,1436547993088,60.4147259397416
468,1436547993805,61.7433677723296
469,1436547994550,41.3235080984046
470,1436547995287,60.7828836832388
471,1436547996018,64.6154701941572
472,1436547996769,59.1959499230131
473,1436547997489,58.9794502387855
474,1436547998178,47.465282636494
475,1436547998856,60.4915520824735
476,1436547999595,39.7586413350609
477,1436548000266,40.1076047204439
478,1436548000998,24.9469064151655
479,1436548001754,25.5345064806439
480,1436548002421,51.6660542946933
481,1436548003157,36.5111417206899
482,1436548003853,32.98833940032
483,1436548004594,26.3748044837439
484,1436548005330,57.6586291489474
485,1436548006075,49.2077425353155
486,1436548006800,60.3020465316416
487,1436548007533,67.6576439001555
488,1436548008239,58.3326078325357
489,1436548008908,55.7895671290877
490,1436548009645,31.0539831651924
491,1436548010380,56.1899788980562
492,1436548011087,61.2806269399001
493,1436548011852,57.3115107105013
494,1436548012606,44.4746825975411
495,1436548013337,69.8748992493402
496,1436548014059,63.1186768184047
497,1436548014805,38.8658724142437
498,1436548015525,44.1807779400781
499,1436548016244,29.2311105729554
500,1436548016987,29.9033751985413
501,1436548017678,32.0040023321646
502,1436548018356,68.5327392148138
503,1436548019087,45.3387991643184
504,1436548019823,42.9738625283302
505,1436548020436,44.8012779001866
506,1436548021118,43.9500937355126
507,1436548021815,39.7982540325356
508,1436548022541,43.4026027277498
509,1436548023282,49.1494442639432
510,1436548024042,59.1913081075053
511,1436548024782,26.637317632543
512,1436548025514,55.5978114672998
513,1436548026234,48.8107865990776
514,1436548026977,38.3675002214484
515,1436548027716,34.4283265244539
516,1436548028418,45.5445660305821
517,1436548029118,47.4996341746893
518,1436548029866,35.1498972877343
519,1436548030612,40.6645871941483
520,1436548031334,45.8518220508256
521,1436548032047,53.513416008512
522,1436548032740,55.4927610400627
523,1436548033453,58.4676448988602
524,1436548034196,51.5179325075918
525,1436548034922,27.4110402443599
526,1436548035728,34.0548542546359
527,1436548036414,62.8503617424615
528,1436548037146,54.728408600965
529,1436548037869,57.2400068014717
530,1436548038585,23.6480872352917
531,1436548039296,27.0285960877669
532,1436548040012,48.9704751739685
533,1436548040712,47.7247422623122
534,1436548041367,54.5764695934835
535,1436548042078,37.6363273426263
536,1436548042751,36.1976989492834
537,1436548043403,59.5670230821485
538,1436548044156,52.3250328487207
539,1436548044919,25.625701539902
540,1436548045638,37.6703341826276
541,1436548047152,32.7335153783798
542,1436548047840,36.0385979820126
543,1436548048570,42.105448223849
544,1436548049249,57.7112794561059
545,1436548049922,38.5053739533124
546,1436548050669,58.2713175542293
547,1436548051410,59.8710909538319
548,1436548052158,54.3096592635916
549,1436548052853,44.2948679987078
550,1436548053567,55.3357692983718
551,1436548054308,56.4730725118084
552,1436548055065,56.6646265994533
553,1436548055786,33.1293090217918
554,1436548056499,64.2426368834879
555,1436548057230,56.3005443146484
556,1436548057960,58.6438634281436
557,1436548058686,64.4976147847037
558,1436548059384,34.9155158750864
559,1436548060052,66.9046190610242
560,1436548060765,62.6985910388373
561,1436548062960,40.4594526963209
562,1436548063714,63.7124261217827
563,1436548064446,56.4217757238197
564,1436548065182,46.0528591514778
565,1436548065923,61.4119663009527
566,1436548066656,54.0511989739929
567,1436548067392,45.5148958079011
568,1436548068157,37.8856449294584
569,1436548068908,41.1066716568045
570,1436548069738,62.8705817447396
571,1436548070334,49.0574235437474
572,1436548071053,40.4969806155217
573,1436548071782,43.4601264624724
574,1436548072536,27.6282659655842
575,1436548073273,35.9513871653589
