id,attr_time,attr_x,attr_y,attr_z
1,1436285439614,-4.316,-18.455,-11.933
2,1436285439633,-4.316,-18.455,-11.933
3,1436285439668,-4.316,-18.455,-11.933
4,1436285439672,-4.316,-18.455,-11.933
5,1436285439696,-4.316,-18.455,-11.933
6,1436285439714,-4.316,-18.455,-11.933
7,1436285439732,-4.316,-18.455,-11.933
8,1436285439752,-4.316,-18.455,-11.933
9,1436285439772,-4.316,-18.455,-11.933
10,1436285439792,-3.993,-18.455,-11.933
11,1436285439812,-3.993,-18.455,-11.933
12,1436285439832,-3.993,-18.455,-11.933
13,1436285439852,-3.993,-18.455,-11.933
14,1436285439872,-3.993,-18.455,-11.933
15,1436285439892,-3.993,-18.455,-11.933
16,1436285439912,-3.993,-18.455,-11.933
17,1436285439932,-3.993,-18.455,-11.933
18,1436285439953,-3.993,-18.455,-11.933
19,1436285439973,-3.993,-18.455,-11.933
20,1436285439993,-3.993,-18.455,-11.933
21,1436285440015,-3.993,-18.455,-11.933
22,1436285440036,-3.691,-18.455,-12.294
23,1436285440056,-3.691,-18.455,-12.294
24,1436285440077,-3.691,-18.455,-12.294
25,1436285440097,-3.691,-18.455,-12.294
26,1436285440114,-3.691,-18.763,-12.294
27,1436285440133,-3.691,-18.763,-12.294
28,1436285440154,-3.691,-18.763,-12.294
29,1436285440175,-3.691,-18.763,-12.294
30,1436285440196,-3.39,-18.763,-12.294
31,1436285440216,-3.39,-18.763,-12.294
32,1436285440234,-3.39,-18.763,-12.294
33,1436285440360,-3.39,-18.763,-12.294
34,1436285440361,-3.39,-18.763,-12.294
35,1436285440362,-3.39,-18.763,-12.294
36,1436285440363,-3.39,-18.763,-12.294
37,1436285440364,-3.39,-18.763,-12.294
38,1436285440365,-3.39,-18.763,-12.294
39,1436285440375,-3.39,-18.763,-12.294
40,1436285440392,-3.39,-18.763,-12.294
41,1436285440415,-3.39,-18.763,-12.294
42,1436285440432,-3.39,-18.763,-12.294
43,1436285440452,-3.39,-18.763,-12.294
44,1436285440473,-3.39,-18.763,-12.294
45,1436285440496,-3.39,-18.763,-12.294
46,1436285440513,-3.39,-18.763,-12.294
47,1436285440532,-3.39,-18.763,-12.294
48,1436285440552,-3.39,-18.763,-12.294
49,1436285440572,-3.39,-18.763,-12.294
50,1436285440592,-3.39,-18.763,-12.294
51,1436285440614,-3.39,-18.763,-12.294
52,1436285440632,-3.39,-18.763,-12.294
53,1436285440652,-3.39,-18.763,-12.615
54,1436285440672,-3.39,-18.763,-12.615
55,1436285440692,-3.39,-18.763,-12.615
56,1436285440713,-3.39,-18.763,-12.615
57,1436285440736,-3.39,-18.763,-12.615
58,1436285440757,-3.067,-18.763,-12.615
59,1436285440776,-3.067,-18.763,-12.615
60,1436285440795,-3.067,-18.763,-12.615
61,1436285440814,-3.067,-18.763,-12.615
62,1436285440834,-3.067,-18.763,-12.615
63,1436285440854,-3.067,-18.763,-12.615
64,1436285440874,-3.067,-18.763,-12.615
65,1436285440898,-3.067,-18.763,-12.615
66,1436285440961,-3.067,-18.763,-12.615
67,1436285440962,-2.757,-18.763,-12.615
68,1436285440963,-2.757,-18.763,-12.615
69,1436285440974,-2.757,-18.763,-12.615
70,1436285440993,-2.757,-18.763,-12.615
71,1436285441013,-2.757,-18.763,-12.615
72,1436285441034,-2.757,-18.763,-12.615
73,1436285441057,-2.757,-18.763,-12.615
74,1436285441074,-2.757,-18.763,-12.615
75,1436285441094,-2.757,-18.763,-12.615
76,1436285441118,-2.757,-18.763,-12.615
77,1436285441136,-2.757,-19.075,-12.615
78,1436285441156,-2.757,-19.075,-12.615
79,1436285441174,-2.757,-19.075,-12.615
80,1436285441197,-2.757,-19.075,-12.615
81,1436285441216,-2.757,-19.075,-12.615
82,1436285441237,-2.757,-19.075,-12.615
83,1436285441257,-2.444,-19.075,-12.615
84,1436285441276,-2.444,-19.075,-12.615
85,1436285441297,-2.444,-19.075,-12.615
86,1436285441314,-2.444,-19.075,-12.615
87,1436285441333,-2.444,-19.075,-12.615
88,1436285441353,-2.444,-19.075,-12.615
89,1436285441373,-2.444,-19.075,-12.615
90,1436285441394,-2.444,-19.075,-12.615
91,1436285441419,-2.444,-19.075,-12.615
92,1436285441439,-2.444,-19.075,-12.615
93,1436285441460,-2.444,-19.075,-12.615
94,1436285441479,-2.444,-19.075,-12.615
95,1436285441499,-2.444,-19.075,-12.615
96,1436285441517,-2.444,-19.075,-12.615
97,1436285441533,-2.444,-19.075,-12.615
98,1436285441557,-2.444,-19.075,-12.615
99,1436285441576,-2.444,-19.075,-12.615
100,1436285441596,-2.444,-19.075,-12.615
101,1436285441619,-2.444,-19.075,-12.615
102,1436285441638,-2.444,-19.075,-12.615
103,1436285441656,-2.444,-19.075,-12.615
104,1436285441674,-2.444,-19.075,-12.615
105,1436285441718,-2.444,-19.075,-12.924
106,1436285441719,-2.444,-19.075,-12.924
107,1436285441736,-2.444,-19.075,-12.924
108,1436285441757,-2.444,-19.075,-12.924
109,1436285441774,-2.444,-19.075,-12.924
110,1436285441794,-2.444,-18.751,-12.924
111,1436285441814,-2.444,-18.751,-12.924
112,1436285441834,-2.444,-18.751,-12.924
113,1436285441854,-2.444,-18.751,-12.924
114,1436285441874,-2.444,-18.751,-12.924
115,1436285441897,-2.444,-18.751,-12.924
116,1436285441914,-2.444,-18.751,-12.924
117,1436285441935,-2.444,-18.751,-12.924
118,1436285441955,-2.444,-18.751,-12.924
119,1436285441977,-2.444,-18.751,-12.924
120,1436285441995,-2.444,-18.751,-12.924
121,1436285442018,-2.444,-18.751,-12.924
122,1436285442062,-2.444,-18.751,-12.924
123,1436285442063,-2.444,-18.751,-12.924
124,1436285442104,-2.444,-18.751,-12.924
125,1436285442105,-2.444,-18.751,-12.924
126,1436285442114,-2.444,-18.751,-12.924
127,1436285442134,-2.444,-18.751,-12.924
128,1436285442154,-2.444,-18.751,-12.924
129,1436285442174,-2.444,-18.751,-12.924
130,1436285442194,-2.767,-18.751,-12.924
131,1436285442214,-2.767,-18.751,-12.924
132,1436285442234,-2.767,-18.751,-12.924
133,1436285442254,-2.767,-18.751,-12.924
134,1436285442274,-2.767,-18.751,-13.227
135,1436285442294,-2.767,-18.751,-13.227
136,1436285442315,-2.767,-18.751,-13.227
137,1436285442335,-2.767,-18.751,-13.227
138,1436285442354,-2.767,-18.751,-13.227
139,1436285442374,-2.767,-18.751,-13.227
140,1436285442394,-2.767,-18.751,-13.227
141,1436285442414,-2.767,-18.751,-13.227
142,1436285442434,-2.767,-18.751,-13.574
143,1436285442455,-2.767,-18.751,-13.574
144,1436285442474,-2.767,-18.751,-13.574
145,1436285442499,-2.767,-18.751,-13.574
146,1436285442515,-2.767,-18.751,-13.574
147,1436285442536,-2.767,-18.751,-13.574
148,1436285442555,-2.445,-18.751,-13.893
149,1436285442577,-2.445,-18.751,-13.893
150,1436285442596,-2.445,-18.751,-13.893
151,1436285442615,-2.445,-18.751,-13.893
152,1436285442638,-2.445,-18.751,-13.893
153,1436285442660,-2.445,-18.751,-13.893
154,1436285442678,-2.445,-18.751,-13.893
155,1436285442696,-2.445,-18.751,-14.196
156,1436285442719,-2.445,-18.751,-14.196
157,1436285442737,-2.445,-18.751,-14.196
158,1436285442755,-2.445,-18.751,-14.196
159,1436285442793,-2.445,-18.751,-14.196
160,1436285442795,-2.445,-18.751,-14.196
161,1436285442815,-2.445,-18.446,-14.196
162,1436285442835,-2.445,-18.446,-14.196
163,1436285442857,-2.445,-18.446,-14.196
164,1436285442879,-2.445,-18.446,-14.533
165,1436285442896,-2.445,-18.446,-14.533
166,1436285442916,-2.445,-18.446,-14.533
167,1436285442937,-2.445,-18.446,-14.533
168,1436285442959,-2.445,-18.446,-14.533
169,1436285442980,-2.445,-18.446,-14.533
170,1436285442998,-2.445,-18.446,-14.533
171,1436285443017,-2.445,-18.446,-14.533
172,1436285443039,-2.445,-18.446,-14.533
173,1436285443058,-2.445,-18.446,-14.533
174,1436285443079,-2.445,-18.446,-14.533
175,1436285443099,-2.137,-18.446,-14.533
176,1436285443119,-2.137,-18.446,-14.533
177,1436285443136,-2.137,-18.446,-14.533
178,1436285443158,-2.137,-18.446,-14.533
179,1436285443182,-2.137,-18.446,-14.533
180,1436285443199,-2.137,-18.446,-14.533
181,1436285443220,-2.137,-18.446,-14.533
182,1436285443238,-2.137,-18.786,-14.533
183,1436285443267,-2.137,-18.786,-14.533
184,1436285443277,-2.137,-18.786,-14.533
185,1436285443299,-2.137,-18.786,-14.533
186,1436285443319,-2.137,-18.786,-14.533
187,1436285443339,-2.137,-18.786,-14.533
188,1436285443362,-2.137,-18.786,-14.533
189,1436285443378,-2.137,-18.786,-14.533
190,1436285443397,-2.137,-18.786,-14.533
191,1436285443450,-2.137,-18.786,-14.533
192,1436285443451,-2.137,-18.786,-14.533
193,1436285443467,-2.137,-18.786,-14.533
194,1436285443477,-2.137,-18.786,-14.533
195,1436285443496,-2.137,-18.786,-14.533
196,1436285443523,-2.137,-18.786,-14.533
197,1436285443537,-2.137,-18.786,-14.533
198,1436285443555,-2.137,-18.786,-14.533
199,1436285443577,-2.137,-18.786,-14.533
200,1436285443596,-2.137,-18.786,-14.533
201,1436285443615,-2.137,-18.786,-14.533
202,1436285443639,-2.137,-18.786,-14.533
203,1436285443656,-2.137,-18.786,-14.533
204,1436285443684,-2.137,-18.786,-14.533
205,1436285443698,-2.137,-18.786,-14.533
206,1436285443717,-2.137,-18.786,-14.533
207,1436285443738,-2.137,-18.786,-14.533
208,1436285443759,-2.137,-18.786,-14.533
209,1436285443780,-2.137,-18.786,-14.533
210,1436285443797,-2.137,-18.786,-14.533
211,1436285443818,-2.137,-18.786,-14.533
212,1436285443837,-2.137,-18.786,-14.533
213,1436285443856,-2.137,-18.786,-14.222
214,1436285443877,-2.137,-18.786,-14.222
215,1436285443899,-2.137,-18.786,-14.222
216,1436285443919,-2.137,-18.786,-14.222
217,1436285443939,-2.137,-18.786,-14.222
218,1436285443959,-2.137,-18.786,-14.222
219,1436285443978,-2.137,-18.786,-14.222
220,1436285443998,-2.137,-18.786,-14.222
221,1436285444017,-2.137,-18.786,-14.222
222,1436285444040,-2.137,-18.786,-14.222
223,1436285444057,-2.137,-18.786,-14.222
224,1436285444107,-2.462,-18.786,-14.222
225,1436285444108,-2.462,-18.786,-14.222
226,1436285444144,-2.462,-18.786,-14.222
227,1436285444145,-2.462,-18.786,-14.222
228,1436285444156,-2.462,-18.786,-14.222
229,1436285444176,-2.462,-18.786,-14.222
230,1436285444198,-2.462,-18.786,-14.222
231,1436285444217,-2.462,-18.786,-14.222
232,1436285444235,-2.462,-18.786,-14.222
233,1436285444256,-2.462,-18.786,-14.222
234,1436285444275,-2.462,-18.786,-13.908
235,1436285444296,-2.787,-18.786,-13.908
236,1436285444315,-2.787,-18.786,-13.908
237,1436285444336,-2.787,-18.786,-13.908
238,1436285444356,-2.787,-18.786,-13.908
239,1436285444376,-2.787,-18.786,-13.908
240,1436285444396,-2.787,-18.786,-13.908
241,1436285444420,-2.787,-18.786,-13.908
242,1436285444439,-2.787,-18.786,-13.908
243,1436285444464,-2.787,-18.786,-13.908
244,1436285444478,-2.787,-18.786,-13.908
245,1436285444498,-2.787,-18.786,-13.908
246,1436285444516,-2.787,-18.786,-13.603
247,1436285444540,-3.111,-18.786,-13.603
248,1436285444560,-3.111,-18.786,-13.603
249,1436285444584,-3.111,-18.786,-13.603
250,1436285444598,-3.111,-18.786,-13.603
251,1436285444618,-3.111,-18.786,-13.603
252,1436285444640,-3.111,-18.786,-13.603
253,1436285444660,-3.111,-18.786,-13.603
254,1436285444684,-3.111,-18.786,-13.603
255,1436285444700,-3.111,-18.786,-13.227
256,1436285444734,-3.111,-18.786,-13.227
257,1436285444784,-3.111,-18.786,-13.227
258,1436285444785,-3.111,-18.786,-13.227
259,1436285444786,-3.111,-18.786,-13.227
260,1436285444817,-3.111,-18.786,-13.227
261,1436285444818,-3.111,-18.786,-13.227
262,1436285444836,-3.111,-18.786,-13.227
263,1436285444856,-3.111,-18.786,-13.227
264,1436285444876,-3.434,-18.786,-13.227
265,1436285444896,-3.434,-18.786,-12.921
266,1436285444916,-3.434,-18.786,-12.921
267,1436285444936,-3.434,-18.786,-12.921
268,1436285444957,-3.434,-18.786,-12.921
269,1436285444978,-3.434,-18.786,-12.921
270,1436285444997,-3.434,-18.786,-12.921
271,1436285445017,-3.434,-18.786,-12.921
272,1436285445037,-3.434,-18.786,-12.921
273,1436285445057,-3.434,-18.786,-12.62
274,1436285445077,-3.434,-18.786,-12.62
275,1436285445097,-3.434,-18.786,-12.62
276,1436285445118,-3.434,-18.786,-12.62
277,1436285445137,-3.741,-18.786,-12.62
278,1436285445157,-3.741,-18.786,-12.62
279,1436285445181,-3.741,-18.786,-12.62
280,1436285445202,-3.741,-18.786,-12.62
281,1436285445225,-3.741,-18.786,-12.62
282,1436285445239,-3.741,-18.786,-12.62
283,1436285445260,-3.741,-18.786,-12.62
284,1436285445278,-3.741,-18.786,-12.62
285,1436285445301,-3.741,-18.786,-12.315
286,1436285445322,-3.741,-18.786,-12.315
287,1436285445342,-3.741,-18.786,-12.315
288,1436285445360,-3.741,-18.786,-12.315
289,1436285445387,-3.741,-18.786,-12.315
290,1436285445428,-3.741,-18.786,-12.315
291,1436285445429,-3.741,-19.097,-12.315
292,1436285445438,-3.416,-19.097,-12.315
293,1436285445457,-3.416,-19.097,-12.315
294,1436285445477,-3.416,-19.097,-12.315
295,1436285445497,-3.416,-19.097,-12.315
296,1436285445517,-3.416,-19.097,-12.315
297,1436285445537,-3.416,-19.097,-11.979
298,1436285445559,-3.416,-19.097,-11.979
299,1436285445581,-3.416,-19.097,-11.979
300,1436285445599,-3.416,-19.097,-11.979
301,1436285445621,-3.416,-19.097,-11.979
302,1436285445641,-3.416,-19.097,-11.979
303,1436285445660,-3.416,-19.097,-11.979
304,1436285445681,-3.416,-19.097,-11.979
305,1436285445701,-3.416,-19.097,-11.979
306,1436285445721,-3.1,-19.097,-11.979
307,1436285445743,-3.1,-19.097,-11.979
308,1436285445760,-3.1,-19.097,-11.979
309,1436285445778,-3.1,-19.097,-11.979
310,1436285445800,-3.1,-19.097,-11.979
311,1436285445821,-3.1,-19.097,-11.979
312,1436285445839,-3.1,-19.097,-11.979
313,1436285445860,-3.1,-19.097,-11.979
314,1436285445881,-3.1,-19.097,-11.979
315,1436285445901,-3.1,-19.097,-11.979
316,1436285445921,-3.1,-19.097,-11.979
317,1436285445941,-3.1,-19.097,-11.979
318,1436285445961,-3.1,-19.097,-11.979
319,1436285445981,-3.1,-19.097,-11.979
320,1436285445999,-3.1,-19.097,-11.979
321,1436285446021,-3.1,-19.097,-11.979
322,1436285446049,-3.1,-19.097,-11.979
323,1436285446103,-3.1,-19.097,-11.979
324,1436285446104,-3.1,-19.097,-11.979
325,1436285446105,-3.1,-19.097,-11.979
326,1436285446117,-3.1,-19.097,-11.979
327,1436285446139,-3.1,-19.097,-11.979
328,1436285446158,-3.1,-19.097,-11.979
329,1436285446178,-3.1,-19.097,-11.979
330,1436285446199,-3.1,-19.097,-11.979
331,1436285446220,-3.1,-19.097,-11.979
332,1436285446241,-3.1,-19.097,-11.979
333,1436285446259,-3.1,-19.097,-11.979
334,1436285446281,-3.1,-19.097,-11.979
335,1436285446300,-3.1,-19.097,-11.979
336,1436285446320,-3.1,-19.097,-11.979
337,1436285446341,-3.1,-19.097,-11.979
338,1436285446361,-3.1,-19.097,-11.979
339,1436285446381,-3.1,-19.097,-11.979
340,1436285446401,-3.1,-19.097,-11.979
341,1436285446421,-3.1,-19.097,-11.979
342,1436285446442,-3.1,-19.097,-11.979
343,1436285446461,-3.1,-19.097,-11.979
344,1436285446481,-3.1,-19.097,-11.979
345,1436285446499,-3.1,-19.097,-11.979
346,1436285446522,-3.1,-19.097,-11.979
347,1436285446540,-3.1,-19.097,-11.979
348,1436285446574,-3.1,-19.097,-11.979
349,1436285446590,-3.1,-19.097,-11.979
350,1436285446605,-3.1,-19.097,-11.979
351,1436285446621,-3.1,-19.097,-11.979
352,1436285446640,-3.1,-19.097,-11.979
353,1436285446660,-3.1,-19.097,-11.979
354,1436285446681,-3.1,-19.097,-11.979
355,1436285446700,-3.1,-19.097,-11.979
356,1436285446768,-3.1,-19.097,-11.979
357,1436285446769,-3.1,-19.097,-11.979
358,1436285446770,-3.1,-19.097,-11.979
359,1436285446778,-3.1,-19.097,-11.979
360,1436285446799,-3.1,-19.097,-11.979
361,1436285446820,-3.1,-19.097,-11.979
362,1436285446840,-3.1,-19.097,-11.979
363,1436285446860,-3.1,-19.097,-11.979
364,1436285446879,-3.1,-19.097,-11.979
365,1436285446901,-3.1,-19.097,-11.979
366,1436285446920,-3.1,-19.097,-11.979
367,1436285446941,-3.1,-19.097,-11.979
368,1436285446962,-3.1,-19.097,-11.979
369,1436285446982,-3.411,-19.097,-11.979
370,1436285447002,-3.411,-19.097,-11.979
371,1436285447020,-3.411,-19.097,-11.676
372,1436285447041,-3.411,-19.097,-11.676
373,1436285447062,-3.411,-19.097,-11.676
374,1436285447082,-3.411,-19.097,-11.676
375,1436285447101,-3.411,-19.097,-11.676
376,1436285447122,-3.411,-19.097,-11.676
377,1436285447141,-3.411,-19.097,-11.676
378,1436285447162,-3.411,-19.097,-11.676
379,1436285447183,-3.411,-19.097,-11.676
380,1436285447201,-3.411,-19.097,-11.676
381,1436285447222,-3.411,-19.097,-11.335
382,1436285447242,-3.411,-19.097,-11.335
383,1436285447263,-3.411,-19.097,-11.335
384,1436285447280,-3.411,-19.097,-11.335
385,1436285447301,-3.411,-19.097,-11.335
386,1436285447321,-3.411,-19.097,-11.335
387,1436285447341,-3.411,-19.097,-11.335
388,1436285447365,-3.411,-19.097,-11.335
389,1436285447434,-3.411,-19.097,-11.335
390,1436285447435,-3.411,-19.097,-11.335
391,1436285447440,-3.715,-19.097,-11.026
392,1436285447441,-3.715,-19.097,-11.026
393,1436285447459,-3.715,-19.097,-11.026
394,1436285447480,-3.715,-19.097,-11.026
395,1436285447500,-3.715,-19.097,-11.026
396,1436285447520,-3.715,-19.097,-11.026
397,1436285447540,-3.715,-19.097,-11.026
398,1436285447561,-3.715,-19.097,-11.026
399,1436285447584,-3.715,-19.097,-11.026
400,1436285447604,-3.715,-19.097,-11.026
401,1436285447622,-3.715,-19.097,-11.026
402,1436285447641,-3.715,-19.097,-11.026
403,1436285447663,-3.715,-19.097,-10.717
404,1436285447683,-3.715,-19.097,-10.717
405,1436285447703,-3.715,-19.097,-10.717
406,1436285447723,-3.715,-19.097,-10.717
407,1436285447741,-3.715,-19.097,-10.717
408,1436285447767,-3.715,-19.097,-10.717
409,1436285447781,-3.715,-19.097,-10.717
410,1436285447800,-3.715,-19.097,-10.717
411,1436285447821,-3.715,-19.097,-10.717
412,1436285447841,-3.715,-19.097,-10.717
413,1436285447861,-3.715,-19.097,-10.717
414,1436285447880,-3.715,-19.097,-10.717
415,1436285447900,-3.715,-19.097,-10.717
416,1436285447924,-3.715,-19.097,-10.717
417,1436285447941,-3.715,-19.097,-10.717
418,1436285447963,-3.715,-19.097,-10.717
419,1436285447980,-3.715,-19.097,-10.717
420,1436285448002,-3.715,-19.097,-10.717
421,1436285448026,-3.715,-19.097,-10.717
422,1436285448081,-3.715,-19.097,-10.717
423,1436285448083,-3.715,-19.097,-10.717
424,1436285448084,-3.715,-19.097,-10.717
425,1436285448103,-3.715,-19.097,-10.717
426,1436285448121,-4.029,-19.097,-10.717
427,1436285448143,-4.029,-19.097,-10.717
428,1436285448160,-4.029,-19.097,-10.717
429,1436285448184,-4.029,-19.097,-10.717
430,1436285448200,-4.029,-19.097,-10.717
431,1436285448221,-4.029,-19.097,-10.717
432,1436285448244,-4.029,-19.097,-10.408
433,1436285448262,-4.029,-19.097,-10.408
434,1436285448282,-4.029,-19.097,-10.408
435,1436285448301,-4.029,-19.097,-10.408
436,1436285448322,-4.029,-19.097,-10.408
437,1436285448342,-4.029,-19.097,-10.408
438,1436285448362,-4.029,-19.097,-10.408
439,1436285448383,-4.029,-19.097,-10.408
440,1436285448403,-4.029,-19.097,-10.408
441,1436285448423,-4.029,-19.097,-10.06
442,1436285448443,-4.029,-19.097,-10.06
443,1436285448462,-4.029,-19.097,-10.06
444,1436285448483,-4.029,-19.097,-10.06
445,1436285448504,-4.029,-19.097,-9.753
446,1436285448523,-4.029,-19.097,-9.753
447,1436285448542,-4.335,-19.097,-9.753
448,1436285448562,-4.335,-19.097,-9.312
449,1436285448582,-4.335,-19.097,-9.312
450,1436285448604,-4.335,-19.435,-8.541
451,1436285448624,-4.335,-19.435,-8.21
452,1436285448641,-4.335,-19.435,-7.344
453,1436285448661,-4.335,-19.435,-6.765
454,1436285448681,-4.335,-19.435,-6.034
455,1436285448734,-4.673,-19.789,-5.67
456,1436285448735,-4.673,-19.789,-5.245
457,1436285448741,-4.673,-19.789,-4.435
458,1436285448761,-4.673,-19.789,-4.435
459,1436285448785,-4.997,-20.115,-4.435
460,1436285448805,-4.997,-20.115,-4.435
461,1436285448820,-4.997,-20.115,-3.665
462,1436285448840,-5.325,-20.115,-3.665
463,1436285448860,-5.325,-20.442,-4.002
464,1436285448881,-5.325,-20.442,-4.002
465,1436285448900,-5.659,-20.442,-3.669
466,1436285448920,-5.659,-20.442,-3.669
467,1436285448940,-5.659,-20.442,-3.669
468,1436285448960,-6.016,-20.442,-3.669
469,1436285448980,-6.016,-20.753,-3.669
470,1436285449000,-6.016,-20.753,-3.669
471,1436285449020,-6.016,-20.753,-3.669
472,1436285449040,-6.419,-20.753,-3.669
473,1436285449060,-6.419,-20.753,-3.317
474,1436285449082,-6.419,-20.753,-3.317
475,1436285449101,-6.419,-20.753,-3.317
476,1436285449121,-6.419,-20.753,-3.317
477,1436285449141,-6.762,-20.753,-3.317
478,1436285449161,-6.762,-20.753,-3.317
479,1436285449181,-6.762,-20.753,-3.317
480,1436285449201,-6.762,-20.753,-3.317
481,1436285449220,-6.762,-20.753,-3.317
482,1436285449241,-6.762,-20.753,-3.317
483,1436285449261,-6.762,-20.753,-3.317
484,1436285449281,-6.762,-20.753,-3.317
485,1436285449301,-6.762,-20.753,-3.317
486,1436285449320,-6.762,-20.753,-3.317
487,1436285449341,-6.762,-20.753,-3.317
488,1436285449362,-6.762,-20.753,-3.317
489,1436285449380,-6.762,-20.753,-3.317
490,1436285449400,-6.762,-20.753,-3.317
491,1436285449421,-6.762,-20.753,-3.317
492,1436285449441,-6.762,-20.753,-3.651
493,1436285449461,-6.762,-20.753,-3.651
494,1436285449481,-6.762,-20.753,-3.651
495,1436285449501,-6.762,-20.753,-3.651
