id,attr_time,attr_x,attr_y,attr_z
1,1436285439615,21.455,-30.273,-1.818
2,1436285439633,21.455,-30.273,-1.818
3,1436285439655,21.455,-30.273,-1.818
4,1436285439671,21.455,-30.273,-1.818
5,1436285439692,21.455,-30.273,-1.818
6,1436285439712,21.455,-30.273,-1.818
7,1436285439737,21.455,-30.273,-1.818
8,1436285439757,21.455,-30.273,-1.818
9,1436285439778,21.455,-30.273,-1.818
10,1436285439795,21.455,-30.273,-1.818
11,1436285439812,21.455,-30.273,-1.818
12,1436285439832,21.455,-30.273,-1.818
13,1436285439852,21.455,-30.273,-1.818
14,1436285439872,21.455,-30.273,-1.818
15,1436285439892,21.455,-30.273,-1.818
16,1436285439959,21.455,-30.273,-1.818
17,1436285439960,21.455,-30.273,-1.818
18,1436285439961,21.455,-30.273,-1.818
19,1436285439972,21.455,-30.273,-1.818
20,1436285439995,21.455,-30.273,-1.818
21,1436285440012,21.455,-30.273,-1.818
22,1436285440033,21.455,-30.273,-1.818
23,1436285440058,21.455,-30.273,-1.818
24,1436285440074,21.455,-30.273,-1.818
25,1436285440095,21.455,-30.273,-1.818
26,1436285440112,21.455,-30.273,-1.818
27,1436285440136,21.455,-30.273,-1.818
28,1436285440154,21.455,-30.273,-1.818
29,1436285440173,21.455,-30.273,-1.818
30,1436285440192,21.455,-30.273,-2.131
31,1436285440215,21.455,-30.273,-2.131
32,1436285440235,21.455,-30.273,-2.131
33,1436285440255,21.455,-30.273,-2.131
34,1436285440275,21.455,-30.273,-2.131
35,1436285440295,21.455,-30.273,-2.131
36,1436285440315,21.455,-30.273,-2.131
37,1436285440333,21.455,-30.273,-2.131
38,1436285440355,21.455,-30.273,-2.131
39,1436285440375,21.455,-30.273,-2.131
40,1436285440395,21.455,-30.273,-2.131
41,1436285440414,21.455,-30.273,-2.131
42,1436285440435,21.455,-30.273,-2.131
43,1436285440455,21.455,-30.273,-2.131
44,1436285440475,21.455,-29.936,-2.131
45,1436285440496,21.455,-29.936,-2.131
46,1436285440515,21.455,-29.936,-2.131
47,1436285440536,21.455,-29.936,-2.131
48,1436285440553,21.455,-29.936,-2.131
49,1436285440574,21.455,-29.936,-2.131
50,1436285440593,21.455,-29.936,-2.131
51,1436285440613,21.455,-29.936,-2.131
52,1436285440661,21.455,-29.936,-2.131
53,1436285440662,21.455,-29.936,-2.131
54,1436285440681,21.455,-29.936,-2.131
55,1436285440693,21.455,-29.936,-2.47
56,1436285440717,21.455,-29.936,-2.47
57,1436285440733,21.455,-29.936,-2.47
58,1436285440753,21.455,-29.936,-2.47
59,1436285440774,21.455,-29.936,-2.47
60,1436285440797,21.455,-29.936,-2.47
61,1436285440815,21.455,-29.936,-2.47
62,1436285440837,21.455,-29.936,-2.47
63,1436285440853,21.455,-29.936,-2.47
64,1436285440873,21.455,-29.936,-2.47
65,1436285440893,21.455,-29.936,-2.778
66,1436285440913,21.455,-29.936,-2.778
67,1436285440935,21.455,-29.936,-2.778
68,1436285440954,21.455,-29.936,-2.778
69,1436285440975,21.455,-29.936,-2.778
70,1436285440996,21.455,-29.936,-2.778
71,1436285441013,21.455,-29.936,-2.778
72,1436285441034,21.455,-29.936,-2.778
73,1436285441127,21.765,-29.612,-2.778
74,1436285441128,21.765,-29.612,-2.778
75,1436285441129,21.765,-29.612,-2.778
76,1436285441130,21.765,-29.612,-2.778
77,1436285441167,21.765,-29.612,-2.778
78,1436285441168,21.765,-29.612,-3.097
79,1436285441173,21.765,-29.612,-3.097
80,1436285441193,21.765,-29.612,-3.097
81,1436285441215,21.765,-29.612,-3.097
82,1436285441233,21.765,-29.612,-3.097
83,1436285441254,21.765,-29.612,-3.097
84,1436285441273,21.765,-29.612,-3.097
85,1436285441293,21.765,-29.612,-3.097
86,1436285441316,21.765,-29.612,-3.097
87,1436285441381,21.765,-29.612,-3.097
88,1436285441382,21.765,-29.306,-3.097
89,1436285441383,21.765,-29.306,-3.097
90,1436285441393,21.765,-29.306,-3.097
91,1436285441422,21.765,-29.306,-3.097
92,1436285441434,21.765,-29.306,-3.097
93,1436285441455,21.765,-29.306,-3.097
94,1436285441473,21.765,-29.306,-3.097
95,1436285441495,21.765,-29.306,-3.097
96,1436285441514,21.765,-29.306,-3.097
97,1436285441534,21.765,-29.306,-3.097
98,1436285441557,21.765,-29.306,-3.097
99,1436285441574,21.765,-29.306,-3.097
100,1436285441594,21.765,-29.306,-3.097
101,1436285441617,21.765,-29.306,-3.097
102,1436285441637,21.765,-29.306,-3.097
103,1436285441657,21.765,-29.306,-3.097
104,1436285441677,21.765,-29.306,-3.097
105,1436285441697,21.765,-29.306,-3.097
106,1436285441715,21.765,-29.306,-3.097
107,1436285441737,21.765,-29.306,-3.097
108,1436285441755,21.765,-29.306,-3.097
109,1436285441774,21.765,-29.306,-3.097
110,1436285441797,21.765,-29.306,-3.097
111,1436285441817,21.765,-29.306,-3.097
112,1436285441834,21.765,-29.306,-3.097
113,1436285441857,21.765,-29.306,-3.097
114,1436285441874,21.765,-29.306,-3.097
115,1436285441894,21.765,-29.306,-3.097
116,1436285441914,21.765,-29.306,-3.097
117,1436285441935,21.765,-29.306,-3.097
118,1436285441957,21.765,-29.306,-3.097
119,1436285441974,21.765,-29.306,-3.097
120,1436285441995,21.765,-29.306,-3.44
121,1436285442020,21.765,-29.306,-3.44
122,1436285442096,21.765,-29.306,-3.44
123,1436285442097,21.765,-29.306,-3.44
124,1436285442098,21.765,-29.306,-3.44
125,1436285442099,21.765,-29.306,-3.44
126,1436285442119,21.765,-29.306,-3.44
127,1436285442137,21.765,-29.306,-3.44
128,1436285442174,21.765,-29.306,-3.44
129,1436285442175,21.765,-29.306,-3.44
130,1436285442219,21.765,-29.306,-3.44
131,1436285442220,21.765,-29.306,-3.44
132,1436285442234,21.765,-29.306,-3.44
133,1436285442268,21.765,-29.306,-3.44
134,1436285442274,21.765,-29.306,-3.44
135,1436285442294,21.765,-29.306,-3.44
136,1436285442321,21.765,-29.306,-3.44
137,1436285442337,21.765,-29.306,-3.44
138,1436285442354,21.765,-29.306,-3.44
139,1436285442375,21.765,-29.306,-3.44
140,1436285442394,21.765,-29.306,-3.44
141,1436285442414,21.765,-29.306,-3.44
142,1436285442438,21.765,-29.306,-3.44
143,1436285442455,21.765,-29.306,-3.44
144,1436285442474,21.765,-29.306,-3.776
145,1436285442524,21.765,-29.306,-3.776
146,1436285442525,21.765,-29.306,-3.776
147,1436285442533,21.765,-29.306,-3.776
148,1436285442554,21.765,-29.306,-3.776
149,1436285442574,21.765,-28.984,-3.776
150,1436285442594,21.765,-28.984,-4.1
151,1436285442616,21.765,-28.984,-4.1
152,1436285442636,21.765,-28.984,-4.1
153,1436285442656,21.765,-28.984,-4.1
154,1436285442676,21.765,-28.984,-4.495
155,1436285442694,21.765,-28.984,-4.495
156,1436285442714,21.765,-28.984,-4.495
157,1436285442736,21.765,-28.984,-4.814
158,1436285442756,21.765,-28.984,-4.814
159,1436285442776,21.765,-28.984,-4.814
160,1436285442796,21.765,-28.984,-5.175
161,1436285442818,21.765,-28.984,-5.175
162,1436285442842,21.765,-28.984,-5.175
163,1436285442855,21.765,-28.984,-5.506
164,1436285442873,21.765,-28.984,-5.506
165,1436285442893,21.765,-28.984,-5.506
166,1436285442913,21.765,-28.984,-5.877
167,1436285442936,21.765,-28.984,-5.877
168,1436285442954,21.765,-28.984,-5.877
169,1436285442976,21.765,-28.984,-6.211
170,1436285442998,21.765,-28.984,-6.211
171,1436285443015,21.765,-28.984,-6.211
172,1436285443036,21.765,-28.984,-6.211
173,1436285443058,21.765,-28.984,-6.533
174,1436285443089,21.765,-28.984,-6.533
175,1436285443094,21.765,-28.984,-6.533
176,1436285443114,21.765,-28.984,-6.533
177,1436285443134,21.765,-28.984,-6.533
178,1436285443154,21.765,-28.984,-6.533
179,1436285443174,21.765,-28.984,-6.533
180,1436285443194,22.068,-28.984,-6.533
181,1436285443214,22.068,-28.984,-6.533
182,1436285443235,22.068,-28.984,-6.533
183,1436285443254,22.068,-28.984,-6.533
184,1436285443274,22.068,-28.984,-6.533
185,1436285443297,22.068,-28.984,-6.533
186,1436285443318,22.068,-28.984,-6.533
187,1436285443338,22.068,-28.984,-6.533
188,1436285443356,22.068,-28.984,-6.533
189,1436285443379,22.068,-28.984,-6.533
190,1436285443399,22.068,-28.984,-6.533
191,1436285443417,22.068,-28.984,-6.533
192,1436285443441,22.068,-28.984,-6.533
193,1436285443479,22.068,-28.984,-6.533
194,1436285443480,22.068,-28.984,-6.533
195,1436285443495,22.068,-28.984,-6.227
196,1436285443515,22.068,-28.984,-6.227
197,1436285443535,22.068,-28.984,-6.227
198,1436285443557,22.068,-28.984,-6.227
199,1436285443575,22.068,-28.984,-6.227
200,1436285443598,22.068,-28.984,-6.227
201,1436285443615,22.068,-28.984,-6.227
202,1436285443638,22.068,-28.984,-6.227
203,1436285443655,22.068,-28.984,-5.908
204,1436285443677,22.068,-28.984,-5.908
205,1436285443696,22.068,-28.984,-5.908
206,1436285443717,22.068,-28.984,-5.908
207,1436285443737,22.068,-28.984,-5.908
208,1436285443758,22.068,-28.984,-5.908
209,1436285443778,22.068,-28.984,-5.908
210,1436285443800,22.068,-28.984,-5.908
211,1436285443817,22.068,-28.984,-5.908
212,1436285443839,22.068,-28.984,-5.908
213,1436285443858,22.068,-28.984,-5.908
214,1436285443878,22.38,-28.984,-5.908
215,1436285443900,22.38,-29.302,-5.908
216,1436285443921,22.38,-29.302,-5.908
217,1436285443940,22.38,-29.302,-5.583
218,1436285443959,22.38,-29.302,-5.583
219,1436285443975,22.38,-29.302,-5.583
220,1436285443995,22.38,-29.302,-5.583
221,1436285444015,22.38,-29.302,-5.583
222,1436285444045,22.38,-29.302,-5.583
223,1436285444062,22.38,-29.302,-5.583
224,1436285444082,22.38,-29.302,-5.583
225,1436285444097,22.38,-29.302,-5.281
226,1436285444122,22.38,-29.302,-11.468
227,1436285444183,22.38,-29.302,-5.009
228,1436285444184,22.38,-29.302,-5.009
229,1436285444185,22.38,-29.302,-5.009
230,1436285444205,22.38,-29.302,-5.009
231,1436285444216,22.38,-29.302,-5.009
232,1436285444242,22.38,-29.302,-4.428
233,1436285444257,22.38,-29.302,-4.835
234,1436285444277,22.38,-29.302,-4.835
235,1436285444300,22.38,-29.302,-4.835
236,1436285444317,22.38,-29.302,-4.835
237,1436285444337,22.38,-29.302,-4.835
238,1436285444358,22.38,-29.302,-4.835
239,1436285444379,22.38,-29.302,-4.38
240,1436285444396,22.38,-29.302,-4.891
241,1436285444420,22.38,-29.302,-4.891
242,1436285444439,22.38,-29.302,-4.891
243,1436285444459,22.38,-29.302,-4.528
244,1436285444477,22.38,-29.302,-4.885
245,1436285444496,22.38,-29.612,-4.885
246,1436285444518,22.38,-29.612,-4.885
247,1436285444541,22.38,-29.612,-4.885
248,1436285444560,22.38,-29.612,-4.885
249,1436285444578,22.38,-29.612,-4.885
250,1436285444608,22.38,-29.612,-4.566
251,1436285444620,22.38,-29.612,-4.566
252,1436285444637,22.38,-29.612,-4.566
253,1436285444660,22.38,-29.612,-4.566
254,1436285444679,22.38,-29.612,-4.566
255,1436285444700,22.38,-29.612,-4.566
256,1436285444719,22.38,-29.612,-4.566
257,1436285444739,22.38,-29.924,-4.566
258,1436285444760,22.38,-29.924,-4.566
259,1436285444779,22.38,-29.924,-4.566
260,1436285444800,22.38,-29.924,-4.566
261,1436285444819,22.38,-29.924,-4.566
262,1436285444838,22.38,-29.924,-4.566
263,1436285444866,22.38,-29.924,-4.566
264,1436285444937,22.38,-29.924,-4.566
265,1436285444938,22.38,-29.924,-4.566
266,1436285444939,22.38,-29.924,-4.237
267,1436285444940,22.38,-29.924,-4.237
268,1436285444960,22.38,-29.924,-4.237
269,1436285444982,22.38,-29.924,-4.237
270,1436285445000,22.38,-29.924,-4.237
271,1436285445017,22.38,-29.924,-4.237
272,1436285445040,22.067,-29.924,-4.237
273,1436285445058,22.067,-29.924,-4.237
274,1436285445082,22.067,-29.924,-4.237
275,1436285445100,22.067,-29.924,-3.901
276,1436285445125,22.067,-29.924,-3.901
277,1436285445139,22.067,-29.924,-3.901
278,1436285445160,22.067,-29.924,-3.901
279,1436285445179,22.067,-29.924,-3.901
280,1436285445200,22.067,-29.924,-3.901
281,1436285445220,22.067,-29.924,-3.901
282,1436285445240,22.067,-29.924,-3.591
283,1436285445260,22.067,-29.924,-3.591
284,1436285445280,22.067,-29.924,-3.591
285,1436285445301,22.067,-29.924,-3.591
286,1436285445318,22.067,-29.924,-3.591
287,1436285445340,22.067,-29.924,-3.591
288,1436285445360,22.067,-29.924,-3.591
289,1436285445377,22.067,-29.924,-3.591
290,1436285445397,22.067,-29.924,-1.147
291,1436285445418,22.067,-29.924,-3.138
292,1436285445443,22.067,-29.924,-3.138
293,1436285445463,22.067,-29.924,-3.138
294,1436285445483,22.067,-29.924,-3.138
295,1436285445501,22.067,-29.924,-3.138
296,1436285445518,22.067,-29.924,-3.138
297,1436285445537,22.067,-29.924,-3.138
298,1436285445557,22.067,-29.924,-3.138
299,1436285445579,22.067,-29.924,-3.138
300,1436285445601,22.067,-29.924,-3.138
301,1436285445664,22.067,-29.924,-3.138
302,1436285445665,22.067,-29.924,-3.138
303,1436285445666,22.067,-29.924,-3.138
304,1436285445677,22.067,-29.924,-3.138
305,1436285445698,22.067,-29.924,-3.138
306,1436285445789,22.067,-29.924,-3.138
307,1436285445790,22.067,-29.924,-3.138
308,1436285445794,22.067,-29.924,-3.138
309,1436285445795,22.067,-29.924,-3.138
310,1436285445802,22.067,-29.476,-3.138
311,1436285445910,22.067,-29.476,-3.138
312,1436285445911,22.067,-29.476,-3.138
313,1436285445912,22.067,-29.476,-3.138
314,1436285445913,22.067,-29.476,-3.138
315,1436285445914,22.067,-29.476,-3.138
316,1436285445918,22.067,-29.476,-3.138
317,1436285445938,22.067,-29.476,-3.138
318,1436285445959,22.067,-29.476,-3.138
319,1436285445978,22.067,-29.476,-3.138
320,1436285445998,22.067,-29.476,-3.138
321,1436285446018,22.067,-29.476,-3.138
322,1436285446038,22.067,-29.476,-3.138
323,1436285446057,22.067,-29.476,-3.138
324,1436285446077,22.067,-29.476,-3.138
325,1436285446097,22.067,-29.476,-3.138
326,1436285446117,22.067,-29.476,-3.462
327,1436285446137,22.067,-29.476,-3.462
328,1436285446157,22.067,-29.476,-3.462
329,1436285446177,22.067,-29.476,-3.462
330,1436285446197,22.067,-29.476,-3.462
331,1436285446217,22.067,-29.476,-3.462
332,1436285446237,22.067,-29.476,-3.462
333,1436285446257,22.067,-29.476,-3.462
334,1436285446277,22.067,-29.476,-3.462
335,1436285446297,22.067,-29.476,-3.462
336,1436285446317,22.067,-29.476,-3.462
337,1436285446337,22.067,-29.476,-3.462
338,1436285446357,22.067,-29.476,-3.462
339,1436285446377,22.067,-29.476,-3.462
340,1436285446397,22.067,-29.476,-3.462
341,1436285446417,22.067,-29.476,-3.462
342,1436285446437,22.067,-29.476,-3.462
343,1436285446460,22.067,-29.476,-3.462
344,1436285446477,22.067,-29.476,-3.462
345,1436285446497,22.067,-29.476,-3.462
346,1436285446517,22.067,-29.476,-3.462
347,1436285446537,22.067,-29.476,-3.462
348,1436285446557,22.067,-29.476,-3.462
349,1436285446577,22.067,-29.476,-3.138
350,1436285446597,22.067,-29.476,-3.138
351,1436285446617,22.067,-29.476,-9.46
352,1436285446637,22.067,-29.476,-3.564
353,1436285446657,22.067,-29.476,-3.16
354,1436285446677,22.067,-29.476,-3.16
355,1436285446697,22.067,-29.476,-3.16
356,1436285446722,22.067,-29.476,-3.16
357,1436285446742,22.067,-29.476,-3.16
358,1436285446763,22.067,-29.476,-3.16
359,1436285446783,22.067,-29.476,-3.562
360,1436285446800,22.067,-29.476,-3.146
361,1436285446819,22.067,-29.476,-3.146
362,1436285446839,22.067,-29.476,-3.146
363,1436285446863,22.067,-29.476,-3.146
364,1436285446883,22.067,-29.476,-3.146
365,1436285446903,22.067,-29.476,-3.146
366,1436285446919,22.067,-29.476,-3.146
367,1436285446947,22.067,-29.476,-3.146
368,1436285447020,22.067,-29.476,-3.146
369,1436285447021,22.067,-29.476,-3.146
370,1436285447022,22.067,-29.476,-3.146
371,1436285447023,22.067,-29.476,-3.146
372,1436285447040,22.067,-29.476,-3.146
373,1436285447063,22.067,-29.476,-3.146
374,1436285447081,22.067,-29.476,-3.146
375,1436285447101,22.067,-29.476,-3.146
376,1436285447122,22.067,-29.476,-3.146
377,1436285447153,22.067,-29.476,-3.146
378,1436285447161,22.067,-29.476,-3.146
379,1436285447179,22.067,-29.476,-3.146
380,1436285447203,22.067,-29.476,-3.146
381,1436285447223,22.067,-29.476,-3.146
382,1436285447242,22.067,-29.476,-3.146
383,1436285447262,22.067,-29.476,-3.146
384,1436285447282,22.067,-29.476,-2.841
385,1436285447302,22.067,-29.476,-2.841
386,1436285447322,22.067,-29.476,-2.841
387,1436285447342,22.067,-29.476,-2.841
388,1436285447362,22.067,-29.476,-2.841
389,1436285447382,22.067,-29.476,-2.841
390,1436285447402,22.067,-29.476,-2.841
391,1436285447420,22.067,-29.476,-2.841
392,1436285447442,22.067,-29.476,-2.841
393,1436285447462,22.067,-29.476,-2.841
394,1436285447482,22.067,-29.476,-2.841
395,1436285447501,22.067,-29.476,-2.841
396,1436285447536,22.067,-29.476,-2.841
397,1436285447541,22.067,-29.476,-2.841
398,1436285447559,22.067,-29.476,-2.841
399,1436285447579,22.067,-29.476,-2.841
400,1436285447601,22.067,-29.476,-2.841
401,1436285447619,22.067,-29.476,-2.841
402,1436285447639,22.067,-29.476,-2.841
403,1436285447661,22.067,-29.476,-2.841
404,1436285447688,22.067,-29.476,-2.841
405,1436285447747,22.067,-29.476,-2.841
406,1436285447748,22.067,-29.476,-2.841
407,1436285447749,22.067,-29.476,-2.841
408,1436285447761,22.067,-29.476,-2.841
409,1436285447782,22.067,-29.476,-2.841
410,1436285447808,22.067,-29.476,-2.841
411,1436285447820,22.067,-29.476,-2.841
412,1436285447840,22.067,-29.476,-2.841
413,1436285447861,22.067,-29.476,-2.841
414,1436285447881,22.067,-29.476,-2.841
415,1436285447902,22.067,-29.476,-2.841
416,1436285447921,22.067,-29.476,-2.841
417,1436285447942,22.067,-29.476,-2.841
418,1436285447960,22.067,-29.476,-2.511
419,1436285447983,22.067,-29.476,-2.511
420,1436285448002,22.067,-29.476,-2.511
421,1436285448022,22.067,-29.476,-2.511
422,1436285448043,22.067,-29.476,-2.511
423,1436285448063,22.067,-29.476,-2.511
424,1436285448084,22.067,-29.476,-2.511
425,1436285448101,22.067,-29.476,-2.511
426,1436285448121,22.067,-29.476,-2.511
427,1436285448154,22.067,-29.476,-2.511
428,1436285448162,22.067,-29.476,-2.511
429,1436285448181,22.067,-29.476,-2.511
430,1436285448204,22.067,-29.476,-2.511
431,1436285448223,22.067,-29.476,-2.2
432,1436285448243,22.067,-29.476,-2.2
433,1436285448263,22.067,-29.476,-2.2
434,1436285448282,22.067,-29.476,-2.2
435,1436285448303,22.067,-29.476,-2.2
436,1436285448323,22.067,-29.476,-2.2
437,1436285448343,22.067,-29.476,-2.2
438,1436285448363,22.067,-29.476,-2.2
439,1436285448380,22.067,-29.476,-2.2
440,1436285448408,22.067,-29.476,-2.2
441,1436285448471,22.067,-29.476,-2.2
442,1436285448472,22.067,-29.476,-2.2
443,1436285448473,22.067,-29.476,-2.2
444,1436285448482,22.067,-29.476,-2.2
445,1436285448511,22.067,-29.476,-2.2
446,1436285448523,22.067,-29.476,-2.2
447,1436285448540,22.067,-29.476,-2.2
448,1436285448562,22.067,-29.476,-2.2
449,1436285448587,22.067,-29.476,-1.896
450,1436285448601,22.067,-29.476,-1.896
451,1436285448621,22.067,-29.476,-1.896
452,1436285448640,22.067,-29.476,-1.896
453,1436285448663,22.067,-29.476,-1.896
454,1436285448684,22.067,-29.476,-1.896
455,1436285448703,22.067,-29.476,-1.896
456,1436285448723,22.067,-29.476,-1.896
457,1436285448743,22.067,-29.476,-1.896
458,1436285448763,22.067,-29.476,-1.896
459,1436285448783,22.067,-29.476,-1.896
460,1436285448803,22.067,-29.476,-1.596
461,1436285448823,22.067,-29.476,-1.596
462,1436285448844,22.067,-29.476,-1.596
463,1436285448862,22.067,-29.476,-1.248
464,1436285448884,22.067,-29.476,-1.248
465,1436285448907,22.067,-29.476,-1.248
466,1436285448925,22.067,-29.476,-1.248
467,1436285448945,22.067,-29.476,-1.248
468,1436285448964,22.067,-29.476,-1.248
469,1436285448981,22.067,-29.476,-1.248
470,1436285449002,22.067,-29.476,-1.248
471,1436285449022,22.067,-29.154,-1.248
472,1436285449046,22.067,-29.154,-1.248
473,1436285449066,22.067,-29.154,-1.248
474,1436285449088,22.067,-29.154,-1.248
475,1436285449104,22.067,-29.154,-0.865
476,1436285449211,22.067,-29.154,-0.865
477,1436285449212,22.067,-29.154,-0.865
478,1436285449213,22.067,-29.154,-0.865
479,1436285449214,22.067,-29.154,-0.865
480,1436285449215,22.067,-29.154,-0.865
481,1436285449232,22.067,-29.154,-0.865
482,1436285449242,22.067,-29.154,-0.865
483,1436285449261,22.067,-29.154,-0.865
484,1436285449281,22.067,-29.154,-0.865
485,1436285449305,22.067,-29.154,-0.865
486,1436285449321,22.067,-29.154,-0.865
487,1436285449341,22.067,-29.154,-0.865
488,1436285449362,22.067,-29.154,-0.865
489,1436285449382,22.067,-29.154,-0.865
490,1436285449404,22.067,-29.154,-0.865
491,1436285449425,22.067,-29.154,-0.865
492,1436285449444,22.067,-29.154,-0.865
493,1436285449464,21.734,-29.154,-0.865
494,1436285449484,21.734,-29.154,-0.865
495,1436285449504,21.734,-29.154,-0.865
496,1436285449524,21.734,-29.154,-0.865
497,1436285449544,21.734,-29.154,-0.865
498,1436285449564,21.734,-29.154,-0.865
499,1436285449584,21.734,-29.154,-0.865
500,1436285449602,21.734,-29.154,-0.865
501,1436285449624,21.734,-29.154,-0.865
502,1436285449644,21.734,-29.154,-0.865
503,1436285449665,21.734,-29.154,-0.865
504,1436285449684,21.734,-29.154,-0.865
505,1436285449703,21.734,-29.154,-0.865
