id,attr_time,attr_light
1,1438343226028,0.0
2,1438343226046,0.0
3,1438343226069,0.0
4,1438343226087,0.0
5,1438343226108,0.0
6,1438343226129,0.0
7,1438343226145,0.0
8,1438343226165,0.0
9,1438343226185,0.0
10,1438343226208,0.0
11,1438343226229,0.0
12,1438343226246,0.0
13,1438343226268,0.0
14,1438343226285,0.0
15,1438343226305,0.0
16,1438343226325,0.0
17,1438343226348,0.0
18,1438343226369,0.0
19,1438343226393,0.0
20,1438343226412,0.0
21,1438343226427,0.0
22,1438343226445,0.0
23,1438343226467,0.0
24,1438343226487,0.0
25,1438343226507,0.0
26,1438343226527,0.0
27,1438343226549,0.0
28,1438343226568,0.0
29,1438343226589,0.0
30,1438343226605,0.0
31,1438343226628,0.0
32,1438343226648,0.0
33,1438343226669,0.0
34,1438343226689,0.0
35,1438343226710,0.0
36,1438343226739,0.0
37,1438343226760,0.0
38,1438343226766,0.0
39,1438343226786,0.0
40,1438343226806,0.0
41,1438343226826,0.0
42,1438343226849,0.0
43,1438343226867,0.0
44,1438343226887,0.0
45,1438343226908,0.0
46,1438343226930,0.0
47,1438343226950,0.0
48,1438343226968,0.0
49,1438343226987,0.0
50,1438343227021,0.0
51,1438343227026,0.0
52,1438343227046,0.0
53,1438343227070,0.0
54,1438343227086,0.0
55,1438343227107,0.0
56,1438343227126,0.0
57,1438343227147,0.0
58,1438343227178,0.0
59,1438343227187,0.0
60,1438343227206,0.0
61,1438343227229,0.0
62,1438343227248,0.0
63,1438343227270,0.0
64,1438343227290,0.0
65,1438343227310,0.0
66,1438343227330,0.0
67,1438343227350,0.0
68,1438343227370,0.0
69,1438343227387,0.0
70,1438343227410,0.0
71,1438343227430,0.0
72,1438343227451,0.0
73,1438343227467,0.0
74,1438343227490,0.0
75,1438343227510,0.0
76,1438343227530,0.0
77,1438343227550,0.0
78,1438343227568,0.0
79,1438343227590,0.0
80,1438343227610,0.0
81,1438343227628,0.0
82,1438343227650,0.0
83,1438343227671,0.0
84,1438343227691,0.0
85,1438343227710,0.0
86,1438343227731,0.0
87,1438343227780,0.0
88,1438343227781,0.0
89,1438343227789,0.0
90,1438343227807,0.0
91,1438343227829,0.0
92,1438343227849,0.0
93,1438343227867,0.0
94,1438343227888,0.0
95,1438343227907,0.0
96,1438343227931,0.0
97,1438343227953,0.0
98,1438343227968,0.0
99,1438343227993,0.0
100,1438343228010,0.0
101,1438343228031,0.0
102,1438343228050,0.0
103,1438343228071,0.0
104,1438343228091,0.0
105,1438343228111,0.0
106,1438343228131,0.0
107,1438343228151,0.0
108,1438343228171,0.0
109,1438343228187,0.0
110,1438343228211,0.0
111,1438343228231,0.0
112,1438343228250,0.0
113,1438343228273,0.0
114,1438343228322,0.0
115,1438343228323,0.0
116,1438343228327,0.0
117,1438343228348,0.0
118,1438343228368,0.0
119,1438343228388,0.0
120,1438343228408,0.0
121,1438343228428,0.0
122,1438343228471,0.0
123,1438343228472,0.0
124,1438343228492,0.0
125,1438343228510,0.0
126,1438343228528,0.0
127,1438343228548,0.0
128,1438343228568,0.0
129,1438343228588,0.0
130,1438343228619,0.0
131,1438343228628,0.0
132,1438343228648,0.0
133,1438343228667,0.0
134,1438343228687,0.0
135,1438343228707,0.0
136,1438343228727,0.0
137,1438343228750,0.0
138,1438343228772,0.0
139,1438343228792,0.0
140,1438343228812,0.0
141,1438343228832,0.0
142,1438343228852,0.0
143,1438343228872,0.0
144,1438343228888,0.0
145,1438343228912,0.0
146,1438343228932,0.0
147,1438343228951,0.0
148,1438343228967,0.0
149,1438343228989,0.0
150,1438343229012,0.0
151,1438343229032,0.0
152,1438343229053,0.0
153,1438343229072,0.0
154,1438343229087,0.0
155,1438343229109,0.0
156,1438343229129,0.0
157,1438343229150,0.0
158,1438343229170,0.0
159,1438343229220,0.0
160,1438343229221,0.0
161,1438343229239,0.0
162,1438343229249,0.0
163,1438343229272,0.0
164,1438343229290,6.0
165,1438343229311,6.0
166,1438343229328,0.0
167,1438343229348,0.0
168,1438343229368,0.0
169,1438343229392,0.0
170,1438343229410,0.0
171,1438343229429,0.0
172,1438343229452,0.0
173,1438343229471,0.0
174,1438343229492,0.0
175,1438343229512,0.0
176,1438343229532,0.0
177,1438343229552,0.0
178,1438343229573,0.0
179,1438343229591,0.0
180,1438343229612,0.0
181,1438343229630,0.0
182,1438343229652,0.0
183,1438343229672,0.0
184,1438343229693,0.0
185,1438343229712,0.0
186,1438343229731,0.0
187,1438343229752,0.0
188,1438343229772,0.0
189,1438343229792,0.0
190,1438343229812,0.0
191,1438343229833,0.0
192,1438343229851,0.0
193,1438343229870,0.0
194,1438343229890,0.0
195,1438343229909,0.0
196,1438343229961,0.0
197,1438343229962,0.0
198,1438343229981,0.0
199,1438343230005,0.0
200,1438343230009,0.0
201,1438343230040,0.0
202,1438343230052,0.0
203,1438343230069,0.0
204,1438343230102,0.0
205,1438343230109,0.0
206,1438343230130,0.0
207,1438343230150,0.0
208,1438343230169,0.0
209,1438343230189,0.0
210,1438343230209,0.0
211,1438343230229,0.0
212,1438343230250,0.0
213,1438343230269,0.0
214,1438343230289,0.0
215,1438343230309,0.0
216,1438343230329,0.0
217,1438343230350,0.0
218,1438343230371,0.0
219,1438343230389,0.0
220,1438343230409,0.0
221,1438343230429,0.0
222,1438343230450,0.0
223,1438343230470,0.0
224,1438343230495,0.0
225,1438343230511,0.0
226,1438343230530,0.0
227,1438343230550,0.0
228,1438343230570,0.0
229,1438343230589,0.0
230,1438343230610,0.0
231,1438343230630,0.0
232,1438343230653,0.0
233,1438343230716,0.0
234,1438343230717,0.0
235,1438343230718,0.0
236,1438343230730,0.0
237,1438343230751,0.0
238,1438343230771,0.0
239,1438343230790,0.0
240,1438343230810,0.0
241,1438343230830,0.0
242,1438343230854,0.0
243,1438343230875,0.0
244,1438343230890,0.0
245,1438343230910,0.0
246,1438343230933,0.0
247,1438343230953,0.0
248,1438343230973,0.0
249,1438343230993,0.0
250,1438343231013,0.0
251,1438343231033,0.0
252,1438343231053,0.0
253,1438343231073,0.0
254,1438343231093,0.0
255,1438343231111,0.0
256,1438343231135,0.0
257,1438343231153,0.0
258,1438343231172,0.0
259,1438343231191,0.0
260,1438343231212,0.0
261,1438343231235,0.0
262,1438343231255,0.0
263,1438343231275,0.0
264,1438343231294,0.0
265,1438343231312,0.0
266,1438343231331,0.0
267,1438343231352,0.0
268,1438343231372,0.0
269,1438343231393,0.0
270,1438343231439,0.0
271,1438343231440,0.0
272,1438343231459,0.0
273,1438343231470,0.0
274,1438343231492,0.0
275,1438343231510,0.0
276,1438343231531,0.0
277,1438343231554,0.0
278,1438343231572,0.0
279,1438343231591,0.0
280,1438343231612,0.0
281,1438343231632,0.0
282,1438343231652,0.0
283,1438343231674,0.0
284,1438343231694,0.0
285,1438343231714,0.0
286,1438343231734,0.0
287,1438343231754,0.0
288,1438343231775,0.0
289,1438343231794,0.0
290,1438343231814,0.0
291,1438343231832,0.0
292,1438343231855,0.0
293,1438343231874,0.0
294,1438343231897,0.0
295,1438343231913,0.0
296,1438343231931,0.0
297,1438343231955,0.0
298,1438343231975,0.0
299,1438343231995,0.0
300,1438343232015,0.0
301,1438343232034,0.0
302,1438343232062,0.0
303,1438343232071,0.0
304,1438343232091,0.0
305,1438343232111,0.0
306,1438343232146,0.0
307,1438343232154,0.0
308,1438343232171,0.0
309,1438343232191,0.0
310,1438343232211,0.0
311,1438343232231,0.0
312,1438343232252,0.0
313,1438343232271,0.0
314,1438343232292,0.0
315,1438343232318,0.0
316,1438343232332,0.0
317,1438343232353,0.0
318,1438343232375,0.0
319,1438343232395,0.0
320,1438343232414,0.0
321,1438343232435,0.0
322,1438343232455,0.0
323,1438343232475,0.0
324,1438343232495,0.0
325,1438343232514,0.0
326,1438343232535,0.0
327,1438343232552,0.0
328,1438343232574,0.0
329,1438343232595,0.0
330,1438343232613,0.0
331,1438343232633,0.0
332,1438343232654,0.0
333,1438343232674,0.0
334,1438343232694,0.0
335,1438343232716,0.0
336,1438343232735,0.0
337,1438343232755,0.0
338,1438343232773,0.0
339,1438343232793,0.0
340,1438343232812,0.0
341,1438343232834,0.0
342,1438343232898,0.0
343,1438343232899,0.0
344,1438343232900,0.0
345,1438343232913,0.0
346,1438343232937,0.0
347,1438343232963,0.0
348,1438343232976,0.0
349,1438343232993,0.0
350,1438343233017,0.0
351,1438343233043,0.0
352,1438343233053,0.0
353,1438343233073,0.0
354,1438343233093,0.0
355,1438343233115,0.0
356,1438343233135,0.0
357,1438343233155,0.0
358,1438343233174,0.0
359,1438343233195,0.0
360,1438343233214,0.0
361,1438343233235,0.0
362,1438343233255,0.0
363,1438343233275,0.0
364,1438343233295,0.0
365,1438343233314,0.0
366,1438343233336,0.0
367,1438343233355,0.0
368,1438343233375,0.0
369,1438343233395,0.0
370,1438343233414,0.0
371,1438343233432,0.0
372,1438343233453,0.0
373,1438343233474,0.0
374,1438343233495,0.0
375,1438343233515,0.0
376,1438343233535,0.0
377,1438343233553,0.0
378,1438343233573,0.0
379,1438343233596,0.0
380,1438343233665,0.0
381,1438343233666,0.0
382,1438343233667,0.0
383,1438343233675,0.0
384,1438343233693,0.0
385,1438343233730,0.0
386,1438343233732,0.0
387,1438343233752,0.0
388,1438343233773,0.0
389,1438343233794,0.0
390,1438343233813,0.0
391,1438343233834,0.0
392,1438343233854,0.0
393,1438343233875,0.0
394,1438343233897,0.0
395,1438343233914,0.0
396,1438343233935,0.0
397,1438343233954,0.0
398,1438343233976,0.0
399,1438343233994,0.0
400,1438343234015,0.0
401,1438343234036,0.0
402,1438343234055,0.0
403,1438343234074,0.0
404,1438343234094,0.0
405,1438343234115,0.0
406,1438343234134,0.0
407,1438343234155,0.0
408,1438343234175,0.0
409,1438343234196,0.0
410,1438343234214,0.0
411,1438343234235,0.0
412,1438343234254,0.0
413,1438343234274,0.0
414,1438343234295,0.0
415,1438343234315,0.0
416,1438343234336,0.0
417,1438343234384,0.0
418,1438343234385,0.0
419,1438343234405,0.0
420,1438343234413,0.0
421,1438343234433,0.0
422,1438343234472,0.0
423,1438343234475,0.0
424,1438343234493,0.0
425,1438343234513,0.0
426,1438343234540,0.0
427,1438343234554,0.0
428,1438343234574,0.0
429,1438343234593,0.0
430,1438343234614,0.0
431,1438343234635,0.0
432,1438343234655,0.0
433,1438343234677,0.0
434,1438343234697,0.0
435,1438343234714,0.0
436,1438343234735,0.0
437,1438343234757,0.0
438,1438343234777,0.0
439,1438343234797,0.0
440,1438343234814,0.0
441,1438343234835,0.0
442,1438343234857,0.0
443,1438343234877,0.0
444,1438343234897,0.0
445,1438343234915,0.0
446,1438343234936,0.0
447,1438343234962,0.0
448,1438343234978,0.0
449,1438343234998,0.0
450,1438343235015,0.0
451,1438343235037,0.0
452,1438343235055,0.0
453,1438343235075,0.0
454,1438343235095,0.0
455,1438343235114,0.0
456,1438343235159,0.0
457,1438343235160,0.0
458,1438343235178,0.0
459,1438343235197,0.0
460,1438343235214,0.0
461,1438343235253,0.0
462,1438343235256,0.0
463,1438343235274,0.0
464,1438343235294,0.0
465,1438343235315,0.0
466,1438343235334,0.0
467,1438343235356,0.0
468,1438343235376,0.0
469,1438343235397,0.0
470,1438343235415,0.0
471,1438343235436,0.0
472,1438343235458,0.0
473,1438343235478,0.0
474,1438343235498,0.0
475,1438343235514,0.0
476,1438343235535,0.0
477,1438343235557,0.0
478,1438343235582,0.0
479,1438343235595,0.0
480,1438343235614,0.0
481,1438343235635,0.0
482,1438343235655,0.0
483,1438343235677,0.0
484,1438343235695,0.0
485,1438343235715,0.0
486,1438343235735,0.0
487,1438343235758,0.0
488,1438343235775,0.0
489,1438343235795,0.0
490,1438343235817,0.0
491,1438343235845,0.0
492,1438343235856,0.0
493,1438343235907,0.0
494,1438343235908,0.0
495,1438343235937,0.0
496,1438343235938,0.0
497,1438343235955,0.0
498,1438343235977,0.0
499,1438343235995,0.0
500,1438343236015,0.0
501,1438343236035,0.0
502,1438343236055,0.0
503,1438343236076,0.0
504,1438343236096,0.0
505,1438343236118,0.0
506,1438343236136,0.0
507,1438343236159,0.0
508,1438343236177,0.0
509,1438343236198,0.0
510,1438343236215,0.0
511,1438343236237,0.0
512,1438343236258,0.0
513,1438343236277,0.0
514,1438343236296,0.0
515,1438343236316,0.0
516,1438343236337,0.0
517,1438343236362,0.0
518,1438343236377,0.0
519,1438343236401,0.0
520,1438343236416,0.0
521,1438343236437,0.0
522,1438343236458,0.0
523,1438343236475,0.0
524,1438343236496,0.0
525,1438343236516,0.0
526,1438343236538,0.0
527,1438343236558,0.0
528,1438343236578,0.0
529,1438343236596,0.0
530,1438343236621,0.0
531,1438343236673,0.0
532,1438343236674,0.0
533,1438343236677,0.0
534,1438343236698,0.0
535,1438343236716,0.0
536,1438343236739,0.0
537,1438343236755,0.0
538,1438343236777,0.0
539,1438343236795,0.0
540,1438343236817,0.0
541,1438343236835,0.0
542,1438343236858,0.0
543,1438343236877,0.0
544,1438343236897,0.0
545,1438343236916,0.0
546,1438343236938,0.0
547,1438343236960,0.0
548,1438343236978,0.0
549,1438343236999,0.0
550,1438343237018,0.0
551,1438343237036,0.0
552,1438343237066,0.0
553,1438343237100,0.0
554,1438343237101,0.0
555,1438343237116,0.0
556,1438343237136,0.0
557,1438343237156,0.0
558,1438343237178,0.0
559,1438343237198,0.0
560,1438343237217,0.0
561,1438343237238,0.0
562,1438343237256,0.0
563,1438343237278,0.0
564,1438343237296,0.0
565,1438343237319,0.0
566,1438343237337,0.0
567,1438343237388,0.0
568,1438343237389,0.0
569,1438343237402,0.0
570,1438343237417,0.0
571,1438343237437,0.0
572,1438343237456,0.0
573,1438343237476,0.0
574,1438343237498,0.0
575,1438343237518,0.0
576,1438343237538,0.0
577,1438343237556,0.0
578,1438343237579,0.0
579,1438343237597,0.0
580,1438343237619,0.0
581,1438343237638,0.0
582,1438343237659,0.0
583,1438343237680,0.0
584,1438343237700,0.0
585,1438343237720,0.0
586,1438343237740,0.0
587,1438343237760,0.0
588,1438343237781,0.0
589,1438343237797,0.0
590,1438343237820,0.0
591,1438343237841,0.0
592,1438343237869,0.0
593,1438343237879,0.0
594,1438343237897,0.0
595,1438343237917,0.0
596,1438343237937,0.0
597,1438343237959,0.0
598,1438343237980,0.0
599,1438343238001,0.0
600,1438343238020,0.0
601,1438343238041,0.0
602,1438343238060,0.0
603,1438343238110,0.0
604,1438343238111,0.0
605,1438343238119,0.0
606,1438343238137,0.0
607,1438343238160,0.0
608,1438343238178,0.0
609,1438343238197,0.0
610,1438343238217,0.0
611,1438343238240,0.0
612,1438343238258,0.0
613,1438343238279,0.0
614,1438343238298,0.0
615,1438343238317,0.0
616,1438343238337,0.0
617,1438343238360,0.0
618,1438343238380,0.0
619,1438343238400,0.0
620,1438343238420,0.0
621,1438343238440,0.0
622,1438343238460,0.0
623,1438343238481,0.0
624,1438343238501,0.0
625,1438343238521,0.0
626,1438343238539,0.0
627,1438343238561,0.0
628,1438343238581,0.0
629,1438343238600,0.0
630,1438343238620,0.0
631,1438343238640,0.0
632,1438343238660,0.0
633,1438343238681,0.0
634,1438343238701,0.0
635,1438343238719,0.0
636,1438343238742,0.0
637,1438343238761,0.0
638,1438343238780,0.0
639,1438343238800,0.0
640,1438343238864,0.0
641,1438343238865,0.0
642,1438343238866,0.0
643,1438343238877,0.0
644,1438343238905,0.0
645,1438343238920,0.0
646,1438343238938,0.0
647,1438343238961,0.0
648,1438343238979,0.0
649,1438343239007,0.0
650,1438343239021,0.0
651,1438343239046,0.0
652,1438343239059,0.0
653,1438343239081,0.0
654,1438343239101,0.0
655,1438343239121,0.0
656,1438343239141,0.0
657,1438343239161,0.0
658,1438343239181,0.0
659,1438343239202,0.0
660,1438343239221,0.0
661,1438343239241,0.0
662,1438343239261,0.0
663,1438343239279,0.0
664,1438343239301,0.0
665,1438343239318,0.0
666,1438343239339,0.0
667,1438343239358,0.0
668,1438343239378,0.0
669,1438343239399,0.0
670,1438343239421,0.0
671,1438343239442,0.0
672,1438343239460,0.0
673,1438343239480,0.0
674,1438343239500,0.0
675,1438343239519,0.0
676,1438343239540,0.0
677,1438343239606,0.0
678,1438343239607,0.0
679,1438343239608,0.0
680,1438343239618,0.0
681,1438343239642,0.0
682,1438343239661,0.0
683,1438343239680,0.0
684,1438343239701,0.0
685,1438343239718,0.0
686,1438343239742,0.0
687,1438343239761,0.0
688,1438343239779,0.0
689,1438343239799,0.0
690,1438343239822,0.0
691,1438343239842,0.0
692,1438343239862,0.0
693,1438343239882,0.0
694,1438343239899,0.0
695,1438343239920,0.0
696,1438343239939,0.0
697,1438343239966,0.0
698,1438343239980,0.0
699,1438343240002,0.0
700,1438343240022,0.0
701,1438343240044,0.0
702,1438343240064,0.0
703,1438343240083,0.0
704,1438343240102,0.0
705,1438343240122,0.0
706,1438343240138,0.0
707,1438343240161,0.0
708,1438343240185,0.0
709,1438343240205,0.0
710,1438343240225,0.0
711,1438343240241,0.0
712,1438343240261,0.0
713,1438343240313,0.0
714,1438343240314,0.0
715,1438343240329,0.0
716,1438343240339,0.0
717,1438343240361,0.0
718,1438343240380,0.0
719,1438343240399,0.0
720,1438343240422,0.0
721,1438343240440,0.0
722,1438343240460,0.0
723,1438343240480,0.0
724,1438343240502,0.0
725,1438343240520,0.0
726,1438343240542,0.0
727,1438343240562,0.0
728,1438343240582,0.0
729,1438343240602,0.0
730,1438343240622,0.0
731,1438343240641,0.0
732,1438343240662,0.0
733,1438343240682,0.0
734,1438343240702,0.0
735,1438343240720,0.0
736,1438343240743,0.0
737,1438343240762,0.0
738,1438343240781,0.0
739,1438343240801,0.0
740,1438343240822,0.0
741,1438343240843,0.0
742,1438343240863,0.0
743,1438343240883,0.0
744,1438343240904,0.0
745,1438343240923,0.0
746,1438343240943,0.0
747,1438343241050,0.0
748,1438343241051,0.0
749,1438343241052,0.0
750,1438343241053,0.0
751,1438343241054,0.0
752,1438343241065,0.0
753,1438343241096,0.0
754,1438343241101,0.0
755,1438343241120,0.0
756,1438343241142,0.0
757,1438343241160,0.0
758,1438343241181,0.0
759,1438343241206,0.0
760,1438343241221,0.0
761,1438343241240,0.0
762,1438343241263,0.0
763,1438343241283,0.0
764,1438343241303,0.0
765,1438343241324,0.0
766,1438343241343,0.0
767,1438343241363,0.0
768,1438343241383,0.0
769,1438343241403,0.0
770,1438343241423,0.0
771,1438343241441,0.0
772,1438343241463,0.0
773,1438343241483,0.0
774,1438343241503,0.0
775,1438343241522,0.0
776,1438343241543,0.0
777,1438343241563,0.0
778,1438343241583,0.0
779,1438343241602,0.0
780,1438343241623,0.0
781,1438343241641,0.0
782,1438343241662,0.0
783,1438343241682,0.0
784,1438343241701,0.0
785,1438343241723,0.0
786,1438343241768,0.0
787,1438343241769,0.0
788,1438343241787,0.0
789,1438343241814,0.0
790,1438343241829,0.0
791,1438343241842,0.0
792,1438343241875,0.0
793,1438343241947,0.0
794,1438343241948,0.0
795,1438343241949,0.0
796,1438343241950,0.0
797,1438343242045,0.0
798,1438343242046,0.0
799,1438343242047,0.0
800,1438343242048,0.0
801,1438343242049,0.0
802,1438343242061,0.0
803,1438343242081,0.0
804,1438343242101,0.0
805,1438343242121,0.0
806,1438343242143,0.0
807,1438343242161,0.0
808,1438343242181,0.0
809,1438343242201,0.0
810,1438343242221,0.0
811,1438343242243,0.0
812,1438343242261,0.0
813,1438343242281,0.0
814,1438343242301,0.0
815,1438343242322,0.0
816,1438343242340,0.0
817,1438343242361,0.0
818,1438343242381,0.0
819,1438343242404,0.0
820,1438343242424,0.0
821,1438343242446,0.0
822,1438343242464,0.0
823,1438343242482,0.0
824,1438343242502,0.0
825,1438343242522,0.0
826,1438343242543,0.0
827,1438343242562,0.0
828,1438343242580,0.0
829,1438343242601,0.0
830,1438343242621,0.0
831,1438343242643,0.0
832,1438343242664,0.0
833,1438343242683,0.0
834,1438343242701,0.0
835,1438343242722,0.0
836,1438343242745,0.0
837,1438343242764,0.0
838,1438343242783,0.0
839,1438343242806,0.0
840,1438343242826,0.0
841,1438343242846,0.0
842,1438343242864,0.0
843,1438343242884,0.0
844,1438343242904,0.0
845,1438343242922,0.0
846,1438343242960,0.0
847,1438343242963,0.0
848,1438343242984,0.0
849,1438343243002,0.0
850,1438343243022,0.0
851,1438343243042,0.0
852,1438343243067,0.0
853,1438343243098,0.0
854,1438343243103,0.0
855,1438343243122,0.0
856,1438343243142,0.0
857,1438343243162,0.0
858,1438343243182,0.0
859,1438343243205,0.0
860,1438343243223,0.0
861,1438343243271,0.0
862,1438343243272,0.0
863,1438343243283,0.0
864,1438343243303,0.0
865,1438343243322,0.0
866,1438343243342,0.0
867,1438343243362,0.0
868,1438343243384,0.0
869,1438343243403,0.0
870,1438343243422,0.0
871,1438343243444,0.0
872,1438343243464,0.0
873,1438343243484,0.0
874,1438343243505,0.0
875,1438343243525,0.0
876,1438343243545,0.0
877,1438343243565,0.0
878,1438343243585,0.0
879,1438343243602,0.0
880,1438343243625,0.0
881,1438343243645,0.0
882,1438343243665,0.0
883,1438343243685,0.0
884,1438343243705,0.0
885,1438343243723,0.0
886,1438343243742,0.0
887,1438343243762,0.0
888,1438343243785,0.0
889,1438343243808,0.0
890,1438343243825,0.0
891,1438343243846,0.0
892,1438343243863,0.0
893,1438343243882,0.0
894,1438343243903,0.0
895,1438343243923,0.0
896,1438343244027,0.0
897,1438343244028,0.0
898,1438343244029,0.0
899,1438343244030,0.0
900,1438343244031,0.0
901,1438343244044,0.0
902,1438343244068,0.0
903,1438343244083,0.0
904,1438343244103,0.0
905,1438343244125,0.0
906,1438343244144,0.0
907,1438343244163,0.0
908,1438343244183,0.0
909,1438343244204,0.0
910,1438343244225,0.0
911,1438343244246,0.0
912,1438343244266,0.0
