id,attr_time,attr_light
1,1435995489024,117.0
2,1435995489043,117.0
3,1435995489063,117.0
4,1435995489085,117.0
5,1435995489103,117.0
6,1435995489123,117.0
7,1435995489149,117.0
8,1435995489163,117.0
9,1435995489183,117.0
10,1435995489206,117.0
11,1435995489223,116.0
12,1435995489243,116.0
13,1435995489265,116.0
14,1435995489283,117.0
15,1435995489303,117.0
16,1435995489325,116.0
17,1435995489349,116.0
18,1435995489366,116.0
19,1435995489390,116.0
20,1435995489406,116.0
21,1435995489423,116.0
22,1435995489445,116.0
23,1435995489463,116.0
24,1435995489483,116.0
25,1435995489505,116.0
26,1435995489523,116.0
27,1435995489543,116.0
28,1435995489565,116.0
29,1435995489583,116.0
30,1435995489604,116.0
31,1435995489625,116.0
32,1435995489643,116.0
33,1435995489663,117.0
34,1435995489685,117.0
35,1435995489704,117.0
36,1435995489723,116.0
37,1435995489745,116.0
38,1435995489763,116.0
39,1435995489783,116.0
40,1435995489806,116.0
41,1435995489823,116.0
42,1435995489843,116.0
43,1435995489865,116.0
44,1435995489883,116.0
45,1435995489906,116.0
46,1435995489932,116.0
47,1435995489943,116.0
48,1435995489963,116.0
49,1435995489985,116.0
50,1435995490003,116.0
51,1435995490023,116.0
52,1435995490046,116.0
53,1435995490064,116.0
54,1435995490084,116.0
55,1435995490106,115.0
56,1435995490123,115.0
57,1435995490144,115.0
58,1435995490166,115.0
59,1435995490184,115.0
60,1435995490203,115.0
61,1435995490225,115.0
62,1435995490244,115.0
63,1435995490264,115.0
64,1435995490288,115.0
65,1435995490304,115.0
66,1435995490324,115.0
67,1435995490346,115.0
68,1435995490364,115.0
69,1435995490386,115.0
70,1435995490406,115.0
71,1435995490424,115.0
72,1435995490444,115.0
73,1435995490466,115.0
74,1435995490484,115.0
75,1435995490504,115.0
76,1435995490526,115.0
77,1435995490544,115.0
78,1435995490564,115.0
79,1435995490586,115.0
80,1435995490604,115.0
81,1435995490624,115.0
82,1435995490646,115.0
83,1435995490664,115.0
84,1435995490684,115.0
85,1435995490712,115.0
86,1435995490724,115.0
87,1435995490744,116.0
88,1435995490768,116.0
89,1435995490785,116.0
90,1435995490805,116.0
91,1435995490826,116.0
92,1435995490844,116.0
93,1435995490864,116.0
94,1435995490886,116.0
95,1435995490905,116.0
96,1435995490924,116.0
97,1435995490947,116.0
98,1435995490964,116.0
99,1435995490986,116.0
100,1435995491008,116.0
101,1435995491030,116.0
102,1435995491047,116.0
103,1435995491068,116.0
104,1435995491087,117.0
105,1435995491105,117.0
106,1435995491127,116.0
107,1435995491146,116.0
108,1435995491165,116.0
109,1435995491187,117.0
110,1435995491209,117.0
111,1435995491225,117.0
112,1435995491247,117.0
113,1435995491267,116.0
114,1435995491285,116.0
115,1435995491307,116.0
116,1435995491325,116.0
117,1435995491345,116.0
118,1435995491368,116.0
119,1435995491385,116.0
120,1435995491419,116.0
121,1435995491427,116.0
122,1435995491445,116.0
123,1435995491467,116.0
124,1435995491487,116.0
125,1435995491505,116.0
126,1435995491525,116.0
127,1435995491547,116.0
128,1435995491566,116.0
129,1435995491585,116.0
130,1435995491608,116.0
131,1435995491627,117.0
132,1435995491645,117.0
133,1435995491667,117.0
134,1435995491685,117.0
135,1435995491707,117.0
136,1435995491727,117.0
137,1435995491746,117.0
138,1435995491765,117.0
139,1435995491787,117.0
140,1435995491805,117.0
141,1435995491825,117.0
142,1435995491849,117.0
143,1435995491866,117.0
144,1435995491886,117.0
145,1435995491907,117.0
146,1435995491925,117.0
147,1435995491945,117.0
148,1435995491967,117.0
149,1435995491985,118.0
150,1435995492005,118.0
151,1435995492028,118.0
152,1435995492045,118.0
153,1435995492066,119.0
154,1435995492087,119.0
155,1435995492105,120.0
156,1435995492126,120.0
157,1435995492151,120.0
158,1435995492167,120.0
159,1435995492186,120.0
160,1435995492216,121.0
161,1435995492226,121.0
162,1435995492247,121.0
163,1435995492276,121.0
164,1435995492286,121.0
165,1435995492306,121.0
166,1435995492328,122.0
167,1435995492347,122.0
168,1435995492366,122.0
169,1435995492388,122.0
170,1435995492406,123.0
171,1435995492426,122.0
172,1435995492449,122.0
173,1435995492466,122.0
174,1435995492487,122.0
175,1435995492509,122.0
176,1435995492527,122.0
177,1435995492547,122.0
178,1435995492570,122.0
179,1435995492587,122.0
180,1435995492607,122.0
181,1435995492629,123.0
182,1435995492646,124.0
183,1435995492667,124.0
184,1435995492689,125.0
185,1435995492707,125.0
186,1435995492727,125.0
187,1435995492748,125.0
188,1435995492767,123.0
189,1435995492788,123.0
190,1435995492808,120.0
191,1435995492831,117.0
192,1435995492848,117.0
193,1435995492869,113.0
194,1435995492886,113.0
195,1435995492908,108.0
196,1435995492931,108.0
197,1435995492946,105.0
198,1435995492967,105.0
199,1435995492989,100.0
200,1435995493007,100.0
201,1435995493027,98.0
202,1435995493050,97.0
203,1435995493067,97.0
204,1435995493087,100.0
205,1435995493113,100.0
206,1435995493129,108.0
207,1435995493148,108.0
208,1435995493168,118.0
209,1435995493187,118.0
210,1435995493207,124.0
211,1435995493228,124.0
212,1435995493247,124.0
213,1435995493267,115.0
214,1435995493287,115.0
215,1435995493307,120.0
216,1435995493327,120.0
217,1435995493353,126.0
218,1435995493367,126.0
219,1435995493388,128.0
220,1435995493409,128.0
221,1435995493427,125.0
222,1435995493450,125.0
223,1435995493479,119.0
224,1435995493516,107.0
225,1435995493524,107.0
226,1435995493527,104.0
227,1435995493548,104.0
228,1435995493567,103.0
229,1435995493587,103.0
230,1435995493607,101.0
231,1435995493628,101.0
232,1435995493648,107.0
233,1435995493667,107.0
234,1435995493688,104.0
235,1435995493708,98.0
236,1435995493728,98.0
237,1435995493747,95.0
238,1435995493767,95.0
239,1435995493787,93.0
240,1435995493807,93.0
241,1435995493827,91.0
242,1435995493847,91.0
243,1435995493867,93.0
244,1435995493888,96.0
245,1435995493907,96.0
246,1435995493927,103.0
247,1435995493948,103.0
248,1435995493967,104.0
249,1435995493988,104.0
250,1435995494014,100.0
251,1435995494029,100.0
252,1435995494051,106.0
253,1435995494068,106.0
254,1435995494087,113.0
255,1435995494109,113.0
256,1435995494128,113.0
257,1435995494147,117.0
258,1435995494167,117.0
259,1435995494188,117.0
260,1435995494207,117.0
261,1435995494228,116.0
262,1435995494248,116.0
263,1435995494267,118.0
264,1435995494287,118.0
265,1435995494312,114.0
266,1435995494329,109.0
267,1435995494349,109.0
268,1435995494369,101.0
269,1435995494393,101.0
270,1435995494408,89.0
271,1435995494428,89.0
272,1435995494448,82.0
273,1435995494469,82.0
274,1435995494489,80.0
275,1435995494511,80.0
276,1435995494529,77.0
277,1435995494549,77.0
278,1435995494572,77.0
279,1435995494597,81.0
280,1435995494610,81.0
281,1435995494628,84.0
282,1435995494648,84.0
283,1435995494668,87.0
284,1435995494688,87.0
285,1435995494709,84.0
286,1435995494728,81.0
287,1435995494748,81.0
288,1435995494768,83.0
289,1435995494788,83.0
290,1435995494808,96.0
291,1435995494828,96.0
292,1435995494848,90.0
293,1435995494868,90.0
294,1435995494888,81.0
295,1435995494909,81.0
296,1435995494928,75.0
297,1435995494949,66.0
298,1435995494969,66.0
299,1435995494993,64.0
300,1435995495008,64.0
301,1435995495031,61.0
302,1435995495051,61.0
303,1435995495069,64.0
304,1435995495090,64.0
305,1435995495112,75.0
306,1435995495128,75.0
307,1435995495149,71.0
308,1435995495170,70.0
309,1435995495192,70.0
310,1435995495213,66.0
311,1435995495228,66.0
312,1435995495248,65.0
313,1435995495269,65.0
314,1435995495292,66.0
315,1435995495309,66.0
316,1435995495329,71.0
317,1435995495349,71.0
318,1435995495369,75.0
319,1435995495390,78.0
320,1435995495410,78.0
321,1435995495429,74.0
322,1435995495450,74.0
323,1435995495469,70.0
324,1435995495490,70.0
325,1435995495510,70.0
326,1435995495529,70.0
327,1435995495549,81.0
328,1435995495569,91.0
329,1435995495595,91.0
330,1435995495609,97.0
331,1435995495630,97.0
332,1435995495649,100.0
333,1435995495671,100.0
334,1435995495690,103.0
335,1435995495709,103.0
336,1435995495730,102.0
337,1435995495750,102.0
338,1435995495772,98.0
339,1435995495790,92.0
340,1435995495810,92.0
341,1435995495829,80.0
342,1435995495849,80.0
343,1435995495871,74.0
344,1435995495889,74.0
345,1435995495912,71.0
346,1435995495930,71.0
347,1435995495949,68.0
348,1435995495971,68.0
349,1435995495991,66.0
350,1435995496011,67.0
351,1435995496030,67.0
352,1435995496051,72.0
353,1435995496071,72.0
354,1435995496090,77.0
355,1435995496111,77.0
356,1435995496132,76.0
357,1435995496150,76.0
358,1435995496171,71.0
359,1435995496191,71.0
360,1435995496211,66.0
361,1435995496231,61.0
362,1435995496249,61.0
363,1435995496270,68.0
364,1435995496291,68.0
365,1435995496310,81.0
366,1435995496347,81.0
367,1435995496350,87.0
368,1435995496370,87.0
369,1435995496390,91.0
370,1435995496410,93.0
371,1435995496429,93.0
372,1435995496449,92.0
373,1435995496470,92.0
374,1435995496489,89.0
375,1435995496509,89.0
376,1435995496530,86.0
377,1435995496549,86.0
378,1435995496570,76.0
379,1435995496591,76.0
380,1435995496610,68.0
381,1435995496630,70.0
382,1435995496654,70.0
383,1435995496669,67.0
384,1435995496689,67.0
385,1435995496710,66.0
386,1435995496729,66.0
387,1435995496750,66.0
388,1435995496770,66.0
389,1435995496790,69.0
390,1435995496810,69.0
391,1435995496830,75.0
392,1435995496850,78.0
393,1435995496870,78.0
394,1435995496895,77.0
395,1435995496912,77.0
396,1435995496931,70.0
397,1435995496953,70.0
398,1435995496970,60.0
399,1435995496992,60.0
400,1435995497011,68.0
401,1435995497030,68.0
402,1435995497051,81.0
403,1435995497071,85.0
404,1435995497090,85.0
405,1435995497111,78.0
406,1435995497131,78.0
407,1435995497152,62.0
408,1435995497170,62.0
409,1435995497191,52.0
410,1435995497211,52.0
411,1435995497231,56.0
412,1435995497253,55.0
413,1435995497271,55.0
414,1435995497292,69.0
415,1435995497311,69.0
416,1435995497330,72.0
417,1435995497351,72.0
418,1435995497372,69.0
419,1435995497390,69.0
420,1435995497411,68.0
421,1435995497431,68.0
422,1435995497451,65.0
423,1435995497495,63.0
424,1435995497496,63.0
425,1435995497511,64.0
426,1435995497532,64.0
427,1435995497553,70.0
428,1435995497571,70.0
429,1435995497593,74.0
430,1435995497611,74.0
431,1435995497630,74.0
432,1435995497651,74.0
433,1435995497671,67.0
434,1435995497691,63.0
435,1435995497711,63.0
436,1435995497732,64.0
437,1435995497751,64.0
438,1435995497771,76.0
439,1435995497793,76.0
440,1435995497811,79.0
441,1435995497833,79.0
442,1435995497854,74.0
443,1435995497873,74.0
444,1435995497892,69.0
445,1435995497912,57.0
446,1435995497931,57.0
447,1435995497953,53.0
448,1435995497973,53.0
449,1435995497991,54.0
450,1435995498012,54.0
451,1435995498032,56.0
452,1435995498059,56.0
453,1435995498074,66.0
454,1435995498093,66.0
455,1435995498111,64.0
456,1435995498132,61.0
457,1435995498152,61.0
458,1435995498171,60.0
459,1435995498192,60.0
460,1435995498212,59.0
461,1435995498237,59.0
462,1435995498253,58.0
463,1435995498273,58.0
464,1435995498292,62.0
465,1435995498312,67.0
466,1435995498333,67.0
467,1435995498352,70.0
468,1435995498372,70.0
469,1435995498393,67.0
470,1435995498412,67.0
471,1435995498432,64.0
472,1435995498453,64.0
473,1435995498472,59.0
474,1435995498492,59.0
475,1435995498513,61.0
476,1435995498532,73.0
477,1435995498553,73.0
478,1435995498572,76.0
479,1435995498592,76.0
480,1435995498612,74.0
481,1435995498634,74.0
482,1435995498652,71.0
483,1435995498718,71.0
484,1435995498719,62.0
485,1435995498720,62.0
486,1435995498732,52.0
487,1435995498753,52.0
488,1435995498772,52.0
489,1435995498792,56.0
490,1435995498813,56.0
491,1435995498832,66.0
492,1435995498854,66.0
493,1435995498873,64.0
494,1435995498892,64.0
495,1435995498913,64.0
496,1435995498933,64.0
497,1435995498952,61.0
498,1435995498973,60.0
499,1435995498993,60.0
500,1435995499016,58.0
501,1435995499033,58.0
502,1435995499053,60.0
503,1435995499073,60.0
504,1435995499093,65.0
505,1435995499116,65.0
506,1435995499135,68.0
507,1435995499153,68.0
508,1435995499173,68.0
509,1435995499193,63.0
510,1435995499213,63.0
511,1435995499234,58.0
512,1435995499254,58.0
513,1435995499274,64.0
514,1435995499293,64.0
515,1435995499312,71.0
516,1435995499333,71.0
517,1435995499353,73.0
518,1435995499373,73.0
519,1435995499393,73.0
520,1435995499414,68.0
521,1435995499433,68.0
522,1435995499453,59.0
523,1435995499474,59.0
524,1435995499493,53.0
525,1435995499513,53.0
526,1435995499534,55.0
527,1435995499557,55.0
528,1435995499574,63.0
529,1435995499594,76.0
530,1435995499618,76.0
531,1435995499634,72.0
532,1435995499653,72.0
533,1435995499673,71.0
534,1435995499694,71.0
535,1435995499713,67.0
536,1435995499732,67.0
537,1435995499753,64.0
538,1435995499773,64.0
539,1435995499794,62.0
540,1435995499821,61.0
541,1435995499836,61.0
542,1435995499853,63.0
543,1435995499873,63.0
544,1435995499896,64.0
545,1435995499913,64.0
546,1435995499933,64.0
547,1435995499954,64.0
548,1435995499973,64.0
549,1435995499994,59.0
550,1435995500014,59.0
551,1435995500033,55.0
552,1435995500053,55.0
553,1435995500074,64.0
554,1435995500094,64.0
555,1435995500113,68.0
556,1435995500134,68.0
557,1435995500153,70.0
558,1435995500173,70.0
559,1435995500195,67.0
560,1435995500214,60.0
561,1435995500234,60.0
562,1435995500254,56.0
563,1435995500274,56.0
564,1435995500293,55.0
565,1435995500315,55.0
566,1435995500337,54.0
567,1435995500354,54.0
568,1435995500375,52.0
569,1435995500395,52.0
570,1435995500414,62.0
571,1435995500435,62.0
572,1435995500453,62.0
573,1435995500474,62.0
574,1435995500497,62.0
575,1435995500513,59.0
576,1435995500534,59.0
577,1435995500554,57.0
578,1435995500574,57.0
579,1435995500595,56.0
580,1435995500614,56.0
581,1435995500634,56.0
582,1435995500654,58.0
583,1435995500674,58.0
584,1435995500695,60.0
585,1435995500714,60.0
586,1435995500735,62.0
587,1435995500754,62.0
588,1435995500774,62.0
589,1435995500800,62.0
590,1435995500814,56.0
591,1435995500834,58.0
592,1435995500854,58.0
593,1435995500874,64.0
594,1435995500894,64.0
595,1435995500915,66.0
596,1435995500934,66.0
597,1435995500954,64.0
598,1435995500975,64.0
599,1435995500995,60.0
600,1435995501016,60.0
601,1435995501035,54.0
602,1435995501054,51.0
603,1435995501074,51.0
604,1435995501095,52.0
605,1435995501114,52.0
606,1435995501134,48.0
607,1435995501157,48.0
608,1435995501176,53.0
609,1435995501194,53.0
610,1435995501215,60.0
611,1435995501234,60.0
612,1435995501256,62.0
613,1435995501275,60.0
614,1435995501294,60.0
615,1435995501314,57.0
616,1435995501335,57.0
617,1435995501356,56.0
618,1435995501374,56.0
619,1435995501395,55.0
620,1435995501428,55.0
621,1435995501435,57.0
622,1435995501456,57.0
623,1435995501474,59.0
624,1435995501494,61.0
625,1435995501515,61.0
626,1435995501534,62.0
627,1435995501571,62.0
628,1435995501581,60.0
629,1435995501595,60.0
630,1435995501615,56.0
631,1435995501635,56.0
632,1435995501656,62.0
633,1435995501674,62.0
634,1435995501695,67.0
635,1435995501715,70.0
636,1435995501735,70.0
637,1435995501758,71.0
638,1435995501775,71.0
639,1435995501795,64.0
640,1435995501815,64.0
641,1435995501835,56.0
642,1435995501856,56.0
643,1435995501877,52.0
644,1435995501895,52.0
645,1435995501915,52.0
646,1435995501935,51.0
647,1435995501955,51.0
648,1435995501975,56.0
649,1435995501996,56.0
650,1435995502016,65.0
651,1435995502037,65.0
652,1435995502062,65.0
653,1435995502075,65.0
654,1435995502095,63.0
655,1435995502116,60.0
656,1435995502145,60.0
657,1435995502160,59.0
658,1435995502176,59.0
659,1435995502195,60.0
660,1435995502215,60.0
661,1435995502238,62.0
662,1435995502256,62.0
663,1435995502275,63.0
664,1435995502296,63.0
665,1435995502315,65.0
666,1435995502336,65.0
667,1435995502357,65.0
668,1435995502376,62.0
669,1435995502397,62.0
670,1435995502416,58.0
671,1435995502435,58.0
672,1435995502457,60.0
673,1435995502477,60.0
674,1435995502496,66.0
675,1435995502516,66.0
676,1435995502536,70.0
677,1435995502555,73.0
678,1435995502576,73.0
679,1435995502596,69.0
680,1435995502615,69.0
681,1435995502639,62.0
682,1435995502660,62.0
683,1435995502676,57.0
684,1435995502697,57.0
685,1435995502722,54.0
686,1435995502740,51.0
687,1435995502761,51.0
688,1435995502777,53.0
689,1435995502796,53.0
690,1435995502816,65.0
691,1435995502837,65.0
692,1435995502856,68.0
693,1435995502876,68.0
694,1435995502897,67.0
695,1435995502916,67.0
696,1435995502936,65.0
697,1435995502957,64.0
698,1435995502976,64.0
699,1435995502996,63.0
700,1435995503018,63.0
701,1435995503036,64.0
702,1435995503061,64.0
703,1435995503077,65.0
704,1435995503096,65.0
705,1435995503118,68.0
706,1435995503137,68.0
707,1435995503156,68.0
708,1435995503176,68.0
709,1435995503197,68.0
710,1435995503216,64.0
711,1435995503237,64.0
712,1435995503257,67.0
713,1435995503276,67.0
714,1435995503297,73.0
715,1435995503318,73.0
716,1435995503340,77.0
717,1435995503356,77.0
718,1435995503377,80.0
719,1435995503397,77.0
720,1435995503417,77.0
721,1435995503438,71.0
722,1435995503457,71.0
723,1435995503477,62.0
724,1435995503497,62.0
725,1435995503517,60.0
726,1435995503536,60.0
727,1435995503557,59.0
728,1435995503576,59.0
729,1435995503597,62.0
730,1435995503619,73.0
731,1435995503637,73.0
732,1435995503657,71.0
733,1435995503678,71.0
734,1435995503697,70.0
735,1435995503716,70.0
736,1435995503737,66.0
737,1435995503757,66.0
738,1435995503777,64.0
739,1435995503797,64.0
740,1435995503816,64.0
741,1435995503837,64.0
742,1435995503857,64.0
743,1435995503877,67.0
744,1435995503897,67.0
745,1435995503922,70.0
746,1435995503936,70.0
747,1435995503957,69.0
748,1435995503977,69.0
749,1435995503997,69.0
750,1435995504017,64.0
751,1435995504037,64.0
752,1435995504057,68.0
753,1435995504077,68.0
754,1435995504099,76.0
755,1435995504117,76.0
756,1435995504137,81.0
757,1435995504158,81.0
758,1435995504177,82.0
759,1435995504199,82.0
760,1435995504218,77.0
761,1435995504237,72.0
762,1435995504257,72.0
763,1435995504278,66.0
764,1435995504297,66.0
765,1435995504318,63.0
766,1435995504338,63.0
767,1435995504357,62.0
768,1435995504377,62.0
769,1435995504398,75.0
770,1435995504417,75.0
771,1435995504438,75.0
772,1435995504458,76.0
773,1435995504477,76.0
774,1435995504499,70.0
775,1435995504518,70.0
776,1435995504538,66.0
777,1435995504558,66.0
778,1435995504581,64.0
779,1435995504598,64.0
780,1435995504618,64.0
781,1435995504640,68.0
782,1435995504657,68.0
783,1435995504678,73.0
784,1435995504698,73.0
785,1435995504721,71.0
786,1435995504737,71.0
787,1435995504758,72.0
788,1435995504778,72.0
789,1435995504798,70.0
790,1435995504819,70.0
791,1435995504838,69.0
792,1435995504858,76.0
793,1435995504880,76.0
794,1435995504898,82.0
795,1435995504918,82.0
796,1435995504938,82.0
797,1435995504958,82.0
798,1435995504978,79.0
799,1435995504998,79.0
800,1435995505018,74.0
801,1435995505038,74.0
802,1435995505059,69.0
803,1435995505083,65.0
804,1435995505099,65.0
805,1435995505118,64.0
806,1435995505138,64.0
807,1435995505158,63.0
808,1435995505186,63.0
809,1435995505198,75.0
810,1435995505218,75.0
811,1435995505238,72.0
812,1435995505258,72.0
813,1435995505280,68.0
814,1435995505304,64.0
815,1435995505318,64.0
816,1435995505338,62.0
817,1435995505358,62.0
818,1435995505378,60.0
819,1435995505399,60.0
820,1435995505419,61.0
821,1435995505438,61.0
822,1435995505458,64.0
823,1435995505479,65.0
824,1435995505499,65.0
825,1435995505520,66.0
826,1435995505539,66.0
827,1435995505558,67.0
828,1435995505580,67.0
829,1435995505601,66.0
830,1435995505619,66.0
831,1435995505638,68.0
832,1435995505659,68.0
833,1435995505678,76.0
834,1435995505698,78.0
835,1435995505719,78.0
836,1435995505738,77.0
837,1435995505759,77.0
838,1435995505779,77.0
839,1435995505799,77.0
840,1435995505819,78.0
841,1435995505839,78.0
842,1435995505859,76.0
843,1435995505881,76.0
844,1435995505900,68.0
845,1435995505919,61.0
846,1435995505939,61.0
847,1435995505962,61.0
848,1435995505979,61.0
849,1435995505999,73.0
850,1435995506019,73.0
851,1435995506039,73.0
852,1435995506060,73.0
853,1435995506079,69.0
854,1435995506099,69.0
855,1435995506119,63.0
856,1435995506139,61.0
857,1435995506159,61.0
858,1435995506191,58.0
859,1435995506201,58.0
860,1435995506219,57.0
861,1435995506239,57.0
