id,attr_time,attr_x,attr_y,attr_z
1,1435996968028,5.715,-46.289,15.321
2,1435996968052,5.715,-46.289,15.321
3,1435996968071,5.715,-46.289,15.321
4,1435996968089,5.715,-46.289,15.016
5,1435996968109,5.715,-46.289,15.016
6,1435996968129,5.715,-46.289,15.016
7,1435996968149,5.715,-46.289,15.016
8,1435996968169,5.715,-46.289,15.016
9,1435996968196,5.715,-46.289,15.016
10,1435996968249,5.715,-46.289,15.016
11,1435996968250,5.715,-46.289,15.016
12,1435996968251,5.715,-46.289,15.016
13,1435996968278,5.715,-46.289,15.016
14,1435996968304,5.715,-46.289,15.016
15,1435996968309,5.715,-46.289,15.353
16,1435996968329,5.715,-46.289,15.353
17,1435996968349,5.715,-46.289,15.353
18,1435996968370,5.715,-46.289,15.353
19,1435996968389,5.384,-46.289,15.353
20,1435996968421,5.384,-46.289,15.353
21,1435996968433,5.384,-46.289,15.353
22,1435996968453,5.384,-46.289,15.353
23,1435996968471,5.384,-46.289,15.353
24,1435996968487,5.384,-46.289,15.689
25,1435996968509,5.384,-46.289,15.689
26,1435996968533,5.384,-46.289,15.689
27,1435996968549,5.384,-46.289,15.689
28,1435996968569,5.384,-46.289,15.689
29,1435996968593,5.384,-46.289,15.689
30,1435996968612,5.384,-46.289,15.689
31,1435996968632,5.384,-46.289,15.689
32,1435996968651,5.384,-46.289,15.689
33,1435996968673,5.384,-46.289,15.689
34,1435996968690,5.384,-46.289,15.689
35,1435996968708,5.384,-46.289,15.689
36,1435996968729,5.384,-46.289,15.689
37,1435996968748,5.384,-46.289,15.689
38,1435996968771,5.384,-46.289,15.689
39,1435996968793,5.384,-46.289,15.689
40,1435996968813,5.384,-46.289,15.689
41,1435996968829,5.384,-46.289,15.689
42,1435996968849,5.384,-46.289,15.689
43,1435996968873,5.384,-46.289,15.689
44,1435996968892,5.384,-46.289,15.689
45,1435996968911,5.384,-46.289,15.689
46,1435996968933,5.384,-46.289,15.689
47,1435996968952,5.384,-46.289,15.689
48,1435996968984,5.384,-46.289,15.689
49,1435996968992,5.384,-46.289,15.689
50,1435996969027,5.384,-46.289,15.689
51,1435996969029,5.384,-46.289,15.689
52,1435996969049,5.384,-46.289,15.388
53,1435996969069,5.384,-46.289,15.388
54,1435996969152,5.384,-46.289,15.388
55,1435996969153,5.384,-46.289,15.388
56,1435996969154,5.384,-46.289,15.388
57,1435996969181,5.384,-46.289,15.388
58,1435996969182,5.686,-46.289,15.388
59,1435996969211,5.686,-46.289,15.388
60,1435996969212,5.686,-46.289,15.388
61,1435996969251,5.686,-46.289,15.388
62,1435996969252,5.686,-46.289,15.388
63,1435996969270,5.686,-46.289,15.388
64,1435996969292,5.686,-46.289,15.388
65,1435996969310,5.686,-46.289,15.388
66,1435996969330,5.686,-46.289,15.388
67,1435996969354,5.686,-46.289,15.388
68,1435996969371,5.686,-46.289,15.388
69,1435996969392,5.686,-46.289,15.388
70,1435996969413,5.686,-46.289,15.388
71,1435996969432,5.686,-46.289,15.388
72,1435996969451,5.686,-46.289,15.388
73,1435996969471,5.686,-46.289,15.388
74,1435996969494,5.686,-46.289,15.388
75,1435996969513,5.686,-46.289,15.388
76,1435996969533,5.686,-46.289,15.388
77,1435996969551,5.686,-46.289,15.388
78,1435996969571,5.686,-46.289,15.388
79,1435996969593,5.686,-46.289,15.388
80,1435996969610,5.686,-46.289,15.388
81,1435996969629,5.686,-46.289,15.388
82,1435996969649,5.686,-46.289,15.388
83,1435996969669,5.686,-46.289,15.388
84,1435996969691,5.686,-46.289,15.701
85,1435996969712,5.686,-46.289,15.701
86,1435996969733,5.686,-46.289,15.701
87,1435996969750,5.686,-46.289,15.701
88,1435996969770,5.686,-46.289,15.701
89,1435996969792,5.384,-46.289,15.701
90,1435996969814,5.384,-46.289,15.701
91,1435996969834,5.384,-46.289,15.701
92,1435996969851,5.384,-46.289,15.701
93,1435996969870,5.384,-46.289,15.701
94,1435996969891,5.384,-46.289,15.701
95,1435996969911,5.384,-46.289,15.701
96,1435996969931,5.384,-46.289,15.701
97,1435996969955,5.384,-46.289,15.701
98,1435996969972,5.384,-46.289,15.701
99,1435996969991,5.384,-46.289,15.701
100,1435996970016,5.384,-46.289,15.701
101,1435996970088,5.384,-46.289,15.701
102,1435996970089,5.384,-46.289,15.701
103,1435996970090,5.384,-46.289,15.701
104,1435996970091,5.384,-46.289,15.701
105,1435996970115,5.384,-46.289,15.701
106,1435996970132,5.697,-46.289,15.701
107,1435996970160,5.697,-46.289,15.385
108,1435996970172,5.697,-46.289,15.385
109,1435996970193,5.697,-46.289,15.385
110,1435996970211,5.697,-46.289,15.385
111,1435996970233,5.697,-46.289,15.385
112,1435996970257,5.697,-46.289,15.385
113,1435996970271,5.697,-46.289,15.385
114,1435996970291,5.697,-46.289,15.385
115,1435996970317,5.697,-46.289,15.385
116,1435996970331,5.697,-46.289,15.385
117,1435996970361,5.697,-46.289,15.385
118,1435996970376,5.697,-46.289,15.385
119,1435996970396,5.697,-46.289,15.385
120,1435996970411,5.697,-46.289,15.385
121,1435996970432,5.697,-46.289,15.385
122,1435996970451,5.697,-46.289,15.385
123,1435996970474,5.697,-46.289,15.385
124,1435996970560,5.697,-46.289,15.385
125,1435996970561,5.697,-46.289,15.385
126,1435996970580,5.697,-46.289,15.385
127,1435996970581,5.697,-46.289,15.385
128,1435996970582,5.697,-46.289,15.385
129,1435996970683,5.697,-46.289,15.701
130,1435996970684,5.697,-46.289,15.701
131,1435996970685,5.369,-46.289,15.701
132,1435996970686,5.369,-46.289,15.701
133,1435996970687,5.369,-46.289,15.701
134,1435996970694,5.369,-46.289,15.701
135,1435996970715,5.369,-46.289,15.701
136,1435996970731,5.369,-46.289,15.701
137,1435996970751,5.369,-46.289,15.701
138,1435996970771,5.369,-46.289,15.701
139,1435996970791,5.369,-46.289,15.701
140,1435996970811,5.369,-46.289,15.701
141,1435996970831,5.369,-46.289,15.701
142,1435996970851,5.369,-46.289,15.701
143,1435996970871,5.369,-46.289,15.701
144,1435996970892,5.369,-46.289,15.701
145,1435996970913,5.369,-46.289,15.701
146,1435996970933,5.369,-46.289,15.701
147,1435996970954,5.369,-46.289,15.701
148,1435996970972,5.369,-46.289,15.701
149,1435996970990,5.369,-46.289,15.701
150,1435996971032,5.369,-46.289,15.701
151,1435996971033,5.369,-46.289,15.701
152,1435996971051,5.369,-46.289,15.701
153,1435996971070,5.369,-46.289,15.701
154,1435996971092,5.369,-46.289,15.701
155,1435996971113,5.369,-46.289,15.701
156,1435996971130,5.369,-46.289,15.701
157,1435996971152,5.369,-46.289,15.701
158,1435996971171,5.369,-46.289,15.701
159,1435996971191,5.369,-46.289,15.701
160,1435996971212,5.369,-46.289,15.701
161,1435996971235,5.369,-46.289,15.701
162,1435996971252,5.369,-46.289,15.377
163,1435996971271,5.705,-46.289,15.377
164,1435996971294,5.705,-46.289,15.377
165,1435996971311,5.705,-46.289,15.377
166,1435996971335,5.705,-46.289,15.377
167,1435996971355,5.705,-46.289,15.377
168,1435996971372,5.705,-46.289,15.377
169,1435996971392,5.705,-46.289,15.377
170,1435996971414,5.705,-46.289,15.377
171,1435996971438,5.705,-46.289,15.377
172,1435996971451,5.705,-46.289,15.377
173,1435996971473,5.705,-46.289,15.377
174,1435996971495,5.705,-46.289,15.377
175,1435996971511,5.705,-46.289,15.377
176,1435996971534,5.705,-46.289,15.377
177,1435996971552,5.705,-46.289,15.377
178,1435996971572,5.705,-46.289,15.377
179,1435996971591,5.705,-46.289,15.377
180,1435996971616,5.705,-46.289,15.377
181,1435996971634,5.705,-46.289,15.377
182,1435996971652,5.705,-46.289,15.377
183,1435996971671,5.705,-46.289,15.377
184,1435996971695,5.705,-46.289,15.377
185,1435996971713,5.705,-46.289,15.377
186,1435996971736,5.705,-46.289,15.377
187,1435996971756,5.705,-46.289,15.377
188,1435996971772,5.705,-46.289,15.377
189,1435996971794,5.705,-46.289,15.377
190,1435996971813,5.705,-46.289,15.377
191,1435996971832,5.705,-46.289,15.377
192,1435996971866,5.705,-46.289,15.377
193,1435996971874,5.705,-46.289,15.377
194,1435996971901,5.705,-46.289,15.377
195,1435996971911,5.705,-46.289,15.377
196,1435996971933,5.705,-46.289,15.377
197,1435996971953,5.705,-46.289,15.377
198,1435996971973,5.705,-46.289,15.377
199,1435996971994,5.705,-46.289,15.377
200,1435996972014,5.705,-46.289,15.377
201,1435996972037,5.705,-46.289,15.377
202,1435996972057,5.705,-46.289,15.377
203,1435996972072,5.705,-46.289,15.377
204,1435996972095,5.705,-46.289,15.377
205,1435996972113,5.705,-46.289,15.377
206,1435996972134,5.705,-46.289,15.377
207,1435996972152,5.705,-46.289,15.377
208,1435996972173,5.705,-46.289,15.69
209,1435996972198,5.705,-46.289,15.69
210,1435996972216,5.705,-46.289,15.69
211,1435996972237,5.705,-46.289,15.69
212,1435996972259,5.392,-46.289,15.69
213,1435996972279,5.392,-46.289,15.69
214,1435996972330,5.392,-46.289,15.69
215,1435996972334,5.392,-46.289,15.69
216,1435996972343,5.392,-46.289,15.69
217,1435996972374,5.392,-46.289,15.69
218,1435996972375,5.392,-46.289,15.69
219,1435996972392,5.392,-46.289,15.69
220,1435996972418,5.392,-46.289,15.69
221,1435996972434,5.392,-46.289,15.69
222,1435996972454,5.392,-46.289,15.69
223,1435996972475,5.392,-46.289,15.69
224,1435996972500,5.392,-46.289,15.69
225,1435996972516,5.392,-46.289,15.69
226,1435996972533,5.392,-46.289,15.69
227,1435996972553,5.392,-46.289,15.69
228,1435996972579,5.392,-46.289,15.69
229,1435996972595,5.392,-46.289,15.69
230,1435996972613,5.392,-46.289,15.69
231,1435996972633,5.392,-46.289,15.69
232,1435996972653,5.392,-46.289,15.69
233,1435996972680,5.392,-46.289,15.69
234,1435996972695,5.392,-46.289,15.69
235,1435996972715,5.392,-46.289,15.69
236,1435996972734,5.392,-46.289,15.69
237,1435996972758,5.392,-46.289,15.69
238,1435996972807,5.392,-46.289,15.69
239,1435996972810,5.392,-46.289,15.69
240,1435996972822,5.392,-46.289,15.69
241,1435996972839,5.392,-46.289,15.388
242,1435996972853,5.392,-46.289,15.388
243,1435996972873,5.392,-46.289,15.388
244,1435996972898,5.392,-46.289,15.388
245,1435996972915,5.703,-46.289,15.388
246,1435996972940,5.703,-46.289,15.388
247,1435996972957,5.703,-46.289,15.388
248,1435996972974,5.703,-46.289,15.388
249,1435996972997,5.703,-46.289,15.388
250,1435996973016,5.703,-46.289,15.388
251,1435996973033,5.703,-46.289,15.388
252,1435996973054,5.703,-46.289,15.388
253,1435996973075,5.703,-46.289,15.388
254,1435996973100,5.703,-46.289,15.388
255,1435996973115,5.703,-46.289,15.388
256,1435996973137,5.703,-46.289,15.388
257,1435996973153,5.703,-46.289,15.388
258,1435996973174,5.703,-46.289,15.388
259,1435996973194,5.703,-46.289,15.388
260,1435996973215,5.703,-46.289,15.388
261,1435996973244,5.703,-46.289,15.388
262,1435996973297,5.703,-46.289,15.388
263,1435996973298,5.703,-46.289,15.388
264,1435996973299,5.703,-46.289,15.388
265,1435996973313,5.703,-46.289,15.388
266,1435996973334,5.703,-46.289,15.388
267,1435996973360,5.703,-46.289,15.388
268,1435996973376,5.703,-46.289,15.388
269,1435996973394,5.703,-46.289,15.388
270,1435996973420,5.703,-46.289,15.388
271,1435996973438,5.703,-46.289,15.388
272,1435996973455,5.703,-46.289,15.388
273,1435996973475,5.368,-46.289,15.388
274,1435996973507,5.368,-46.289,15.721
275,1435996973513,5.368,-46.289,15.721
276,1435996973537,5.368,-46.289,15.721
277,1435996973556,5.368,-46.289,15.721
278,1435996973575,5.368,-46.289,15.721
279,1435996973599,5.368,-46.289,15.721
280,1435996973618,5.368,-46.289,15.721
281,1435996973639,5.368,-46.289,15.721
282,1435996973658,5.368,-46.289,15.721
283,1435996973675,5.368,-46.289,15.721
284,1435996973695,5.368,-46.289,15.721
285,1435996973719,5.368,-46.289,15.721
286,1435996973734,5.368,-46.289,15.721
287,1435996973754,5.368,-46.289,15.721
288,1435996973792,5.368,-46.289,15.721
289,1435996973798,5.368,-46.289,15.721
290,1435996973814,5.368,-46.289,15.721
291,1435996973834,5.368,-46.289,15.721
292,1435996973854,5.368,-46.289,15.721
293,1435996973874,5.368,-46.289,15.721
294,1435996973896,5.368,-46.289,15.721
295,1435996973914,5.368,-46.289,15.721
296,1435996973934,5.368,-46.289,15.721
297,1435996973954,5.368,-46.289,15.721
298,1435996973977,5.368,-46.289,15.721
299,1435996974000,5.368,-46.289,15.721
300,1435996974018,5.368,-46.289,15.721
301,1435996974037,5.368,-46.289,15.721
302,1435996974058,5.368,-46.289,15.721
303,1435996974078,5.368,-46.289,15.721
304,1435996974097,5.368,-46.289,15.721
305,1435996974118,5.368,-46.289,15.721
306,1435996974138,5.368,-46.289,15.721
307,1435996974158,5.368,-46.289,15.721
308,1435996974178,5.368,-46.289,15.721
309,1435996974198,5.368,-46.289,15.721
310,1435996974218,5.368,-46.289,15.721
311,1435996974286,5.368,-46.289,15.721
312,1435996974287,5.368,-46.289,15.721
313,1435996974288,5.368,-46.289,15.721
314,1435996974316,5.368,-46.289,15.721
315,1435996974317,5.368,-46.289,15.721
316,1435996974335,5.368,-46.289,15.721
317,1435996974434,5.368,-46.289,15.721
318,1435996974435,5.368,-46.289,15.721
319,1435996974436,5.368,-46.289,15.721
320,1435996974437,5.368,-46.289,15.721
321,1435996974438,5.368,-46.289,15.721
322,1435996974464,5.368,-46.289,15.721
323,1435996974475,5.368,-46.289,15.721
324,1435996974496,5.368,-46.289,15.721
325,1435996974518,5.368,-46.289,15.721
326,1435996974537,5.368,-46.289,15.721
327,1435996974555,5.368,-46.289,15.721
328,1435996974575,5.368,-46.289,15.721
329,1435996974598,5.368,-46.289,15.721
330,1435996974618,5.368,-46.289,15.721
331,1435996974638,5.368,-46.289,15.721
332,1435996974658,5.368,-46.289,15.721
333,1435996974678,5.368,-46.289,15.721
334,1435996974697,5.368,-46.289,15.721
335,1435996974717,5.368,-46.289,15.721
336,1435996974739,5.368,-46.289,15.721
337,1435996974757,5.368,-46.289,15.721
338,1435996974806,5.368,-46.289,15.721
339,1435996974807,5.368,-46.289,15.721
340,1435996974815,5.368,-46.289,15.721
341,1435996974839,5.368,-46.289,15.721
342,1435996974855,5.368,-46.289,15.721
343,1435996974878,5.368,-46.289,15.721
344,1435996974895,5.368,-46.289,15.721
345,1435996974921,5.368,-46.289,15.721
346,1435996974939,5.368,-46.289,15.721
347,1435996974957,5.368,-46.289,15.721
348,1435996974977,5.368,-46.289,15.721
349,1435996974998,5.368,-46.289,15.721
350,1435996975015,5.368,-46.289,15.721
351,1435996975038,5.368,-46.289,15.721
352,1435996975055,5.368,-46.289,15.721
353,1435996975076,5.368,-46.289,15.721
354,1435996975100,5.368,-46.289,15.721
355,1435996975120,5.368,-46.289,15.721
356,1435996975141,5.368,-46.289,15.721
357,1435996975159,5.368,-46.289,15.721
358,1435996975175,5.368,-46.289,15.721
359,1435996975195,5.368,-46.289,15.721
360,1435996975217,5.368,-46.289,15.721
361,1435996975238,5.368,-46.289,15.721
362,1435996975256,5.368,-46.289,15.721
363,1435996975329,5.368,-46.289,15.721
364,1435996975330,5.368,-46.289,15.721
365,1435996975331,5.368,-46.289,15.721
366,1435996975361,5.368,-46.289,15.721
367,1435996975362,5.368,-46.289,15.721
368,1435996975377,5.368,-46.289,15.721
369,1435996975407,5.368,-46.289,15.721
370,1435996975415,5.368,-46.289,15.721
371,1435996975440,5.368,-46.289,15.721
372,1435996975461,5.368,-46.289,15.721
373,1435996975478,5.368,-46.289,15.721
374,1435996975497,5.368,-46.289,15.721
375,1435996975516,5.368,-46.289,15.721
376,1435996975536,5.368,-46.289,15.721
377,1435996975558,5.679,-46.289,15.721
378,1435996975575,5.679,-46.289,15.721
379,1435996975601,5.679,-46.289,15.721
380,1435996975622,5.679,-46.289,15.721
381,1435996975642,5.996,-46.289,15.721
382,1435996975659,5.996,-46.289,15.721
383,1435996975679,5.996,-46.289,15.721
384,1435996975696,5.996,-46.289,15.721
385,1435996975716,6.311,-46.289,15.721
386,1435996975738,6.311,-46.289,15.721
387,1435996975756,6.311,-46.289,15.721
388,1435996975842,6.311,-46.289,15.721
389,1435996975843,6.311,-45.977,16.044
390,1435996975844,6.311,-45.977,16.044
391,1435996975845,6.311,-45.977,16.044
392,1435996975900,6.311,-45.977,16.361
393,1435996975901,6.311,-45.977,16.361
394,1435996975902,6.311,-45.977,16.361
395,1435996975937,6.311,-45.977,16.361
396,1435996975938,6.311,-45.977,16.361
397,1435996975957,6.311,-45.977,16.361
398,1435996975979,5.924,-45.977,16.361
399,1435996975996,5.924,-45.977,16.361
400,1435996976019,5.924,-45.977,16.361
401,1435996976036,5.453,-45.977,16.361
402,1435996976056,5.128,-45.977,16.361
403,1435996976078,4.689,-45.977,16.664
404,1435996976099,4.023,-45.977,16.664
405,1435996976116,3.584,-45.977,16.664
406,1435996976139,2.812,-45.977,16.664
407,1435996976156,2.334,-46.325,16.664
408,1435996976178,1.879,-46.325,16.281
409,1435996976196,1.481,-46.325,16.281
410,1435996976218,1.116,-46.325,16.281
411,1435996976244,0.787,-46.72,15.737
412,1435996976268,0.068,-46.72,15.737
413,1435996976299,0.068,-46.72,15.396
414,1435996976300,-0.665,-47.126,15.396
415,1435996976318,-1.158,-47.126,15.068
416,1435996976337,-1.681,-47.126,15.068
417,1435996976357,-1.681,-47.546,14.68
418,1435996976379,-1.681,-47.546,14.68
419,1435996976397,-1.681,-47.546,14.184
420,1435996976417,-1.681,-47.947,13.659
421,1435996976437,-1.271,-47.947,13.259
422,1435996976457,-1.271,-47.947,13.259
423,1435996976480,-1.271,-48.283,12.663
424,1435996976501,-1.271,-48.283,12.663
425,1435996976517,-1.271,-48.283,12.663
426,1435996976540,-1.271,-48.622,12.663
427,1435996976560,-1.271,-48.622,12.231
428,1435996976578,-1.593,-48.622,12.231
429,1435996976599,-1.593,-48.622,12.231
430,1435996976618,-1.593,-48.97,12.231
431,1435996976637,-1.593,-48.97,11.834
432,1435996976658,-1.593,-48.97,11.834
433,1435996976678,-1.593,-48.97,11.834
434,1435996976697,-1.593,-48.97,11.489
435,1435996976733,-1.593,-48.97,11.489
436,1435996976738,-1.593,-48.97,11.489
437,1435996976756,-1.283,-48.97,11.489
438,1435996976776,-1.283,-48.97,11.17
439,1435996976797,-1.283,-48.97,11.17
440,1435996976818,-1.283,-48.97,11.17
441,1435996976838,-1.283,-48.97,11.17
442,1435996976857,-1.283,-48.97,11.17
443,1435996976877,-1.283,-48.97,11.17
444,1435996976900,-1.283,-48.97,11.17
445,1435996976920,-0.979,-48.97,11.17
446,1435996976942,-0.979,-48.97,11.17
447,1435996976960,-0.979,-48.97,11.17
448,1435996976979,-0.979,-48.97,11.17
449,1435996976998,-0.979,-48.97,11.17
450,1435996977018,-0.979,-48.97,11.17
451,1435996977038,-0.979,-48.97,11.17
452,1435996977061,-0.979,-48.97,11.17
453,1435996977082,-0.979,-48.97,11.17
454,1435996977101,-0.979,-48.97,11.17
455,1435996977119,-0.979,-48.97,11.17
456,1435996977138,-0.979,-48.97,11.17
457,1435996977202,-0.979,-48.97,11.477
458,1435996977203,-1.28,-48.97,11.477
459,1435996977204,-1.28,-48.97,11.477
460,1435996977222,-1.28,-48.97,11.477
461,1435996977239,-1.652,-48.97,11.477
462,1435996977268,-1.652,-48.97,11.477
463,1435996977278,-2.624,-48.97,11.477
464,1435996977299,-3.32,-48.97,11.477
465,1435996977318,-3.877,-48.97,11.477
466,1435996977341,-3.877,-48.97,11.477
467,1435996977357,-3.877,-48.97,11.477
468,1435996977384,-3.877,-48.97,11.477
469,1435996977402,-3.877,-48.97,11.477
470,1435996977427,-4.193,-48.97,11.477
471,1435996977439,-4.193,-48.97,11.477
472,1435996977459,-4.193,-48.97,11.477
473,1435996977480,-4.193,-48.97,11.172
474,1435996977498,-4.193,-48.97,9.385
475,1435996977522,-4.193,-48.97,7.768
476,1435996977543,-4.193,-49.295,6.724
477,1435996977563,-3.721,-49.295,5.575
478,1435996977582,-2.098,-49.295,4.861
479,1435996977605,-0.453,-49.665,4.028
480,1435996977666,0.956,-49.665,3.059
481,1435996977668,2.157,-49.967,3.059
482,1435996977669,3.317,-49.967,2.035
483,1435996977686,4.527,-50.32,1.118
484,1435996977699,5.725,-50.32,0.578
485,1435996977719,6.6,-50.64,-0.106
486,1435996977738,7.739,-50.64,-0.82
487,1435996977760,8.77,-50.952,-1.516
488,1435996977778,9.712,-50.952,-1.516
489,1435996977799,10.426,-51.26,-2.647
490,1435996977820,11.543,-51.26,-2.647
491,1435996977841,12.648,-51.26,-2.273
492,1435996977858,13.252,-51.657,-2.864
493,1435996977878,13.766,-51.657,-3.529
494,1435996977898,13.766,-51.657,-3.916
495,1435996977923,14.176,-51.657,-4.222
496,1435996977944,14.176,-51.992,-4.222
497,1435996977964,14.176,-51.992,-4.222
498,1435996977981,13.618,-51.992,-3.878
499,1435996977998,13.05,-51.992,-3.878
500,1435996978018,12.329,-52.32,-3.364
501,1435996978039,11.383,-52.32,-3.364
502,1435996978060,10.041,-52.32,-2.664
503,1435996978079,9.385,-52.629,-2.664
504,1435996978144,8.544,-52.629,-2.664
505,1435996978145,8.16,-52.629,-2.664
506,1435996978146,7.794,-52.961,-2.664
507,1435996978169,7.287,-52.961,-2.32
508,1435996978180,6.483,-52.961,-2.32
509,1435996978208,5.68,-53.326,-2.949
510,1435996978218,3.677,-53.326,-2.949
511,1435996978241,2.861,-53.326,-2.949
512,1435996978259,2.188,-53.712,-2.949
513,1435996978285,1.515,-53.712,-2.949
514,1435996978301,1.068,-53.712,-2.949
515,1435996978320,1.068,-54.161,-2.949
516,1435996978340,0.14,-54.161,-2.949
