id,attr_time,attr_x,attr_y,attr_z
1,1435996968010,-14.488,-43.261,8.541
2,1435996968031,-14.488,-43.261,8.541
3,1435996968052,-14.488,-43.261,8.541
4,1435996968073,-14.488,-43.261,8.541
5,1435996968092,-14.488,-43.261,8.541
6,1435996968112,-14.488,-43.261,8.541
7,1435996968130,-14.488,-43.261,8.541
8,1435996968149,-14.488,-43.261,8.541
9,1435996968170,-14.488,-43.261,8.541
10,1435996968227,-14.488,-43.261,8.541
11,1435996968228,-14.488,-43.261,8.541
12,1435996968232,-14.488,-43.261,8.541
13,1435996968250,-14.488,-43.261,8.541
14,1435996968277,-14.488,-43.261,8.541
15,1435996968296,-14.488,-43.261,8.541
16,1435996968311,-14.488,-43.261,8.541
17,1435996968331,-14.488,-43.261,8.541
18,1435996968350,-14.488,-43.261,8.541
19,1435996968370,-14.488,-43.261,8.541
20,1435996968394,-14.488,-43.261,8.541
21,1435996968411,-14.488,-43.261,8.541
22,1435996968430,-14.488,-43.261,8.541
23,1435996968454,-14.488,-43.261,8.541
24,1435996968473,-14.488,-43.261,8.541
25,1435996968491,-14.488,-43.261,8.541
26,1435996968510,-14.488,-43.261,8.541
27,1435996968531,-14.488,-43.261,8.541
28,1435996968552,-14.488,-43.261,8.541
29,1435996968574,-14.488,-43.261,8.541
30,1435996968593,-14.488,-43.261,8.541
31,1435996968613,-14.488,-43.261,8.541
32,1435996968637,-14.488,-43.261,8.541
33,1435996968652,-14.488,-43.261,8.541
34,1435996968673,-14.488,-43.261,8.541
35,1435996968691,-14.488,-43.261,8.541
36,1435996968710,-14.488,-43.261,8.541
37,1435996968731,-14.488,-43.261,8.541
38,1435996968753,-14.488,-43.261,8.541
39,1435996968773,-14.488,-43.261,8.541
40,1435996968790,-14.488,-43.261,8.541
41,1435996968810,-14.488,-43.261,8.541
42,1435996968833,-14.488,-43.261,8.541
43,1435996968851,-14.488,-43.261,8.541
44,1435996968870,-14.488,-43.261,8.541
45,1435996968891,-14.488,-43.261,8.541
46,1435996968911,-14.488,-43.261,8.541
47,1435996968966,-14.488,-43.261,8.541
48,1435996968967,-14.488,-43.261,8.541
49,1435996968971,-14.488,-43.261,8.541
50,1435996968992,-14.488,-43.261,8.541
51,1435996969011,-14.488,-43.261,8.541
52,1435996969034,-14.488,-43.261,8.541
53,1435996969050,-14.488,-43.261,8.541
54,1435996969072,-14.488,-43.261,8.541
55,1435996969093,-14.488,-43.261,8.541
56,1435996969112,-14.488,-43.261,8.541
57,1435996969131,-14.488,-43.261,8.541
58,1435996969150,-14.488,-43.261,8.541
59,1435996969177,-14.488,-43.261,8.541
60,1435996969192,-14.488,-43.261,8.541
61,1435996969213,-14.488,-43.261,8.541
62,1435996969234,-14.488,-43.261,8.541
63,1435996969254,-14.488,-43.261,8.541
64,1435996969273,-14.488,-43.261,8.541
65,1435996969292,-14.488,-43.261,8.541
66,1435996969311,-14.488,-43.261,8.541
67,1435996969332,-14.488,-43.261,8.541
68,1435996969353,-14.488,-43.261,8.541
69,1435996969375,-14.488,-43.261,8.541
70,1435996969391,-14.488,-43.261,8.541
71,1435996969414,-14.488,-43.261,8.541
72,1435996969435,-14.488,-43.261,8.541
73,1435996969455,-14.184,-43.261,8.541
74,1435996969475,-14.184,-43.261,8.541
75,1435996969498,-14.184,-43.261,8.541
76,1435996969515,-14.184,-43.261,8.541
77,1435996969534,-14.184,-43.261,8.541
78,1435996969554,-14.184,-43.261,8.541
79,1435996969575,-14.184,-43.261,8.541
80,1435996969601,-14.184,-43.261,8.541
81,1435996969613,-14.184,-43.261,8.541
82,1435996969636,-14.184,-43.261,8.541
83,1435996969651,-14.184,-43.261,8.541
84,1435996969720,-14.184,-43.261,8.541
85,1435996969721,-14.184,-43.261,8.541
86,1435996969722,-14.184,-43.261,8.541
87,1435996969731,-14.184,-43.261,8.541
88,1435996969754,-14.184,-43.261,8.541
89,1435996969777,-14.184,-43.261,8.541
90,1435996969793,-14.184,-43.261,8.541
91,1435996969811,-14.184,-43.261,8.541
92,1435996969831,-14.184,-43.261,8.541
93,1435996969851,-14.184,-43.261,8.541
94,1435996969871,-14.184,-43.261,8.541
95,1435996969893,-14.184,-43.261,8.541
96,1435996969911,-14.184,-43.261,8.541
97,1435996969934,-14.184,-43.261,8.541
98,1435996969954,-14.184,-43.261,8.541
99,1435996969973,-14.184,-43.261,8.541
100,1435996969993,-14.184,-43.261,8.541
101,1435996970011,-14.184,-43.261,8.541
102,1435996970033,-14.184,-43.261,8.541
103,1435996970055,-14.184,-43.261,8.541
104,1435996970075,-14.184,-43.261,8.541
105,1435996970095,-14.184,-43.261,8.541
106,1435996970115,-14.184,-43.261,8.541
107,1435996970137,-14.184,-43.261,8.541
108,1435996970153,-14.184,-43.261,8.541
109,1435996970172,-14.184,-43.261,8.541
110,1435996970195,-14.184,-43.261,8.541
111,1435996970216,-14.184,-43.261,8.541
112,1435996970275,-14.184,-43.261,8.541
113,1435996970276,-14.184,-43.261,8.541
114,1435996970277,-14.184,-43.261,8.541
115,1435996970293,-14.184,-43.261,8.541
116,1435996970311,-14.184,-43.261,8.541
117,1435996970334,-14.184,-43.261,8.541
118,1435996970354,-14.184,-43.261,8.541
119,1435996970373,-14.184,-43.261,8.541
120,1435996970392,-14.184,-43.261,8.541
121,1435996970460,-14.184,-43.261,8.541
122,1435996970461,-14.184,-43.261,8.541
123,1435996970462,-14.184,-43.261,8.541
124,1435996970496,-14.184,-43.261,8.541
125,1435996970497,-14.184,-43.261,8.541
126,1435996970512,-14.184,-43.261,8.541
127,1435996970532,-14.184,-43.261,8.541
128,1435996970559,-14.184,-43.261,8.541
129,1435996970574,-14.184,-43.261,8.541
130,1435996970609,-14.184,-43.261,8.541
131,1435996970617,-14.485,-43.261,8.541
132,1435996970635,-14.485,-43.261,8.541
133,1435996970652,-14.485,-43.261,8.541
134,1435996970673,-14.485,-43.261,8.541
135,1435996970693,-14.485,-43.261,8.541
136,1435996970711,-14.485,-43.261,8.541
137,1435996970731,-14.485,-43.261,8.541
138,1435996970751,-14.485,-43.261,8.541
139,1435996970772,-14.485,-43.261,8.541
140,1435996970791,-14.485,-43.261,8.541
141,1435996970812,-14.485,-43.261,8.541
142,1435996970836,-14.485,-43.261,8.541
143,1435996970856,-14.485,-43.261,8.541
144,1435996970877,-14.485,-43.261,8.541
145,1435996970892,-14.485,-43.261,8.541
146,1435996970915,-14.485,-43.261,8.541
147,1435996970933,-14.485,-43.261,8.541
148,1435996970952,-14.485,-43.261,8.541
149,1435996970973,-14.485,-43.261,8.541
150,1435996970996,-14.485,-43.261,8.541
151,1435996971015,-14.485,-43.261,8.541
152,1435996971036,-14.485,-43.261,8.541
153,1435996971057,-14.485,-43.261,8.541
154,1435996971075,-14.485,-43.261,8.541
155,1435996971093,-14.485,-43.261,8.541
156,1435996971112,-14.485,-43.261,8.541
157,1435996971133,-14.485,-43.261,8.541
158,1435996971153,-14.485,-43.261,8.541
159,1435996971181,-14.485,-43.261,8.541
160,1435996971191,-14.485,-43.261,8.541
161,1435996971212,-14.485,-43.261,8.541
162,1435996971233,-14.485,-43.261,8.541
163,1435996971252,-14.485,-43.261,8.541
164,1435996971274,-14.485,-43.261,8.541
165,1435996971294,-14.485,-43.261,8.541
166,1435996971313,-14.485,-43.261,8.541
167,1435996971333,-14.485,-43.261,8.541
168,1435996971358,-14.485,-43.261,8.541
169,1435996971375,-14.485,-43.261,8.541
170,1435996971392,-14.485,-43.261,8.541
171,1435996971413,-14.485,-43.261,8.541
172,1435996971434,-14.485,-43.261,8.541
173,1435996971454,-14.485,-43.261,8.541
174,1435996971473,-14.485,-43.261,8.541
175,1435996971494,-14.485,-43.261,8.541
176,1435996971516,-14.485,-43.261,8.541
177,1435996971533,-14.485,-43.261,8.541
178,1435996971553,-14.485,-43.261,8.541
179,1435996971573,-14.485,-43.261,8.541
180,1435996971594,-14.485,-43.261,8.541
181,1435996971613,-14.485,-43.261,8.541
182,1435996971633,-14.485,-43.261,8.541
183,1435996971656,-14.485,-43.261,8.541
184,1435996971675,-14.485,-43.261,8.541
185,1435996971693,-14.485,-43.261,8.541
186,1435996971713,-14.485,-43.261,8.541
187,1435996971733,-14.485,-43.261,8.541
188,1435996971754,-14.485,-43.261,8.848
189,1435996971774,-14.485,-43.261,8.848
190,1435996971795,-14.485,-43.261,8.848
191,1435996971813,-14.485,-43.261,8.848
192,1435996971879,-14.485,-43.261,8.848
193,1435996971880,-14.485,-43.261,8.848
194,1435996971890,-14.485,-43.261,8.848
195,1435996971895,-14.181,-43.261,8.848
196,1435996971913,-14.181,-43.261,8.848
197,1435996971934,-14.181,-43.261,8.848
198,1435996971957,-14.181,-43.261,8.848
199,1435996971975,-14.181,-43.261,8.848
200,1435996971993,-14.181,-43.261,8.848
201,1435996972014,-14.181,-43.261,8.848
202,1435996972035,-14.181,-43.261,8.848
203,1435996972055,-14.181,-43.261,8.848
204,1435996972079,-14.181,-43.261,8.848
205,1435996972094,-14.181,-43.261,8.848
206,1435996972115,-14.181,-43.261,8.848
207,1435996972134,-14.181,-43.261,8.848
208,1435996972153,-14.181,-43.261,8.848
209,1435996972175,-14.181,-43.261,8.848
210,1435996972194,-14.181,-43.261,8.848
211,1435996972214,-14.181,-43.261,8.848
212,1435996972237,-14.181,-43.261,8.848
213,1435996972256,-14.181,-43.261,8.848
214,1435996972274,-14.181,-43.261,8.848
215,1435996972295,-14.181,-43.261,8.848
216,1435996972313,-14.181,-43.261,8.848
217,1435996972333,-14.181,-43.261,8.848
218,1435996972353,-14.181,-43.261,8.848
219,1435996972374,-14.181,-43.261,8.848
220,1435996972394,-14.181,-43.261,8.848
221,1435996972419,-14.181,-43.261,8.848
222,1435996972437,-14.181,-43.261,8.848
223,1435996972453,-14.181,-43.261,8.848
224,1435996972474,-14.181,-43.261,8.848
225,1435996972493,-14.181,-43.261,8.848
226,1435996972515,-14.181,-43.261,8.848
227,1435996972534,-14.181,-43.261,8.848
228,1435996972554,-14.181,-43.261,8.848
229,1435996972626,-14.181,-43.261,8.848
230,1435996972627,-14.181,-43.261,8.848
231,1435996972628,-14.181,-43.261,8.848
232,1435996972645,-14.181,-43.261,8.848
233,1435996972654,-14.181,-43.261,8.848
234,1435996972673,-14.181,-43.261,8.848
235,1435996972696,-14.181,-43.261,8.848
236,1435996972715,-14.181,-43.261,8.848
237,1435996972734,-14.181,-43.261,8.848
238,1435996972755,-14.181,-43.261,8.848
239,1435996972774,-14.181,-43.261,8.848
240,1435996972795,-14.181,-43.261,8.848
241,1435996972815,-14.181,-43.261,8.848
242,1435996972836,-14.181,-43.261,8.848
243,1435996972856,-14.181,-43.261,8.848
244,1435996972877,-14.181,-43.261,8.848
245,1435996972898,-14.181,-43.261,8.848
246,1435996972917,-14.181,-43.261,8.848
247,1435996972935,-14.181,-43.261,8.848
248,1435996972955,-14.181,-43.261,8.848
249,1435996972974,-14.181,-43.261,8.848
250,1435996972995,-14.181,-43.261,8.848
251,1435996973016,-14.181,-43.261,8.848
252,1435996973036,-14.181,-43.261,8.848
253,1435996973057,-14.181,-43.261,8.848
254,1435996973078,-14.181,-43.261,8.848
255,1435996973097,-14.181,-43.261,8.848
256,1435996973119,-14.181,-43.261,8.848
257,1435996973169,-14.181,-43.261,8.848
258,1435996973170,-14.181,-43.261,8.848
259,1435996973175,-14.181,-43.261,8.848
260,1435996973195,-14.181,-43.261,8.848
261,1435996973228,-14.181,-43.261,8.848
262,1435996973297,-14.181,-43.261,8.848
263,1435996973298,-14.181,-43.261,8.848
264,1435996973299,-14.181,-43.261,8.848
265,1435996973300,-14.181,-43.261,8.848
266,1435996973315,-14.181,-43.261,8.848
267,1435996973339,-14.181,-43.261,8.848
268,1435996973357,-14.181,-43.261,8.848
269,1435996973375,-14.181,-43.261,8.544
270,1435996973397,-14.181,-43.261,8.544
271,1435996973417,-14.181,-43.261,8.544
272,1435996973436,-14.181,-43.261,8.544
273,1435996973458,-14.181,-43.261,8.544
274,1435996973476,-14.181,-43.261,8.544
275,1435996973495,-14.181,-43.261,8.544
276,1435996973516,-14.181,-43.261,8.544
277,1435996973537,-14.181,-43.261,8.544
278,1435996973556,-14.181,-43.261,8.544
279,1435996973579,-14.181,-43.261,8.544
280,1435996973596,-14.181,-43.261,8.544
281,1435996973617,-14.181,-43.261,8.544
282,1435996973660,-14.181,-43.261,8.544
283,1435996973661,-14.181,-43.261,8.544
284,1435996973675,-14.181,-43.261,8.544
285,1435996973702,-14.181,-43.261,8.544
286,1435996973716,-14.181,-43.261,8.544
287,1435996973735,-14.181,-43.261,8.544
288,1435996973756,-14.181,-43.261,8.544
289,1435996973777,-14.181,-43.261,8.544
290,1435996973795,-14.181,-43.261,8.544
291,1435996973818,-14.181,-43.261,8.544
292,1435996973837,-14.181,-43.261,8.544
293,1435996973857,-14.181,-43.261,8.544
294,1435996973875,-14.181,-43.261,8.544
295,1435996973896,-14.181,-43.261,8.544
296,1435996973919,-14.181,-43.261,8.544
297,1435996973940,-14.181,-43.261,8.544
298,1435996973959,-14.181,-43.261,8.544
299,1435996974028,-14.181,-43.261,8.544
300,1435996974029,-14.181,-43.261,8.544
301,1435996974030,-14.181,-43.261,8.544
302,1435996974055,-14.181,-43.261,8.544
303,1435996974056,-14.181,-43.261,8.544
304,1435996974077,-14.181,-43.261,8.544
305,1435996974100,-14.181,-43.261,8.544
306,1435996974115,-14.181,-43.261,8.544
307,1435996974138,-14.181,-43.261,8.544
308,1435996974158,-14.181,-43.261,8.544
309,1435996974177,-14.181,-43.261,8.544
310,1435996974195,-14.181,-43.261,8.544
311,1435996974216,-14.181,-43.261,8.544
312,1435996974236,-14.181,-43.261,8.544
313,1435996974256,-14.181,-43.261,8.544
314,1435996974277,-14.181,-43.261,8.544
315,1435996974297,-14.181,-43.261,8.544
316,1435996974317,-14.181,-43.261,8.544
317,1435996974335,-14.181,-43.261,8.544
318,1435996974356,-14.181,-43.261,8.544
319,1435996974376,-14.181,-43.261,8.544
320,1435996974397,-14.181,-43.261,8.544
321,1435996974418,-14.181,-43.261,8.544
322,1435996974438,-14.181,-43.261,8.544
323,1435996974457,-14.181,-43.261,8.544
324,1435996974476,-14.181,-43.261,8.544
325,1435996974496,-14.181,-43.261,8.544
326,1435996974516,-14.181,-43.261,8.544
327,1435996974537,-14.181,-43.261,8.544
328,1435996974557,-14.181,-43.261,8.544
329,1435996974577,-14.181,-43.261,8.544
330,1435996974598,-14.181,-43.261,8.544
331,1435996974617,-14.181,-43.261,8.544
332,1435996974635,-14.181,-43.261,8.544
333,1435996974688,-14.181,-43.261,8.544
334,1435996974689,-14.181,-43.261,8.863
335,1435996974762,-14.181,-43.261,8.863
336,1435996974763,-14.181,-43.261,8.863
337,1435996974764,-14.181,-43.261,8.863
338,1435996974765,-14.181,-43.261,8.863
339,1435996974787,-14.181,-43.261,8.863
340,1435996974796,-14.181,-43.261,8.863
341,1435996974819,-14.181,-43.261,8.863
342,1435996974836,-14.181,-43.261,8.863
343,1435996974856,-14.181,-43.261,8.863
344,1435996974876,-14.181,-43.261,8.863
345,1435996974896,-14.181,-43.261,8.863
346,1435996974999,-14.181,-43.261,8.863
347,1435996975000,-14.181,-43.261,8.863
348,1435996975001,-14.181,-43.261,8.863
349,1435996975002,-14.181,-43.261,8.863
350,1435996975003,-14.181,-43.261,8.863
351,1435996975016,-14.181,-43.261,8.863
352,1435996975036,-14.181,-43.261,8.863
353,1435996975057,-14.181,-43.261,8.863
354,1435996975077,-14.181,-43.261,8.863
355,1435996975098,-14.181,-43.261,8.863
356,1435996975117,-14.181,-43.261,8.863
357,1435996975138,-14.181,-43.261,8.863
358,1435996975163,-14.181,-43.261,8.863
359,1435996975177,-14.181,-43.261,8.863
360,1435996975197,-14.181,-43.261,8.863
361,1435996975217,-14.181,-43.261,8.863
362,1435996975236,-14.181,-43.261,8.863
363,1435996975256,-14.181,-43.261,8.863
364,1435996975275,-14.181,-43.261,8.863
365,1435996975296,-14.181,-43.261,8.863
366,1435996975316,-14.485,-43.261,8.863
367,1435996975336,-14.485,-43.261,8.863
368,1435996975357,-14.485,-43.261,8.863
369,1435996975376,-14.485,-43.261,8.863
370,1435996975398,-14.485,-43.261,8.863
371,1435996975483,-14.485,-43.261,8.863
372,1435996975484,-14.485,-43.261,8.863
373,1435996975485,-14.485,-43.261,8.863
374,1435996975486,-14.485,-43.261,8.863
375,1435996975496,-14.485,-43.261,8.863
376,1435996975516,-14.485,-43.261,8.863
377,1435996975537,-14.485,-43.261,8.863
378,1435996975557,-14.485,-43.261,8.863
379,1435996975579,-14.485,-43.261,8.863
380,1435996975597,-14.485,-43.261,8.863
381,1435996975618,-14.485,-43.261,8.863
382,1435996975637,-14.485,-43.261,8.863
383,1435996975658,-14.178,-43.261,8.863
384,1435996975677,-14.178,-43.261,8.863
385,1435996975697,-14.178,-43.261,8.863
386,1435996975717,-14.178,-43.261,8.863
387,1435996975737,-14.178,-43.261,8.863
388,1435996975759,-14.178,-43.261,8.863
389,1435996975777,-13.804,-43.261,8.863
390,1435996975797,-13.804,-43.261,8.863
391,1435996975823,-13.804,-43.261,8.863
392,1435996975837,-13.804,-43.261,8.863
393,1435996975860,-13.804,-43.261,8.863
394,1435996975877,-13.43,-43.261,8.863
395,1435996975897,-13.43,-43.261,9.188
396,1435996975919,-13.43,-43.261,9.188
397,1435996975938,-13.43,-43.261,9.188
398,1435996975958,-13.108,-43.261,9.188
399,1435996975977,-13.108,-43.261,9.584
400,1435996976000,-13.108,-43.261,9.584
401,1435996976023,-13.108,-43.261,9.584
402,1435996976037,-13.108,-43.261,9.934
403,1435996976057,-12.782,-43.261,9.934
404,1435996976080,-12.782,-43.261,9.934
405,1435996976126,-12.782,-43.261,10.346
406,1435996976127,-12.782,-43.261,10.346
407,1435996976150,-12.782,-43.261,10.731
408,1435996976157,-12.782,-43.261,11.085
409,1435996976177,-12.782,-43.261,11.561
410,1435996976204,-12.782,-43.261,12.088
411,1435996976217,-12.782,-42.915,12.615
412,1435996976238,-12.782,-42.915,13.197
413,1435996976259,-13.104,-42.915,13.742
414,1435996976277,-13.104,-42.915,14.108
415,1435996976298,-13.426,-42.532,15.254
416,1435996976319,-13.786,-42.532,15.254
417,1435996976343,-14.421,-42.532,16.206
418,1435996976360,-15.037,-42.068,16.587
419,1435996976380,-15.777,-42.068,17.337
420,1435996976398,-16.799,-41.264,18.574
421,1435996976418,-17.808,-40.586,19.534
422,1435996976440,-18.475,-39.579,19.534
423,1435996976457,-19.596,-38.598,20.765
424,1435996976478,-20.506,-37.96,20.765
425,1435996976499,-21.296,-37.403,21.542
426,1435996976519,-21.861,-36.656,22.401
427,1435996976540,-22.528,-36.166,22.401
428,1435996976560,-22.528,-36.166,22.401
429,1435996976578,-22.528,-36.166,22.401
430,1435996976598,-22.528,-36.166,22.015
431,1435996976621,-22.528,-36.166,21.322
432,1435996976641,-22.528,-36.94,21.002
433,1435996976659,-22.009,-36.94,20.541
434,1435996976680,-22.009,-37.416,20.541
435,1435996976700,-21.707,-37.416,19.471
436,1435996976721,-21.707,-37.416,19.105
437,1435996976740,-21.707,-37.731,18.064
438,1435996976760,-21.707,-37.731,16.896
439,1435996976778,-21.707,-37.731,15.614
440,1435996976798,-21.707,-38.717,14.207
441,1435996976886,-22.013,-39.195,13.638
442,1435996976887,-22.013,-40.315,11.891
443,1435996976888,-22.013,-40.844,10.626
444,1435996976889,-22.013,-41.279,9.376
445,1435996976909,-21.22,-41.76,8.856
446,1435996976918,-20.564,-41.76,8.07
447,1435996976941,-20.094,-42.243,7.009
448,1435996976961,-19.549,-42.695,6.132
449,1435996976978,-19.549,-42.695,5.691
450,1435996976998,-18.843,-42.695,5.239
451,1435996977023,-18.843,-42.695,4.521
452,1435996977038,-18.357,-42.695,4.873
453,1435996977059,-18.357,-43.258,4.873
454,1435996977078,-18.357,-43.258,4.873
455,1435996977098,-18.357,-43.258,4.873
456,1435996977118,-18.357,-43.258,4.873
457,1435996977138,-18.357,-43.258,4.873
458,1435996977159,-18.357,-43.258,4.873
459,1435996977180,-18.357,-43.258,4.873
460,1435996977198,-18.357,-43.258,4.873
461,1435996977217,-17.997,-43.258,5.227
462,1435996977241,-17.997,-43.258,5.227
463,1435996977262,-17.997,-43.632,5.227
464,1435996977280,-17.692,-43.632,5.227
465,1435996977299,-17.692,-43.632,5.227
466,1435996977320,-17.692,-43.632,4.811
467,1435996977339,-17.692,-43.632,4.811
468,1435996977360,-17.692,-43.965,4.811
469,1435996977382,-17.692,-43.965,4.811
470,1435996977400,-17.692,-43.965,4.811
471,1435996977419,-17.692,-43.965,4.811
472,1435996977442,-17.692,-43.965,4.811
473,1435996977459,-17.692,-43.965,4.811
474,1435996977478,-17.692,-43.965,4.811
475,1435996977500,-17.692,-43.965,4.811
476,1435996977522,-17.692,-43.965,4.811
477,1435996977539,-17.692,-44.268,4.811
478,1435996977566,-17.692,-44.268,4.501
479,1435996977618,-17.692,-44.268,4.501
480,1435996977619,-17.692,-44.268,4.501
481,1435996977620,-17.692,-44.268,4.501
482,1435996977638,-17.692,-44.268,4.501
483,1435996977661,-17.692,-44.63,4.501
484,1435996977678,-17.692,-44.63,4.501
485,1435996977700,-17.692,-44.63,4.501
486,1435996977720,-17.692,-44.63,4.501
487,1435996977739,-17.692,-44.63,4.501
488,1435996977762,-17.692,-44.63,4.501
489,1435996977781,-17.692,-44.97,4.501
490,1435996977805,-17.692,-44.97,4.501
491,1435996977823,-17.692,-44.97,4.501
492,1435996977841,-17.692,-44.97,4.501
493,1435996977860,-17.376,-44.97,4.501
494,1435996977879,-17.376,-45.315,4.501
495,1435996977900,-17.376,-45.315,4.501
496,1435996977922,-17.376,-45.315,4.501
497,1435996977942,-17.376,-45.315,4.92
498,1435996977961,-17.376,-45.315,4.92
499,1435996977981,-17.376,-45.315,5.583
500,1435996978002,-17.376,-45.637,5.583
501,1435996978019,-17.376,-45.637,5.583
