id,attr_time,attr_x,attr_y,attr_z
1,1435996968019,12.391,-41.636,2.023
2,1435996968068,12.391,-41.636,2.023
3,1435996968069,12.391,-41.636,2.023
4,1435996968088,12.391,-41.636,2.023
5,1435996968114,12.391,-41.636,2.023
6,1435996968119,12.391,-41.636,2.023
7,1435996968139,12.391,-41.636,2.023
8,1435996968159,12.391,-41.636,2.023
9,1435996968180,12.391,-41.636,2.023
10,1435996968201,12.391,-41.636,2.023
11,1435996968223,12.391,-41.636,2.023
12,1435996968241,12.391,-41.636,2.023
13,1435996968260,12.391,-41.636,2.023
14,1435996968280,12.391,-41.636,2.023
15,1435996968299,12.391,-41.636,2.023
16,1435996968319,12.391,-41.636,2.023
17,1435996968340,12.391,-41.636,2.023
18,1435996968365,12.391,-41.636,2.023
19,1435996968382,12.391,-41.636,2.023
20,1435996968402,12.391,-41.636,2.023
21,1435996968422,12.391,-41.636,2.023
22,1435996968440,12.391,-41.636,2.023
23,1435996968461,12.391,-41.636,2.023
24,1435996968480,12.391,-41.636,2.023
25,1435996968500,12.391,-41.636,2.023
26,1435996968519,12.391,-41.636,2.023
27,1435996968593,12.391,-41.636,2.023
28,1435996968594,12.391,-41.636,2.023
29,1435996968595,12.391,-41.636,2.023
30,1435996968604,12.391,-41.636,2.023
31,1435996968637,12.391,-41.636,2.023
32,1435996968640,12.391,-41.636,2.023
33,1435996968660,12.391,-41.636,2.023
34,1435996968680,12.391,-41.636,2.023
35,1435996968700,12.391,-41.636,2.023
36,1435996968804,12.391,-41.636,2.023
37,1435996968805,12.391,-41.636,2.023
38,1435996968806,12.391,-41.636,2.023
39,1435996968807,12.391,-41.636,2.023
40,1435996968808,12.391,-41.636,2.023
41,1435996968824,12.391,-41.636,2.023
42,1435996968842,12.391,-41.636,1.718
43,1435996968865,12.391,-41.636,1.718
44,1435996968885,12.391,-41.636,1.718
45,1435996968905,12.391,-41.636,1.718
46,1435996968923,12.391,-41.636,1.718
47,1435996968941,12.391,-41.636,1.718
48,1435996968961,12.391,-41.636,1.718
49,1435996968981,12.391,-41.636,1.718
50,1435996969004,12.391,-41.636,1.718
51,1435996969025,12.391,-41.636,1.718
52,1435996969045,12.391,-41.636,1.718
53,1435996969062,12.391,-41.636,1.718
54,1435996969086,12.391,-41.636,1.718
55,1435996969149,12.391,-41.636,1.718
56,1435996969153,12.391,-41.636,1.718
57,1435996969166,12.391,-41.636,1.718
58,1435996969167,12.391,-41.636,1.718
59,1435996969206,12.391,-41.636,1.718
60,1435996969207,12.391,-41.636,1.718
61,1435996969243,12.391,-41.636,1.718
62,1435996969244,12.391,-41.636,1.718
63,1435996969261,12.391,-41.636,1.718
64,1435996969280,12.391,-41.636,1.718
65,1435996969300,12.391,-41.636,1.718
66,1435996969320,12.391,-41.636,1.718
67,1435996969341,12.391,-41.636,1.718
68,1435996969362,12.391,-41.636,1.718
69,1435996969382,12.391,-41.636,1.718
70,1435996969403,12.391,-41.636,1.718
71,1435996969423,12.391,-41.636,1.718
72,1435996969444,12.391,-41.636,1.718
73,1435996969464,12.391,-41.636,1.718
74,1435996969484,12.391,-41.636,1.718
75,1435996969504,12.391,-41.636,1.718
76,1435996969522,12.391,-41.636,1.718
77,1435996969541,12.391,-41.636,1.718
78,1435996969630,12.391,-41.636,1.718
79,1435996969631,12.391,-41.636,1.718
80,1435996969632,12.391,-41.636,1.718
81,1435996969633,12.391,-41.636,1.718
82,1435996969661,12.391,-41.636,1.718
83,1435996969662,12.391,-41.636,1.718
84,1435996969704,12.391,-41.636,1.718
85,1435996969705,12.391,-41.636,1.718
86,1435996969721,12.391,-41.636,1.718
87,1435996969743,12.391,-41.636,1.718
88,1435996969762,12.391,-41.636,1.718
89,1435996969782,12.391,-41.636,1.718
90,1435996969801,12.391,-41.636,1.718
91,1435996969823,12.391,-41.636,1.718
92,1435996969843,12.391,-41.636,1.718
93,1435996969863,12.391,-41.636,1.718
94,1435996969883,12.391,-41.636,1.718
95,1435996969903,12.391,-41.636,1.718
96,1435996969924,12.391,-41.636,1.718
97,1435996969943,12.391,-41.636,1.718
98,1435996969964,12.391,-41.636,1.718
99,1435996969983,12.391,-41.636,1.718
100,1435996970003,12.391,-41.636,1.718
101,1435996970024,12.391,-41.636,1.718
102,1435996970042,12.391,-41.636,1.718
103,1435996970066,12.391,-41.636,2.033
104,1435996970110,12.391,-41.636,2.033
105,1435996970111,12.391,-41.636,2.033
106,1435996970121,12.391,-41.636,2.033
107,1435996970146,12.391,-41.636,2.033
108,1435996970162,12.391,-41.636,2.033
109,1435996970181,12.391,-41.636,2.033
110,1435996970206,12.391,-41.636,2.033
111,1435996970222,12.391,-41.636,2.033
112,1435996970242,12.391,-41.636,2.033
113,1435996970265,12.391,-41.636,2.033
114,1435996970282,12.391,-41.636,2.033
115,1435996970302,12.391,-41.636,2.033
116,1435996970323,12.391,-41.636,2.033
117,1435996970342,12.391,-41.636,2.033
118,1435996970363,12.391,-41.636,2.033
119,1435996970383,12.391,-41.636,2.033
120,1435996970403,12.391,-41.636,2.033
121,1435996970424,12.391,-41.636,2.033
122,1435996970444,12.391,-41.636,2.033
123,1435996970464,12.391,-41.636,2.033
124,1435996970482,12.391,-41.636,2.033
125,1435996970501,12.391,-41.636,1.724
126,1435996970521,12.391,-41.636,1.724
127,1435996970597,12.391,-41.636,1.724
128,1435996970599,12.391,-41.636,1.724
129,1435996970605,12.391,-41.636,1.724
130,1435996970606,12.391,-41.636,1.724
131,1435996970625,12.391,-41.636,1.724
132,1435996970642,12.391,-41.636,1.724
133,1435996970663,12.391,-41.636,1.724
134,1435996970682,12.391,-41.636,1.724
135,1435996970702,12.391,-41.636,1.724
136,1435996970724,12.391,-41.636,1.724
137,1435996970743,12.391,-41.636,1.724
138,1435996970762,12.391,-41.636,1.724
139,1435996970782,12.391,-41.636,1.724
140,1435996970802,12.391,-41.636,1.724
141,1435996970823,12.391,-41.636,1.724
142,1435996970842,12.391,-41.636,1.724
143,1435996970862,12.391,-41.636,1.724
144,1435996970882,12.391,-41.636,1.724
145,1435996970902,12.391,-41.636,1.724
146,1435996970922,12.391,-41.636,1.724
147,1435996970945,12.391,-41.636,1.724
148,1435996970965,12.391,-41.636,1.724
149,1435996970983,12.391,-41.636,1.724
150,1435996971002,12.391,-41.636,1.724
151,1435996971024,12.391,-41.636,1.724
152,1435996971045,12.391,-41.636,1.724
153,1435996971087,12.391,-41.636,1.724
154,1435996971088,12.391,-41.636,1.724
155,1435996971107,12.391,-41.636,1.724
156,1435996971123,12.391,-41.636,1.724
157,1435996971144,12.391,-41.636,1.724
158,1435996971162,12.391,-41.636,1.724
159,1435996971183,12.391,-41.636,1.724
160,1435996971203,12.391,-41.636,1.724
161,1435996971225,12.391,-41.636,1.724
162,1435996971243,12.391,-41.636,1.724
163,1435996971284,12.391,-41.636,1.724
164,1435996971285,12.391,-41.636,1.724
165,1435996971303,12.391,-41.636,1.724
166,1435996971327,12.391,-41.636,1.724
167,1435996971343,12.391,-41.636,1.724
168,1435996971363,12.391,-41.636,1.724
169,1435996971383,12.391,-41.636,1.724
170,1435996971402,12.391,-41.636,1.724
171,1435996971422,12.391,-41.636,1.724
172,1435996971448,12.391,-41.636,1.724
173,1435996971463,12.391,-41.636,1.724
174,1435996971483,12.391,-41.636,1.724
175,1435996971503,12.391,-41.636,1.724
176,1435996971526,12.391,-41.636,1.724
177,1435996971555,12.391,-41.636,1.724
178,1435996971567,12.391,-41.636,1.724
179,1435996971586,12.391,-41.636,1.724
180,1435996971602,12.391,-41.636,1.724
181,1435996971622,12.391,-41.636,1.724
182,1435996971643,12.391,-41.636,1.724
183,1435996971662,12.391,-41.636,1.724
184,1435996971683,12.391,-41.636,1.724
185,1435996971709,12.391,-41.636,1.724
186,1435996971740,12.391,-41.636,1.724
187,1435996971747,12.391,-41.636,2.053
188,1435996971765,12.391,-41.636,2.053
189,1435996971782,12.391,-41.636,2.053
190,1435996971804,12.391,-41.636,2.053
191,1435996971825,12.391,-41.636,2.053
192,1435996971844,12.391,-41.636,2.053
193,1435996971864,12.391,-41.636,2.053
194,1435996971884,12.391,-41.636,2.053
195,1435996971903,12.391,-41.636,2.053
196,1435996971925,12.391,-41.636,2.053
197,1435996971945,12.391,-41.636,2.053
198,1435996971964,12.391,-41.636,2.053
199,1435996971985,12.391,-41.636,2.053
200,1435996972012,12.391,-41.636,2.053
201,1435996972069,12.391,-41.636,2.053
202,1435996972070,12.391,-41.636,2.053
203,1435996972071,12.391,-41.636,2.053
204,1435996972089,12.391,-41.636,2.053
205,1435996972103,12.391,-41.636,2.053
206,1435996972134,12.391,-41.636,2.053
207,1435996972148,12.391,-41.636,2.053
208,1435996972165,12.391,-41.636,2.053
209,1435996972190,12.391,-41.636,2.053
210,1435996972204,12.391,-41.636,2.053
211,1435996972225,12.391,-41.636,2.053
212,1435996972246,12.391,-41.636,2.053
213,1435996972264,12.391,-41.636,2.053
214,1435996972283,12.391,-41.636,2.053
215,1435996972304,12.391,-41.636,2.053
216,1435996972327,12.391,-41.636,2.053
217,1435996972349,12.391,-41.636,2.053
218,1435996972364,12.391,-41.636,2.053
219,1435996972386,12.391,-41.636,2.053
220,1435996972405,12.391,-41.636,2.053
221,1435996972423,12.391,-41.636,2.053
222,1435996972443,12.391,-41.636,2.053
223,1435996972464,12.391,-41.636,2.053
224,1435996972487,12.391,-41.636,2.053
225,1435996972530,12.391,-41.636,2.053
226,1435996972531,12.391,-41.636,2.053
227,1435996972556,12.391,-41.636,2.053
228,1435996972565,12.391,-41.636,2.053
229,1435996972587,12.391,-41.636,2.053
230,1435996972605,12.391,-41.636,2.053
231,1435996972633,12.391,-41.636,2.053
232,1435996972647,12.391,-41.636,2.053
233,1435996972670,12.391,-41.636,2.053
234,1435996972684,12.391,-41.636,2.053
235,1435996972706,12.391,-41.636,2.053
236,1435996972724,12.391,-41.636,2.053
237,1435996972743,12.391,-41.636,2.053
238,1435996972766,12.391,-41.636,2.053
239,1435996972783,12.391,-41.636,2.053
240,1435996972803,12.391,-41.636,2.053
241,1435996972824,12.391,-41.636,2.053
242,1435996972846,12.391,-41.636,2.053
243,1435996972867,12.391,-41.636,2.053
244,1435996972886,12.391,-41.636,2.053
245,1435996972906,12.391,-41.636,2.053
246,1435996972924,12.391,-41.636,2.053
247,1435996972944,12.391,-41.636,2.053
248,1435996972965,12.391,-41.636,2.053
249,1435996972986,12.391,-41.636,2.053
250,1435996973040,12.391,-41.636,2.053
251,1435996973050,12.391,-41.636,2.053
252,1435996973051,12.391,-41.636,2.053
253,1435996973073,12.391,-41.636,2.053
254,1435996973084,12.391,-41.636,2.053
255,1435996973125,12.391,-41.636,2.053
256,1435996973126,12.391,-41.636,2.053
257,1435996973146,12.391,-41.636,2.053
258,1435996973166,12.391,-41.636,2.053
259,1435996973185,12.391,-41.636,2.053
260,1435996973205,12.391,-41.636,2.053
261,1435996973227,12.391,-41.636,2.053
262,1435996973244,12.391,-41.636,2.053
263,1435996973265,12.391,-41.636,2.053
264,1435996973285,12.391,-41.636,1.742
265,1435996973306,12.391,-41.636,1.742
266,1435996973328,12.391,-41.636,1.742
267,1435996973349,12.391,-41.636,1.742
268,1435996973370,12.391,-41.636,1.742
269,1435996973386,12.391,-41.636,1.742
270,1435996973405,12.391,-41.636,1.742
271,1435996973424,12.391,-41.636,1.742
272,1435996973444,12.391,-41.636,1.742
273,1435996973469,12.391,-41.636,1.742
274,1435996973485,12.391,-41.636,1.742
275,1435996973538,12.391,-41.636,1.742
276,1435996973539,12.391,-41.636,1.742
277,1435996973561,12.391,-41.636,1.742
278,1435996973581,12.391,-41.636,1.742
279,1435996973590,12.391,-41.636,1.742
280,1435996973605,12.391,-41.636,1.742
281,1435996973624,12.391,-41.636,1.742
282,1435996973651,12.391,-41.636,1.742
283,1435996973678,12.391,-41.636,1.742
284,1435996973719,12.391,-41.636,1.742
285,1435996973720,12.391,-41.636,1.742
286,1435996973735,12.391,-41.636,1.742
287,1435996973747,12.391,-41.636,1.742
288,1435996973767,12.391,-41.636,1.742
289,1435996973785,12.391,-41.636,1.742
290,1435996973808,12.391,-41.636,1.742
291,1435996973828,12.391,-41.636,1.742
292,1435996973848,12.391,-41.636,1.742
293,1435996973866,12.391,-41.636,1.742
294,1435996973889,12.391,-41.636,1.742
295,1435996973907,12.391,-41.636,1.742
296,1435996973928,12.391,-41.322,1.742
297,1435996973947,12.391,-41.322,1.742
298,1435996973969,12.391,-41.322,1.742
299,1435996973989,12.391,-41.322,1.742
300,1435996974008,12.391,-41.322,1.742
301,1435996974028,12.391,-41.322,1.742
302,1435996974050,12.391,-41.322,1.742
303,1435996974113,12.391,-41.322,1.742
304,1435996974114,12.391,-41.322,1.742
305,1435996974115,12.391,-41.322,1.742
306,1435996974134,12.391,-41.322,2.059
307,1435996974145,12.391,-41.322,2.059
308,1435996974186,12.391,-41.322,2.059
309,1435996974187,12.391,-41.322,2.059
310,1435996974207,12.391,-41.322,2.059
311,1435996974226,12.391,-41.322,2.059
312,1435996974245,12.391,-41.322,2.059
313,1435996974268,12.391,-41.322,2.059
314,1435996974288,12.391,-41.322,2.059
315,1435996974305,12.391,-41.322,2.059
316,1435996974328,12.391,-41.322,2.059
317,1435996974346,12.391,-41.322,2.059
318,1435996974368,12.391,-41.322,2.059
319,1435996974386,12.391,-41.322,2.059
320,1435996974406,12.391,-41.322,2.059
321,1435996974426,12.391,-41.322,2.059
322,1435996974448,12.391,-41.322,2.059
323,1435996974469,12.391,-41.322,2.059
324,1435996974488,12.391,-41.322,2.059
325,1435996974506,12.391,-41.322,2.059
326,1435996974541,12.391,-41.322,2.059
327,1435996974633,12.391,-41.322,2.059
328,1435996974634,12.391,-41.322,2.059
329,1435996974635,12.391,-41.322,2.059
330,1435996974636,12.391,-41.322,2.059
331,1435996974637,12.391,-41.322,2.059
332,1435996974679,12.391,-41.322,2.059
333,1435996974680,12.391,-41.322,2.059
334,1435996974685,12.391,-41.322,2.059
335,1435996974722,12.391,-41.322,2.059
336,1435996974730,12.391,-41.322,2.059
337,1435996974746,12.391,-41.622,2.059
338,1435996974766,12.391,-41.622,2.059
339,1435996974785,12.391,-41.622,2.059
340,1435996974808,12.391,-41.622,2.059
341,1435996974826,12.391,-41.622,2.059
342,1435996974847,12.391,-41.622,2.059
343,1435996974866,12.391,-41.622,2.059
344,1435996974890,12.391,-41.622,2.059
345,1435996974910,12.391,-41.622,2.059
346,1435996974931,12.391,-41.622,2.059
347,1435996974948,12.391,-41.622,2.059
348,1435996974966,12.391,-41.622,2.059
349,1435996974986,12.391,-41.622,2.059
350,1435996975007,12.391,-41.622,2.059
351,1435996975029,12.391,-41.622,2.059
352,1435996975049,12.391,-41.622,2.059
353,1435996975093,12.391,-41.622,2.059
354,1435996975094,12.391,-41.622,2.059
355,1435996975110,12.391,-41.622,2.059
356,1435996975126,12.391,-41.622,2.059
357,1435996975148,12.391,-41.622,2.059
358,1435996975166,12.391,-41.622,2.059
359,1435996975189,12.391,-41.622,2.059
360,1435996975207,12.391,-41.622,2.059
361,1435996975231,12.391,-41.622,2.059
362,1435996975247,12.391,-41.622,2.059
363,1435996975267,12.391,-41.622,2.059
364,1435996975289,12.391,-41.622,2.059
365,1435996975307,12.391,-41.622,2.059
366,1435996975329,12.391,-41.622,2.059
367,1435996975349,12.391,-41.622,2.059
368,1435996975369,12.391,-41.622,2.059
369,1435996975389,12.391,-41.622,2.059
370,1435996975409,12.391,-41.622,2.059
371,1435996975429,12.391,-41.622,2.059
372,1435996975450,12.391,-41.622,2.059
373,1435996975470,12.391,-41.622,2.059
374,1435996975490,12.391,-41.622,2.059
375,1435996975509,12.391,-41.622,2.059
376,1435996975589,12.391,-41.622,2.059
377,1435996975590,12.391,-41.622,2.059
378,1435996975591,12.391,-41.622,2.059
379,1435996975592,12.391,-41.622,2.059
380,1435996975609,12.391,-41.622,2.059
381,1435996975627,12.391,-41.622,2.059
382,1435996975650,12.391,-41.622,2.059
383,1435996975668,12.391,-41.622,2.059
384,1435996975686,12.391,-41.622,2.059
385,1435996975709,12.391,-41.622,2.059
386,1435996975728,12.391,-41.622,2.059
387,1435996975748,12.391,-41.622,2.059
388,1435996975769,12.391,-41.622,2.059
389,1435996975789,12.391,-41.622,2.059
390,1435996975806,12.391,-41.622,2.059
391,1435996975826,12.391,-41.622,1.751
392,1435996975847,12.391,-41.622,1.751
393,1435996975870,12.391,-41.622,1.751
394,1435996975888,12.391,-41.622,1.751
395,1435996975923,12.391,-41.622,1.751
396,1435996975926,12.391,-41.622,1.751
397,1435996975947,12.391,-41.622,1.751
398,1435996975969,12.391,-41.622,1.751
399,1435996975987,12.391,-41.622,1.751
400,1435996976010,12.391,-41.622,1.751
401,1435996976027,12.391,-41.622,1.751
402,1435996976074,12.391,-41.622,1.751
403,1435996976075,12.391,-41.622,1.751
404,1435996976095,12.391,-41.622,1.751
405,1435996976122,12.391,-41.622,1.751
406,1435996976127,12.391,-41.622,1.751
407,1435996976147,12.391,-41.622,1.751
408,1435996976172,12.391,-41.622,1.751
409,1435996976190,12.391,-41.622,1.751
410,1435996976210,12.391,-41.622,1.751
411,1435996976232,12.391,-41.622,1.751
412,1435996976248,12.391,-41.622,1.751
413,1435996976270,12.391,-41.622,1.751
414,1435996976287,12.391,-41.622,1.751
415,1435996976309,12.391,-41.622,1.751
416,1435996976329,12.391,-41.622,1.751
417,1435996976349,12.391,-41.622,1.751
418,1435996976371,12.391,-41.622,1.751
419,1435996976393,12.391,-41.622,1.751
420,1435996976412,12.391,-41.622,1.751
421,1435996976430,12.391,-41.622,1.751
422,1435996976448,12.391,-41.622,1.751
423,1435996976469,12.391,-41.622,1.751
424,1435996976490,12.391,-41.622,1.751
425,1435996976516,12.391,-41.622,1.751
426,1435996976600,12.391,-41.622,1.751
427,1435996976601,12.391,-41.622,1.751
428,1435996976602,12.391,-41.622,1.751
429,1435996976603,12.391,-41.308,1.751
430,1435996976632,12.391,-41.308,1.751
431,1435996976633,12.391,-41.308,1.751
432,1435996976676,12.391,-41.308,1.751
433,1435996976677,12.391,-41.308,1.751
434,1435996976691,12.091,-41.308,1.751
435,1435996976711,12.091,-41.308,1.751
436,1435996976728,12.091,-41.308,1.751
437,1435996976749,12.091,-41.308,1.751
438,1435996976769,12.091,-41.308,1.751
439,1435996976791,12.091,-41.308,1.751
440,1435996976808,12.091,-41.308,1.751
441,1435996976828,12.091,-41.308,1.751
442,1435996976848,12.091,-41.308,1.751
443,1435996976871,12.091,-41.308,1.751
444,1435996976891,12.091,-41.308,1.751
445,1435996976908,12.091,-41.308,1.751
446,1435996976931,12.091,-41.308,1.751
447,1435996976949,12.091,-41.308,1.751
448,1435996976970,12.091,-41.308,1.751
449,1435996976989,12.091,-41.308,1.751
450,1435996977009,12.091,-41.308,1.751
451,1435996977028,12.091,-41.612,1.751
452,1435996977085,12.4,-41.612,1.751
453,1435996977086,12.4,-41.612,1.751
454,1435996977088,12.4,-41.612,1.751
455,1435996977114,12.4,-41.612,1.751
456,1435996977157,12.4,-41.612,1.751
457,1435996977158,12.4,-41.612,1.751
458,1435996977173,12.4,-41.612,1.751
459,1435996977189,12.4,-41.612,1.751
460,1435996977215,12.4,-41.612,1.751
461,1435996977229,12.4,-41.612,1.751
462,1435996977315,12.4,-41.612,1.751
463,1435996977316,12.4,-41.612,1.751
464,1435996977317,12.4,-41.612,1.751
465,1435996977318,12.4,-41.612,1.751
466,1435996977352,12.4,-41.612,1.751
467,1435996977353,12.4,-41.612,1.751
468,1435996977381,12.4,-41.612,1.751
469,1435996977388,12.4,-41.612,1.751
470,1435996977408,12.4,-41.612,1.751
471,1435996977428,12.4,-41.612,1.751
472,1435996977448,12.4,-41.612,1.751
473,1435996977469,12.4,-41.612,1.751
474,1435996977488,12.4,-41.612,1.751
475,1435996977509,12.4,-41.612,1.751
476,1435996977529,12.4,-41.612,1.751
477,1435996977570,12.4,-41.612,1.751
478,1435996977571,12.4,-41.612,1.751
479,1435996977597,12.4,-41.612,1.751
480,1435996977609,12.4,-41.612,1.751
481,1435996977628,12.4,-41.612,1.751
482,1435996977653,12.4,-41.612,1.751
483,1435996977670,12.4,-41.612,1.751
484,1435996977688,12.4,-41.612,1.751
485,1435996977708,12.4,-41.612,1.751
486,1435996977728,12.4,-41.612,1.751
487,1435996977749,12.4,-41.612,1.751
488,1435996977768,12.4,-41.612,1.751
489,1435996977791,12.4,-41.612,1.751
490,1435996977808,12.4,-41.612,1.751
491,1435996977829,12.4,-41.612,1.751
492,1435996977849,12.4,-41.612,1.751
493,1435996977872,12.4,-41.612,1.751
494,1435996977892,12.4,-41.612,1.751
495,1435996977912,12.4,-41.612,1.751
496,1435996977931,12.4,-41.612,1.751
497,1435996977949,12.4,-41.612,1.751
498,1435996977969,12.4,-41.612,1.751
499,1435996977989,12.4,-41.612,1.751
500,1435996978009,12.4,-41.612,1.751
501,1435996978030,12.4,-41.612,1.751
502,1435996978050,12.059,-41.612,2.079
503,1435996978069,12.059,-41.612,2.079
504,1435996978089,12.059,-41.612,2.079
505,1435996978110,12.059,-41.612,2.079
506,1435996978130,12.059,-41.612,2.079
507,1435996978149,11.73,-41.612,2.079
508,1435996978168,11.73,-41.612,2.079
509,1435996978189,11.73,-41.612,2.438
510,1435996978212,11.73,-41.612,2.438
511,1435996978232,11.73,-41.612,2.438
512,1435996978249,11.428,-41.612,2.438
513,1435996978270,11.428,-41.612,2.438
514,1435996978292,11.428,-41.612,2.438
515,1435996978311,11.428,-41.612,2.438
516,1435996978330,11.428,-41.612,2.438
517,1435996978351,11.428,-41.612,2.438
