id,attr_time,attr_light
1,1436179573415,9.0
2,1436179573436,9.0
3,1436179573454,9.0
4,1436179573474,9.0
5,1436179573493,9.0
6,1436179573513,9.0
7,1436179573534,9.0
8,1436179573555,9.0
9,1436179573619,9.0
10,1436179573620,9.0
11,1436179573621,9.0
12,1436179573634,9.0
13,1436179573657,9.0
14,1436179573673,9.0
15,1436179573694,9.0
16,1436179573714,9.0
17,1436179573735,9.0
18,1436179573755,9.0
19,1436179573773,9.0
20,1436179573794,9.0
21,1436179573815,9.0
22,1436179573836,9.0
23,1436179573853,9.0
24,1436179573874,9.0
25,1436179573893,9.0
26,1436179573914,9.0
27,1436179573936,9.0
28,1436179573953,9.0
29,1436179573976,9.0
30,1436179573994,9.0
31,1436179574017,9.0
32,1436179574034,9.0
33,1436179574054,9.0
34,1436179574074,9.0
35,1436179574093,9.0
36,1436179574129,9.0
37,1436179574133,9.0
38,1436179574153,9.0
39,1436179574173,9.0
40,1436179574193,9.0
41,1436179574215,9.0
42,1436179574236,9.0
43,1436179574253,9.0
44,1436179574283,9.0
45,1436179574342,9.0
46,1436179574343,9.0
47,1436179574344,9.0
48,1436179574358,9.0
49,1436179574375,9.0
50,1436179574404,9.0
51,1436179574415,9.0
52,1436179574435,9.0
53,1436179574454,9.0
54,1436179574474,9.0
55,1436179574494,9.0
56,1436179574522,9.0
57,1436179574534,9.0
58,1436179575775,9.0
59,1436179575776,9.0
60,1436179575777,9.0
61,1436179575778,9.0
62,1436179575779,9.0
63,1436179575780,9.0
64,1436179575781,9.0
65,1436179575782,9.0
66,1436179575783,9.0
67,1436179575784,9.0
68,1436179575785,9.0
69,1436179575786,9.0
70,1436179575787,9.0
71,1436179575788,9.0
72,1436179575789,9.0
73,1436179575790,9.0
74,1436179575791,9.0
75,1436179575792,9.0
76,1436179575793,9.0
77,1436179575794,9.0
78,1436179575795,9.0
79,1436179575796,9.0
80,1436179575797,9.0
81,1436179575798,9.0
82,1436179575799,9.0
83,1436179575800,9.0
84,1436179575801,9.0
85,1436179575802,9.0
86,1436179575803,9.0
87,1436179575804,9.0
88,1436179575805,9.0
89,1436179575806,9.0
90,1436179575807,9.0
91,1436179575808,9.0
92,1436179575809,9.0
93,1436179575810,9.0
94,1436179575811,9.0
95,1436179575812,9.0
96,1436179575813,9.0
97,1436179575814,9.0
98,1436179575815,9.0
99,1436179575816,9.0
100,1436179575817,9.0
101,1436179575818,9.0
102,1436179575819,9.0
103,1436179575820,9.0
104,1436179575821,9.0
105,1436179575822,9.0
106,1436179575823,9.0
107,1436179575824,9.0
108,1436179575825,9.0
109,1436179575826,9.0
110,1436179575827,9.0
111,1436179575828,9.0
112,1436179575829,9.0
113,1436179575830,9.0
114,1436179575831,9.0
115,1436179575832,9.0
116,1436179575833,9.0
117,1436179575834,9.0
118,1436179575835,9.0
119,1436179575836,9.0
120,1436179575837,9.0
121,1436179575838,9.0
122,1436179575839,10.0
123,1436179575854,10.0
124,1436179575874,10.0
125,1436179575894,10.0
126,1436179575914,11.0
127,1436179575934,11.0
128,1436179575954,11.0
129,1436179575974,11.0
130,1436179575997,11.0
131,1436179576018,11.0
132,1436179576037,11.0
133,1436179576056,11.0
134,1436179576078,11.0
135,1436179576098,11.0
136,1436179576118,11.0
137,1436179576138,11.0
138,1436179576158,11.0
139,1436179576177,11.0
140,1436179576195,11.0
141,1436179576216,10.0
142,1436179576239,10.0
143,1436179576259,10.0
144,1436179576276,10.0
145,1436179576295,10.0
146,1436179576326,10.0
147,1436179576424,9.0
148,1436179576436,9.0
149,1436179576437,9.0
150,1436179576438,9.0
151,1436179576439,9.0
152,1436179576440,9.0
153,1436179576459,9.0
154,1436179576476,9.0
155,1436179576497,9.0
156,1436179576516,8.0
157,1436179576789,8.0
158,1436179576790,8.0
159,1436179576791,8.0
160,1436179576792,8.0
161,1436179576793,8.0
162,1436179576794,8.0
163,1436179576795,8.0
164,1436179576796,8.0
165,1436179576797,8.0
166,1436179576798,8.0
167,1436179576799,8.0
168,1436179576800,8.0
169,1436179576801,9.0
170,1436179576802,9.0
171,1436179576815,9.0
172,1436179576835,9.0
173,1436179576855,9.0
174,1436179576879,9.0
175,1436179576895,9.0
176,1436179576915,9.0
177,1436179576935,9.0
178,1436179576955,9.0
179,1436179576975,9.0
180,1436179576995,9.0
181,1436179577015,9.0
182,1436179577035,9.0
183,1436179577055,9.0
184,1436179577075,9.0
185,1436179577096,9.0
186,1436179577115,9.0
187,1436179577135,9.0
188,1436179577155,9.0
189,1436179577175,9.0
190,1436179577200,10.0
191,1436179577217,10.0
192,1436179577240,10.0
193,1436179577260,9.0
194,1436179577276,9.0
195,1436179577296,9.0
196,1436179577318,9.0
197,1436179577339,9.0
198,1436179577359,9.0
199,1436179577376,9.0
200,1436179577402,9.0
201,1436179577417,9.0
202,1436179577439,9.0
203,1436179577460,10.0
204,1436179577479,10.0
205,1436179577499,10.0
206,1436179577519,10.0
207,1436179577539,11.0
208,1436179577559,11.0
209,1436179577579,11.0
210,1436179577600,11.0
211,1436179577620,11.0
212,1436179577638,12.0
213,1436179577663,12.0
214,1436179577698,12.0
215,1436179577699,12.0
216,1436179577716,12.0
217,1436179577738,12.0
218,1436179577756,12.0
219,1436179577780,12.0
220,1436179577799,12.0
221,1436179577820,11.0
222,1436179577837,11.0
223,1436179577858,10.0
224,1436179577880,10.0
225,1436179577901,10.0
226,1436179577920,10.0
227,1436179577940,10.0
228,1436179577960,10.0
229,1436179577980,9.0
230,1436179578000,9.0
231,1436179578020,9.0
232,1436179578040,9.0
233,1436179578061,9.0
234,1436179578080,9.0
235,1436179578100,9.0
236,1436179578120,9.0
237,1436179578139,9.0
238,1436179578159,9.0
239,1436179578182,9.0
240,1436179578201,9.0
241,1436179578222,9.0
242,1436179578237,9.0
243,1436179578259,9.0
244,1436179578277,9.0
245,1436179578299,9.0
246,1436179578343,9.0
247,1436179578411,9.0
248,1436179578412,9.0
249,1436179578413,9.0
250,1436179578414,9.0
251,1436179578421,9.0
252,1436179578441,9.0
253,1436179578462,9.0
254,1436179578478,9.0
255,1436179578498,9.0
256,1436179578529,9.0
257,1436179578540,8.0
258,1436179578565,8.0
259,1436179578579,8.0
260,1436179578602,8.0
261,1436179578618,8.0
262,1436179578641,8.0
263,1436179578661,8.0
264,1436179578681,9.0
265,1436179578702,9.0
266,1436179578718,10.0
267,1436179578739,10.0
268,1436179578761,11.0
269,1436179578783,11.0
270,1436179578808,11.0
271,1436179578821,11.0
272,1436179578840,12.0
273,1436179578862,12.0
274,1436179578880,13.0
275,1436179578900,13.0
276,1436179578921,14.0
277,1436179578941,14.0
278,1436179578960,15.0
279,1436179578981,15.0
280,1436179579001,15.0
281,1436179579021,15.0
282,1436179579039,15.0
283,1436179579068,15.0
284,1436179579129,15.0
285,1436179579130,15.0
286,1436179579131,15.0
287,1436179579143,15.0
288,1436179579158,15.0
289,1436179579178,15.0
290,1436179579201,15.0
291,1436179579221,15.0
292,1436179579241,15.0
293,1436179579258,16.0
294,1436179579280,16.0
295,1436179579300,16.0
296,1436179579322,18.0
297,1436179579341,18.0
298,1436179579361,20.0
299,1436179579385,20.0
300,1436179579400,22.0
301,1436179579418,22.0
302,1436179579440,24.0
303,1436179579462,24.0
304,1436179579481,27.0
305,1436179579501,27.0
306,1436179579535,29.0
307,1436179579538,30.0
308,1436179579559,30.0
309,1436179579579,30.0
310,1436179579599,30.0
311,1436179579620,30.0
312,1436179579639,30.0
313,1436179579662,29.0
314,1436179579682,29.0
315,1436179579703,27.0
316,1436179579722,27.0
317,1436179579743,26.0
318,1436179579760,26.0
319,1436179579788,26.0
320,1436179579855,26.0
321,1436179579857,28.0
322,1436179579860,29.0
323,1436179579861,29.0
324,1436179579883,30.0
325,1436179579899,30.0
326,1436179579919,31.0
327,1436179579940,31.0
328,1436179579960,32.0
329,1436179579981,32.0
330,1436179580005,34.0
331,1436179580019,34.0
332,1436179580042,36.0
333,1436179580062,36.0
334,1436179580081,39.0
335,1436179580102,39.0
336,1436179580122,42.0
337,1436179580142,46.0
338,1436179580162,46.0
339,1436179580180,49.0
340,1436179580202,49.0
341,1436179580222,52.0
342,1436179580240,52.0
343,1436179580262,54.0
344,1436179580282,54.0
345,1436179580301,58.0
346,1436179580319,58.0
347,1436179580340,61.0
348,1436179580365,61.0
349,1436179580380,62.0
350,1436179580408,63.0
351,1436179580422,63.0
352,1436179580440,63.0
353,1436179580461,63.0
354,1436179580591,63.0
355,1436179580592,63.0
356,1436179580593,65.0
357,1436179580594,65.0
358,1436179580595,67.0
359,1436179580596,67.0
360,1436179580663,70.0
361,1436179580664,70.0
362,1436179580665,72.0
363,1436179580666,72.0
364,1436179580691,74.0
365,1436179580729,75.0
366,1436179580730,75.0
367,1436179580752,75.0
368,1436179580760,75.0
369,1436179580779,73.0
370,1436179580801,73.0
371,1436179580819,70.0
372,1436179580840,70.0
373,1436179580863,66.0
374,1436179580882,66.0
375,1436179580901,62.0
376,1436179580921,62.0
377,1436179580940,60.0
378,1436179580960,60.0
379,1436179580982,60.0
380,1436179581002,64.0
381,1436179581020,64.0
382,1436179581042,67.0
383,1436179581060,67.0
384,1436179581079,70.0
385,1436179581100,70.0
386,1436179581122,74.0
387,1436179581144,74.0
388,1436179581165,76.0
389,1436179581182,76.0
390,1436179581200,77.0
391,1436179581220,77.0
392,1436179581240,78.0
393,1436179581260,78.0
394,1436179581282,79.0
395,1436179581344,80.0
396,1436179581345,80.0
397,1436179581346,81.0
398,1436179581361,81.0
399,1436179581381,82.0
400,1436179581400,82.0
401,1436179581421,84.0
402,1436179581443,84.0
403,1436179581461,86.0
404,1436179581482,86.0
405,1436179581501,87.0
406,1436179581524,87.0
407,1436179581543,88.0
408,1436179581562,87.0
409,1436179581584,87.0
410,1436179581604,86.0
411,1436179581623,86.0
412,1436179581644,84.0
413,1436179581664,84.0
414,1436179581684,82.0
415,1436179581704,82.0
416,1436179581724,85.0
417,1436179581743,85.0
418,1436179581764,89.0
419,1436179581780,89.0
420,1436179581802,94.0
421,1436179581821,94.0
422,1436179581845,99.0
423,1436179581866,104.0
424,1436179581886,104.0
425,1436179581901,108.0
426,1436179581921,108.0
427,1436179581941,110.0
428,1436179581961,110.0
429,1436179581983,110.0
430,1436179582006,110.0
431,1436179582072,108.0
432,1436179582073,108.0
433,1436179582074,103.0
434,1436179582081,103.0
435,1436179582108,100.0
436,1436179582124,100.0
437,1436179582141,98.0
438,1436179582163,100.0
439,1436179582181,100.0
440,1436179582205,105.0
441,1436179582228,105.0
442,1436179582242,109.0
443,1436179582263,109.0
444,1436179582285,113.0
445,1436179582304,113.0
446,1436179582324,119.0
447,1436179582344,119.0
448,1436179582361,123.0
449,1436179582381,123.0
450,1436179582401,127.0
451,1436179582424,131.0
452,1436179582444,131.0
453,1436179582463,135.0
454,1436179582485,135.0
455,1436179582505,137.0
456,1436179582525,137.0
457,1436179582543,137.0
458,1436179582564,137.0
459,1436179582584,137.0
460,1436179582604,137.0
461,1436179582625,137.0
462,1436179582642,137.0
463,1436179582664,137.0
464,1436179582684,137.0
465,1436179582702,138.0
466,1436179582802,140.0
467,1436179582803,140.0
468,1436179582804,142.0
469,1436179582805,142.0
470,1436179582806,144.0
471,1436179582824,144.0
472,1436179582850,144.0
473,1436179582863,144.0
474,1436179582882,145.0
475,1436179582903,145.0
476,1436179582924,153.0
477,1436179582946,153.0
478,1436179582962,168.0
479,1436179582983,168.0
480,1436179583005,186.0
481,1436179583025,207.0
482,1436179583046,207.0
483,1436179583064,227.0
484,1436179583085,227.0
485,1436179583105,245.0
486,1436179583125,245.0
487,1436179583145,255.0
488,1436179583164,255.0
489,1436179583184,255.0
490,1436179583202,255.0
491,1436179583224,252.0
492,1436179583245,252.0
493,1436179583263,245.0
494,1436179583283,239.0
495,1436179583302,239.0
496,1436179583333,239.0
497,1436179583343,239.0
498,1436179583363,248.0
499,1436179583384,248.0
500,1436179583406,260.0
501,1436179583424,260.0
502,1436179583445,270.0
503,1436179583467,270.0
504,1436179583520,276.0
505,1436179583521,276.0
506,1436179583524,265.0
507,1436179583542,265.0
508,1436179583566,253.0
509,1436179583583,242.0
510,1436179583602,242.0
511,1436179583625,239.0
512,1436179583642,239.0
513,1436179583664,239.0
514,1436179583684,239.0
515,1436179583704,241.0
516,1436179583723,241.0
517,1436179583746,241.0
518,1436179583766,241.0
519,1436179583783,241.0
520,1436179583804,241.0
521,1436179583826,239.0
522,1436179583846,239.0
523,1436179583866,236.0
524,1436179583883,232.0
525,1436179583905,232.0
526,1436179583924,229.0
527,1436179583944,229.0
528,1436179583966,226.0
529,1436179583984,226.0
530,1436179584005,220.0
531,1436179584026,220.0
532,1436179584046,212.0
533,1436179584066,212.0
534,1436179584086,202.0
535,1436179584104,202.0
536,1436179584126,194.0
537,1436179584144,187.0
538,1436179584165,187.0
539,1436179584185,187.0
540,1436179584248,187.0
541,1436179584249,192.0
542,1436179584250,192.0
543,1436179584272,202.0
544,1436179584283,202.0
545,1436179584307,213.0
546,1436179584324,213.0
547,1436179584344,223.0
548,1436179584366,223.0
549,1436179584385,229.0
550,1436179584405,229.0
551,1436179584424,231.0
552,1436179584444,228.0
553,1436179584464,228.0
554,1436179584484,224.0
555,1436179584504,224.0
556,1436179584524,220.0
557,1436179584547,220.0
558,1436179584567,214.0
559,1436179584584,214.0
560,1436179584606,209.0
561,1436179584624,209.0
562,1436179584644,207.0
563,1436179584671,207.0
564,1436179584684,208.0
565,1436179584707,208.0
566,1436179584724,209.0
567,1436179584744,211.0
568,1436179584767,211.0
569,1436179584784,213.0
570,1436179584805,213.0
571,1436179584824,214.0
572,1436179584844,214.0
573,1436179584864,214.0
574,1436179584884,214.0
575,1436179584904,217.0
576,1436179584924,217.0
577,1436179584944,220.0
578,1436179584977,220.0
579,1436179584988,222.0
580,1436179585004,224.0
581,1436179585024,224.0
582,1436179585048,225.0
583,1436179585064,225.0
584,1436179585084,226.0
585,1436179585106,226.0
586,1436179585126,225.0
587,1436179585145,225.0
588,1436179585165,225.0
589,1436179585187,225.0
590,1436179585204,224.0
591,1436179585227,224.0
592,1436179585247,221.0
593,1436179585266,221.0
594,1436179585288,222.0
595,1436179585306,220.0
596,1436179585328,220.0
597,1436179585345,218.0
598,1436179585366,218.0
599,1436179585386,221.0
600,1436179585408,221.0
601,1436179585426,223.0
602,1436179585445,223.0
603,1436179585465,225.0
604,1436179585487,225.0
605,1436179585505,225.0
606,1436179585525,225.0
607,1436179585547,224.0
608,1436179585567,224.0
609,1436179585591,221.0
610,1436179585606,218.0
611,1436179585626,218.0
612,1436179585658,214.0
613,1436179585728,214.0
614,1436179585729,211.0
615,1436179585730,211.0
616,1436179585731,210.0
617,1436179585747,210.0
618,1436179585770,211.0
619,1436179585788,211.0
620,1436179585805,214.0
621,1436179585828,214.0
622,1436179585845,217.0
623,1436179585867,220.0
624,1436179585885,220.0
625,1436179585907,221.0
626,1436179585928,221.0
627,1436179585948,222.0
628,1436179585965,222.0
629,1436179585988,225.0
630,1436179586008,225.0
631,1436179586029,231.0
632,1436179586048,231.0
633,1436179586068,237.0
634,1436179586087,237.0
635,1436179586107,245.0
636,1436179586129,245.0
637,1436179586149,251.0
638,1436179586165,254.0
639,1436179586185,254.0
640,1436179586205,255.0
641,1436179586231,255.0
642,1436179586251,258.0
643,1436179586273,258.0
644,1436179586289,259.0
645,1436179586305,259.0
646,1436179586326,263.0
647,1436179586345,263.0
648,1436179586366,268.0
649,1436179586386,268.0
650,1436179586441,272.0
651,1436179586442,272.0
652,1436179586446,269.0
653,1436179586466,269.0
654,1436179586486,269.0
655,1436179586505,266.0
656,1436179586525,266.0
657,1436179586545,261.0
658,1436179586567,261.0
659,1436179586586,260.0
660,1436179586608,260.0
661,1436179586626,260.0
662,1436179586651,260.0
663,1436179586668,260.0
664,1436179586688,260.0
665,1436179586709,259.0
666,1436179586729,257.0
667,1436179586749,257.0
668,1436179586769,255.0
669,1436179586785,255.0
670,1436179586809,252.0
671,1436179586829,252.0
672,1436179586850,251.0
673,1436179586867,251.0
674,1436179586888,251.0
675,1436179586910,251.0
676,1436179586930,253.0
677,1436179586951,253.0
678,1436179586969,259.0
679,1436179586989,259.0
680,1436179587006,264.0
681,1436179587027,268.0
682,1436179587051,268.0
683,1436179587070,274.0
684,1436179587092,274.0
685,1436179587109,283.0
686,1436179587129,283.0
687,1436179587207,294.0
688,1436179587208,294.0
689,1436179587209,304.0
690,1436179587210,304.0
691,1436179587229,314.0
692,1436179587252,314.0
693,1436179587266,323.0
694,1436179587286,323.0
695,1436179587308,331.0
696,1436179587329,338.0
697,1436179587346,338.0
698,1436179587366,347.0
699,1436179587386,347.0
700,1436179587407,355.0
701,1436179587427,355.0
702,1436179587453,359.0
703,1436179587479,359.0
704,1436179587486,362.0
705,1436179587506,362.0
706,1436179587526,365.0
707,1436179587546,365.0
708,1436179587566,367.0
709,1436179587586,368.0
710,1436179587607,368.0
711,1436179587626,365.0
712,1436179587646,365.0
713,1436179587667,361.0
714,1436179587686,361.0
715,1436179587710,354.0
716,1436179587726,354.0
717,1436179587746,346.0
718,1436179587767,346.0
719,1436179587787,341.0
720,1436179587807,341.0
721,1436179587827,339.0
722,1436179587850,339.0
723,1436179587866,339.0
724,1436179587901,342.0
725,1436179587921,342.0
726,1436179587927,347.0
727,1436179587948,347.0
728,1436179587968,349.0
729,1436179587986,349.0
730,1436179588008,349.0
731,1436179588026,349.0
732,1436179588048,345.0
733,1436179588070,345.0
734,1436179588090,342.0
735,1436179588110,342.0
736,1436179588126,342.0
737,1436179588150,342.0
738,1436179588168,345.0
739,1436179588187,346.0
740,1436179588210,346.0
741,1436179588226,344.0
742,1436179588250,344.0
743,1436179588267,343.0
744,1436179588291,343.0
745,1436179588310,341.0
746,1436179588327,341.0
747,1436179588350,340.0
748,1436179588370,340.0
749,1436179588390,340.0
750,1436179588409,340.0
751,1436179588434,343.0
752,1436179588449,348.0
753,1436179588469,348.0
754,1436179588490,354.0
755,1436179588510,354.0
756,1436179588529,360.0
757,1436179588547,360.0
758,1436179588613,365.0
759,1436179588614,365.0
760,1436179588615,370.0
761,1436179588628,370.0
762,1436179588655,375.0
763,1436179588693,375.0
764,1436179588694,379.0
765,1436179588718,379.0
766,1436179588729,383.0
767,1436179588749,387.0
768,1436179588769,387.0
769,1436179588791,389.0
770,1436179588808,389.0
771,1436179588831,390.0
772,1436179588851,390.0
773,1436179588867,391.0
774,1436179588889,391.0
775,1436179588909,390.0
776,1436179588929,390.0
777,1436179588952,388.0
778,1436179588970,388.0
779,1436179588989,385.0
780,1436179589011,385.0
781,1436179589031,383.0
782,1436179589053,377.0
783,1436179589070,377.0
784,1436179589091,369.0
785,1436179589112,369.0
786,1436179589131,361.0
787,1436179589152,361.0
788,1436179589174,352.0
789,1436179589188,352.0
790,1436179589210,339.0
791,1436179589230,339.0
792,1436179589249,323.0
793,1436179589270,323.0
794,1436179589302,300.0
795,1436179589312,300.0
796,1436179589360,272.0
797,1436179589361,244.0
798,1436179589375,244.0
799,1436179589396,222.0
800,1436179589409,222.0
801,1436179589429,206.0
802,1436179589457,206.0
803,1436179589469,196.0
804,1436179589488,196.0
805,1436179589510,189.0
806,1436179589529,189.0
807,1436179589552,184.0
808,1436179589568,184.0
809,1436179589589,182.0
810,1436179589610,181.0
811,1436179589628,181.0
812,1436179589649,179.0
813,1436179589668,179.0
814,1436179589688,179.0
815,1436179589709,179.0
816,1436179589728,178.0
817,1436179589749,178.0
818,1436179589771,178.0
819,1436179589788,178.0
820,1436179589810,178.0
821,1436179589828,178.0
822,1436179589848,178.0
823,1436179589869,178.0
824,1436179589895,179.0
825,1436179589913,180.0
826,1436179589929,180.0
827,1436179589953,183.0
828,1436179589972,183.0
829,1436179589988,187.0
830,1436179590009,187.0
831,1436179590030,195.0
832,1436179590050,195.0
833,1436179590074,206.0
834,1436179590088,206.0
835,1436179590108,218.0
836,1436179590128,218.0
837,1436179590152,227.0
838,1436179590170,227.0
839,1436179590189,236.0
840,1436179591344,244.0
841,1436179591345,244.0
842,1436179591346,253.0
843,1436179591347,253.0
844,1436179591348,260.0
845,1436179591349,260.0
846,1436179591350,266.0
847,1436179591351,266.0
848,1436179591352,272.0
849,1436179591353,272.0
850,1436179591354,276.0
851,1436179591355,276.0
852,1436179591356,281.0
853,1436179591357,288.0
854,1436179591358,288.0
855,1436179591359,297.0
856,1436179591360,297.0
857,1436179591361,308.0
858,1436179591362,308.0
859,1436179591363,323.0
860,1436179591364,323.0
861,1436179591365,338.0
862,1436179591366,338.0
863,1436179591367,352.0
