id,attr_time,attr_light
1,1436179573416,0.0
2,1436179573435,0.0
3,1436179573457,0.0
4,1436179573476,0.0
5,1436179573496,0.0
6,1436179573515,0.0
7,1436179573536,0.0
8,1436179573559,0.0
9,1436179573579,0.0
10,1436179573599,0.0
11,1436179573615,0.0
12,1436179573639,0.0
13,1436179573658,0.0
14,1436179573678,0.0
15,1436179573699,0.0
16,1436179573716,0.0
17,1436179573740,0.0
18,1436179573758,0.0
19,1436179573776,0.0
20,1436179573797,0.0
21,1436179573818,0.0
22,1436179573837,0.0
23,1436179573860,0.0
24,1436179573881,0.0
25,1436179573905,0.0
26,1436179573919,0.0
27,1436179573938,0.0
28,1436179573957,0.0
29,1436179573977,0.0
30,1436179573995,0.0
31,1436179574080,0.0
32,1436179574081,0.0
33,1436179574082,0.0
34,1436179574083,0.0
35,1436179574096,0.0
36,1436179574151,0.0
37,1436179574152,0.0
38,1436179574155,0.0
39,1436179574176,0.0
40,1436179574200,0.0
41,1436179574219,0.0
42,1436179574236,0.0
43,1436179574259,0.0
44,1436179574278,0.0
45,1436179574299,0.0
46,1436179574319,0.0
47,1436179574339,0.0
48,1436179574359,0.0
49,1436179574379,0.0
50,1436179574403,0.0
51,1436179574421,0.0
52,1436179574439,0.0
53,1436179574457,0.0
54,1436179574478,0.0
55,1436179574496,0.0
56,1436179574516,0.0
57,1436179574536,0.0
58,1436179574557,0.0
59,1436179574581,0.0
60,1436179574601,0.0
61,1436179574618,0.0
62,1436179574636,0.0
63,1436179574656,0.0
64,1436179574676,0.0
65,1436179574697,0.0
66,1436179574784,0.0
67,1436179574785,0.0
68,1436179574786,0.0
69,1436179574787,0.0
70,1436179574796,0.0
71,1436179574821,0.0
72,1436179574837,0.0
73,1436179574858,0.0
74,1436179574877,0.0
75,1436179574906,0.0
76,1436179574926,0.0
77,1436179574941,0.0
78,1436179574962,0.0
79,1436179574977,0.0
80,1436179574998,0.0
81,1436179575020,0.0
82,1436179575040,0.0
83,1436179575061,0.0
84,1436179575079,0.0
85,1436179575100,0.0
86,1436179575120,0.0
87,1436179575140,0.0
88,1436179575160,0.0
89,1436179575182,0.0
90,1436179575200,0.0
91,1436179575220,0.0
92,1436179575237,0.0
93,1436179575257,0.0
94,1436179575277,0.0
95,1436179575301,0.0
96,1436179575322,0.0
97,1436179575338,0.0
98,1436179575358,0.0
99,1436179575377,0.0
100,1436179575398,0.0
101,1436179575419,0.0
102,1436179575437,0.0
103,1436179575537,0.0
104,1436179575538,0.0
105,1436179575539,0.0
106,1436179575540,0.0
107,1436179575541,0.0
108,1436179575564,0.0
109,1436179575589,0.0
110,1436179575597,0.0
111,1436179575617,0.0
112,1436179575645,0.0
113,1436179575669,0.0
114,1436179575677,0.0
115,1436179575697,0.0
116,1436179575717,0.0
117,1436179575738,0.0
118,1436179575757,0.0
119,1436179575777,0.0
120,1436179575797,0.0
121,1436179575846,0.0
122,1436179575847,0.0
123,1436179575878,0.0
124,1436179575907,0.0
125,1436179575908,0.0
126,1436179575937,0.0
127,1436179575938,0.0
128,1436179575957,0.0
129,1436179575978,0.0
130,1436179575997,0.0
131,1436179576021,0.0
132,1436179576038,0.0
133,1436179576058,0.0
134,1436179576077,0.0
135,1436179576096,0.0
136,1436179576117,0.0
137,1436179576137,0.0
138,1436179576157,0.0
139,1436179576177,0.0
140,1436179576196,0.0
141,1436179576217,0.0
142,1436179576238,0.0
143,1436179576256,0.0
144,1436179576277,0.0
145,1436179576300,0.0
146,1436179576317,0.0
147,1436179576337,0.0
148,1436179576361,0.0
149,1436179576378,0.0
150,1436179576402,0.0
151,1436179576418,0.0
152,1436179576438,0.0
153,1436179576461,0.0
154,1436179576478,0.0
155,1436179576501,0.0
156,1436179576518,0.0
157,1436179576538,0.0
158,1436179576558,0.0
159,1436179576578,0.0
160,1436179576602,0.0
161,1436179576620,0.0
162,1436179576641,0.0
163,1436179576661,0.0
164,1436179576679,0.0
165,1436179576703,0.0
166,1436179576719,0.0
167,1436179576740,0.0
168,1436179576762,0.0
169,1436179576781,0.0
170,1436179576802,0.0
171,1436179576820,0.0
172,1436179576841,0.0
173,1436179576961,0.0
174,1436179576962,0.0
175,1436179576963,0.0
176,1436179576964,0.0
177,1436179576967,0.0
178,1436179576968,0.0
179,1436179576988,0.0
180,1436179577001,0.0
181,1436179577033,0.0
182,1436179577039,0.0
183,1436179577060,0.0
184,1436179577086,0.0
185,1436179577099,0.0
186,1436179577118,0.0
187,1436179577141,0.0
188,1436179577162,0.0
189,1436179577179,0.0
190,1436179577202,0.0
191,1436179577220,0.0
192,1436179577239,0.0
193,1436179577262,0.0
194,1436179577282,0.0
195,1436179577302,0.0
196,1436179577326,0.0
197,1436179577340,0.0
198,1436179577362,0.0
199,1436179577381,0.0
200,1436179577401,0.0
201,1436179577421,0.0
202,1436179577440,0.0
203,1436179577462,0.0
204,1436179577481,0.0
205,1436179577502,0.0
206,1436179577522,0.0
207,1436179577541,0.0
208,1436179577561,0.0
209,1436179577589,0.0
210,1436179577646,0.0
211,1436179577647,0.0
212,1436179577648,0.0
213,1436179577668,0.0
214,1436179577679,0.0
215,1436179577701,0.0
216,1436179577721,0.0
217,1436179577739,0.0
218,1436179577759,0.0
219,1436179577779,0.0
220,1436179577800,0.0
221,1436179577823,0.0
222,1436179577844,0.0
223,1436179577861,0.0
224,1436179577881,0.0
225,1436179577901,0.0
226,1436179577924,0.0
227,1436179577940,0.0
228,1436179577959,0.0
229,1436179577979,0.0
230,1436179577999,0.0
231,1436179578021,0.0
232,1436179578042,0.0
233,1436179578066,0.0
234,1436179578082,0.0
235,1436179578105,0.0
236,1436179578124,0.0
237,1436179578145,0.0
238,1436179578160,0.0
239,1436179578181,0.0
240,1436179578199,0.0
241,1436179578219,0.0
242,1436179578247,0.0
243,1436179578265,0.0
244,1436179578285,0.0
245,1436179578302,0.0
246,1436179578374,0.0
247,1436179578375,0.0
248,1436179578376,0.0
249,1436179578383,0.0
250,1436179578406,0.0
251,1436179578421,0.0
252,1436179578441,0.0
253,1436179578460,0.0
254,1436179578485,0.0
255,1436179578500,0.0
256,1436179578520,0.0
257,1436179578546,0.0
258,1436179578561,0.0
259,1436179578583,0.0
260,1436179578600,0.0
261,1436179578623,0.0
262,1436179578642,0.0
263,1436179578664,0.0
264,1436179578683,0.0
265,1436179578703,0.0
266,1436179578724,0.0
267,1436179578743,0.0
268,1436179578760,0.0
269,1436179578786,0.0
270,1436179578803,0.0
271,1436179578826,0.0
272,1436179578847,0.0
273,1436179578867,0.0
274,1436179578884,0.0
275,1436179578907,0.0
276,1436179578921,0.0
277,1436179578941,0.0
278,1436179578966,0.0
279,1436179578985,0.0
280,1436179579006,0.0
281,1436179579023,0.0
282,1436179579043,0.0
283,1436179579115,0.0
284,1436179579122,0.0
285,1436179579123,0.0
286,1436179579124,0.0
287,1436179579149,0.0
288,1436179579161,0.0
289,1436179579180,0.0
290,1436179579201,0.0
291,1436179579223,0.0
292,1436179579246,0.0
293,1436179579267,0.0
294,1436179579281,0.0
295,1436179579306,0.0
296,1436179579324,0.0
297,1436179579344,0.0
298,1436179579364,0.0
299,1436179579383,0.0
300,1436179579404,0.0
301,1436179579424,0.0
302,1436179579443,0.0
303,1436179579464,0.0
304,1436179579486,0.0
305,1436179579501,0.0
306,1436179579525,0.0
307,1436179579544,0.0
308,1436179579565,0.0
309,1436179579584,0.0
310,1436179579604,0.0
311,1436179579624,0.0
312,1436179579644,0.0
313,1436179579664,0.0
314,1436179579684,0.0
315,1436179579704,0.0
316,1436179579724,0.0
317,1436179579744,0.0
318,1436179579765,0.0
319,1436179579836,0.0
320,1436179579840,0.0
321,1436179579841,0.0
322,1436179579842,0.0
323,1436179579864,0.0
324,1436179579898,0.0
325,1436179579901,0.0
326,1436179579922,0.0
327,1436179579976,0.0
328,1436179579977,0.0
329,1436179579982,0.0
330,1436179580008,0.0
331,1436179580022,0.0
332,1436179580045,0.0
333,1436179580064,0.0
334,1436179580084,0.0
335,1436179580104,0.0
336,1436179580125,0.0
337,1436179580144,0.0
338,1436179580165,0.0
339,1436179580184,0.0
340,1436179580204,0.0
341,1436179580227,0.0
342,1436179580241,0.0
343,1436179580265,0.0
344,1436179580284,0.0
345,1436179580305,0.0
346,1436179580325,0.0
347,1436179580344,0.0
348,1436179580365,0.0
349,1436179580384,0.0
350,1436179580404,0.0
351,1436179580425,0.0
352,1436179580445,0.0
353,1436179580465,0.0
354,1436179580484,0.0
355,1436179580505,0.0
356,1436179580579,0.0
357,1436179580580,0.0
358,1436179580581,0.0
359,1436179580582,0.0
360,1436179580604,0.0
361,1436179580625,0.0
362,1436179580642,0.0
363,1436179580663,0.0
364,1436179580682,0.0
365,1436179580707,0.0
366,1436179580723,0.0
367,1436179580745,0.0
368,1436179580762,0.0
369,1436179580785,0.0
370,1436179580806,0.0
371,1436179580825,0.0
372,1436179580846,0.0
373,1436179580863,0.0
374,1436179580884,0.0
375,1436179580902,0.0
376,1436179580954,0.0
377,1436179580955,0.0
378,1436179581005,0.0
379,1436179581006,0.0
380,1436179581007,0.0
381,1436179581025,0.0
382,1436179581044,0.0
383,1436179581064,0.0
384,1436179581084,0.0
385,1436179581102,0.0
386,1436179581125,0.0
387,1436179581145,0.0
388,1436179581166,0.0
389,1436179581185,0.0
390,1436179581204,0.0
391,1436179581232,0.0
392,1436179581255,0.0
393,1436179581309,0.0
394,1436179581310,0.0
395,1436179581311,0.0
396,1436179581327,0.0
397,1436179581343,0.0
398,1436179581363,0.0
399,1436179581385,0.0
400,1436179581403,0.0
401,1436179581423,0.0
402,1436179581443,0.0
403,1436179581465,0.0
404,1436179581485,0.0
405,1436179581503,0.0
406,1436179581530,0.0
407,1436179581546,0.0
408,1436179581566,0.0
409,1436179581586,0.0
410,1436179581606,0.0
411,1436179581626,0.0
412,1436179581646,0.0
413,1436179581666,0.0
414,1436179581686,0.0
415,1436179581708,0.0
416,1436179581723,0.0
417,1436179581746,0.0
418,1436179581767,0.0
419,1436179581788,0.0
420,1436179581807,0.0
421,1436179581826,0.0
422,1436179581846,0.0
423,1436179581867,1.0
424,1436179581885,1.0
425,1436179581906,1.0
426,1436179581929,1.0
427,1436179581949,1.0
428,1436179581964,1.0
429,1436179581984,0.0
430,1436179582044,0.0
431,1436179582068,0.0
432,1436179582069,0.0
433,1436179582070,0.0
434,1436179582085,0.0
435,1436179582107,0.0
436,1436179582123,0.0
437,1436179582148,0.0
438,1436179582164,0.0
439,1436179582184,0.0
440,1436179582206,0.0
441,1436179582225,0.0
442,1436179582246,0.0
443,1436179582264,0.0
444,1436179582287,0.0
445,1436179582307,0.0
446,1436179582327,0.0
447,1436179582347,0.0
448,1436179582364,0.0
449,1436179582387,0.0
450,1436179582407,0.0
451,1436179582427,0.0
452,1436179582445,0.0
453,1436179582465,0.0
454,1436179582486,0.0
455,1436179582505,0.0
456,1436179582527,0.0
457,1436179582546,0.0
458,1436179582568,0.0
459,1436179582587,1.0
460,1436179582607,1.0
461,1436179582627,1.0
462,1436179582647,1.0
463,1436179582666,1.0
464,1436179582686,1.0
465,1436179582705,0.0
466,1436179582724,0.0
467,1436179582798,0.0
468,1436179582799,0.0
469,1436179582800,0.0
470,1436179582805,0.0
471,1436179582824,0.0
472,1436179582850,0.0
473,1436179582867,0.0
474,1436179582884,0.0
475,1436179582906,0.0
476,1436179582925,0.0
477,1436179582955,0.0
478,1436179582965,0.0
479,1436179582992,0.0
480,1436179583005,0.0
481,1436179583027,0.0
482,1436179583047,1.0
483,1436179583068,1.0
484,1436179583086,1.0
485,1436179583108,1.0
486,1436179583127,1.0
487,1436179583148,1.0
488,1436179583169,1.0
489,1436179583186,1.0
490,1436179583208,1.0
491,1436179583225,1.0
492,1436179583248,0.0
493,1436179583268,0.0
494,1436179583285,0.0
495,1436179583306,0.0
496,1436179583328,0.0
497,1436179583347,0.0
498,1436179583369,0.0
499,1436179583389,0.0
500,1436179583407,0.0
501,1436179583427,0.0
502,1436179583447,0.0
503,1436179583466,0.0
504,1436179583485,0.0
505,1436179583562,0.0
506,1436179583566,0.0
507,1436179583567,0.0
508,1436179583568,0.0
509,1436179583586,0.0
510,1436179583607,0.0
511,1436179583625,0.0
512,1436179583645,0.0
513,1436179583668,1.0
514,1436179583686,1.0
515,1436179583746,1.0
516,1436179583747,1.0
517,1436179583749,1.0
518,1436179583766,1.0
519,1436179583785,1.0
520,1436179583805,1.0
521,1436179583825,1.0
522,1436179583845,1.0
523,1436179583867,0.0
524,1436179583885,0.0
525,1436179583906,0.0
526,1436179583925,0.0
527,1436179583947,0.0
528,1436179583966,0.0
529,1436179583987,0.0
530,1436179584010,0.0
531,1436179584025,0.0
532,1436179584045,0.0
533,1436179584065,0.0
534,1436179584091,0.0
535,1436179584113,0.0
536,1436179584131,0.0
537,1436179584148,0.0
538,1436179584166,0.0
539,1436179584185,0.0
540,1436179584205,0.0
541,1436179584228,1.0
542,1436179584311,1.0
543,1436179584312,2.0
544,1436179584313,2.0
545,1436179584314,1.0
546,1436179584325,1.0
547,1436179584350,1.0
548,1436179584366,1.0
549,1436179584387,1.0
550,1436179584406,1.0
551,1436179584426,1.0
552,1436179584447,1.0
553,1436179584470,1.0
554,1436179584486,1.0
555,1436179584507,1.0
556,1436179584527,1.0
557,1436179584549,1.0
558,1436179584569,1.0
559,1436179584589,1.0
560,1436179584609,1.0
561,1436179584626,1.0
562,1436179584649,1.0
563,1436179584669,1.0
564,1436179584690,1.0
565,1436179584706,1.0
566,1436179584726,1.0
567,1436179584749,1.0
568,1436179584769,1.0
569,1436179584789,1.0
570,1436179584809,1.0
571,1436179584829,1.0
572,1436179584857,1.0
573,1436179584868,1.0
574,1436179584890,1.0
575,1436179584914,1.0
576,1436179584926,1.0
577,1436179584946,1.0
578,1436179584968,2.0
579,1436179585028,2.0
580,1436179585029,1.0
581,1436179585030,1.0
582,1436179585046,0.0
583,1436179585066,0.0
584,1436179585087,0.0
585,1436179585106,0.0
586,1436179585126,0.0
587,1436179585146,0.0
588,1436179585168,0.0
589,1436179585194,0.0
590,1436179585208,0.0
591,1436179585229,0.0
592,1436179585248,0.0
593,1436179585268,0.0
594,1436179585290,0.0
595,1436179585310,0.0
596,1436179585330,0.0
597,1436179585347,0.0
598,1436179585370,0.0
599,1436179585390,0.0
600,1436179585411,0.0
601,1436179585427,1.0
602,1436179585447,1.0
603,1436179585471,2.0
604,1436179585491,2.0
605,1436179585512,2.0
606,1436179585529,2.0
607,1436179585547,2.0
608,1436179585567,2.0
609,1436179585586,1.0
610,1436179585613,1.0
611,1436179585632,1.0
612,1436179585653,1.0
613,1436179585668,1.0
614,1436179585696,1.0
615,1436179585739,1.0
616,1436179585740,1.0
617,1436179585764,1.0
618,1436179585768,1.0
619,1436179585788,1.0
620,1436179585809,1.0
621,1436179585827,0.0
622,1436179585849,0.0
623,1436179585869,0.0
624,1436179585901,0.0
625,1436179585922,0.0
626,1436179585989,0.0
627,1436179585990,0.0
628,1436179585991,0.0
629,1436179585992,0.0
630,1436179586014,0.0
631,1436179586028,0.0
632,1436179586049,0.0
633,1436179586068,1.0
634,1436179586089,1.0
635,1436179586110,1.0
636,1436179586130,1.0
637,1436179586148,1.0
638,1436179586170,1.0
639,1436179586189,1.0
640,1436179586210,1.0
641,1436179586230,2.0
642,1436179586250,2.0
643,1436179586270,2.0
644,1436179586289,2.0
645,1436179586311,2.0
646,1436179586331,2.0
647,1436179586347,2.0
648,1436179586372,2.0
649,1436179586390,2.0
650,1436179586410,1.0
651,1436179586431,1.0
652,1436179586451,1.0
653,1436179586468,1.0
654,1436179586489,0.0
655,1436179586518,0.0
656,1436179586575,0.0
657,1436179586577,0.0
658,1436179586578,1.0
659,1436179586596,1.0
660,1436179586608,2.0
661,1436179586628,2.0
662,1436179586648,2.0
663,1436179586669,2.0
664,1436179586689,2.0
665,1436179586709,2.0
666,1436179586730,2.0
667,1436179586756,2.0
668,1436179586768,2.0
669,1436179586788,2.0
670,1436179586808,2.0
671,1436179586829,2.0
672,1436179586856,2.0
673,1436179586869,2.0
674,1436179586890,1.0
675,1436179586914,1.0
676,1436179586929,1.0
677,1436179586949,1.0
678,1436179586969,1.0
679,1436179586990,1.0
680,1436179587008,1.0
681,1436179587028,1.0
682,1436179587048,1.0
683,1436179587068,1.0
684,1436179587090,1.0
685,1436179587110,1.0
686,1436179587130,1.0
687,1436179587151,0.0
688,1436179587171,0.0
689,1436179587192,0.0
690,1436179587210,0.0
691,1436179587230,0.0
692,1436179587249,0.0
693,1436179587335,0.0
694,1436179587336,0.0
695,1436179587337,1.0
696,1436179587338,1.0
697,1436179587348,1.0
698,1436179587372,1.0
699,1436179587388,2.0
700,1436179587409,2.0
701,1436179587431,2.0
702,1436179587449,2.0
703,1436179587470,3.0
704,1436179587491,3.0
705,1436179587509,3.0
706,1436179587529,3.0
707,1436179587552,3.0
708,1436179587572,3.0
709,1436179587591,2.0
710,1436179587611,2.0
711,1436179587632,1.0
712,1436179587650,1.0
713,1436179587672,1.0
714,1436179587692,1.0
715,1436179587711,2.0
716,1436179587734,2.0
717,1436179587752,2.0
718,1436179587772,2.0
719,1436179587795,3.0
720,1436179587809,3.0
721,1436179587830,3.0
722,1436179587852,3.0
723,1436179587869,2.0
724,1436179587890,2.0
725,1436179587909,2.0
726,1436179587934,2.0
727,1436179587949,2.0
728,1436179587970,2.0
729,1436179588059,2.0
730,1436179588060,1.0
731,1436179588061,1.0
732,1436179588062,1.0
733,1436179588070,1.0
734,1436179588098,1.0
735,1436179588111,1.0
736,1436179588129,1.0
737,1436179588151,1.0
738,1436179588169,1.0
739,1436179588193,1.0
740,1436179588219,1.0
741,1436179588230,1.0
742,1436179588250,0.0
743,1436179588269,0.0
744,1436179588292,0.0
745,1436179588313,0.0
746,1436179588331,0.0
747,1436179588353,0.0
748,1436179588370,1.0
749,1436179588392,1.0
750,1436179588413,1.0
751,1436179588432,1.0
752,1436179588455,1.0
753,1436179588470,1.0
754,1436179588494,1.0
755,1436179588516,1.0
756,1436179588535,2.0
757,1436179588553,2.0
758,1436179588570,2.0
759,1436179588590,2.0
760,1436179588610,2.0
761,1436179588636,2.0
762,1436179588656,1.0
763,1436179588670,1.0
764,1436179588692,1.0
765,1436179588712,1.0
766,1436179588791,0.0
767,1436179588792,0.0
768,1436179588793,0.0
769,1436179588794,0.0
770,1436179588813,0.0
771,1436179588836,0.0
772,1436179588850,0.0
773,1436179588870,0.0
774,1436179588892,0.0
775,1436179588914,1.0
776,1436179588934,1.0
777,1436179588950,1.0
778,1436179588972,1.0
779,1436179588990,2.0
780,1436179589012,2.0
781,1436179589033,3.0
782,1436179589053,3.0
783,1436179589074,3.0
784,1436179589093,3.0
785,1436179589113,3.0
786,1436179589131,3.0
787,1436179589153,2.0
788,1436179589176,2.0
789,1436179589190,2.0
790,1436179589213,2.0
791,1436179589230,2.0
792,1436179589251,2.0
793,1436179589270,2.0
794,1436179589293,2.0
795,1436179589313,2.0
796,1436179589331,2.0
797,1436179589353,2.0
798,1436179589370,2.0
799,1436179589393,2.0
800,1436179589411,2.0
801,1436179589433,2.0
802,1436179589453,2.0
803,1436179589521,2.0
804,1436179589522,2.0
805,1436179589523,2.0
806,1436179589531,2.0
807,1436179589555,3.0
808,1436179589575,3.0
809,1436179589590,3.0
810,1436179589611,3.0
811,1436179589644,3.0
812,1436179589652,3.0
813,1436179589677,3.0
814,1436179589691,3.0
815,1436179589711,3.0
816,1436179589733,3.0
817,1436179589754,3.0
818,1436179589774,4.0
819,1436179589794,4.0
820,1436179589815,5.0
821,1436179589834,5.0
822,1436179589853,5.0
823,1436179589876,5.0
824,1436179589902,5.0
825,1436179589915,5.0
826,1436179589934,4.0
827,1436179589955,4.0
828,1436179589999,4.0
829,1436179590000,4.0
830,1436179590040,3.0
831,1436179590041,3.0
832,1436179590051,2.0
833,1436179590071,2.0
834,1436179590091,1.0
835,1436179590111,1.0
836,1436179590131,2.0
837,1436179590153,2.0
838,1436179590174,4.0
839,1436179590191,4.0
840,1436179590352,4.0
841,1436179590353,4.0
842,1436179590354,5.0
843,1436179590355,5.0
844,1436179590356,6.0
845,1436179590357,6.0
846,1436179590358,5.0
847,1436179590359,5.0
848,1436179590374,5.0
849,1436179590391,5.0
850,1436179590415,4.0
851,1436179590437,4.0
852,1436179590455,3.0
853,1436179590473,3.0
854,1436179590493,2.0
855,1436179590512,2.0
856,1436179590533,2.0
857,1436179590555,2.0
858,1436179590575,1.0
859,1436179590618,1.0
860,1436179590619,1.0
861,1436179590654,1.0
862,1436179590655,1.0
863,1436179590672,1.0
864,1436179590691,1.0
865,1436179590712,1.0
866,1436179590732,1.0
867,1436179590760,1.0
868,1436179590772,1.0
869,1436179590793,1.0
870,1436179590837,1.0
871,1436179590838,1.0
872,1436179590852,1.0
873,1436179590872,1.0
874,1436179590899,1.0
875,1436179590932,2.0
876,1436179590934,2.0
877,1436179590953,2.0
878,1436179590972,2.0
879,1436179590992,3.0
880,1436179591012,3.0
881,1436179591044,4.0
882,1436179591063,4.0
883,1436179591072,5.0
884,1436179591093,5.0
885,1436179591112,5.0
886,1436179591136,5.0
887,1436179591153,4.0
888,1436179591171,4.0
889,1436179591196,2.0
890,1436179591214,2.0
891,1436179591235,2.0
892,1436179591255,2.0
893,1436179591272,2.0
894,1436179591293,2.0
895,1436179591312,2.0
896,1436179591335,2.0
897,1436179591355,2.0
898,1436179591375,2.0
899,1436179591392,2.0
900,1436179591413,2.0
901,1436179591431,3.0
902,1436179591453,3.0
903,1436179591473,3.0
904,1436179591495,3.0
905,1436179591513,3.0
906,1436179591533,4.0
907,1436179591553,4.0
908,1436179591575,8.0
909,1436179591596,8.0
910,1436179591611,8.0
911,1436179591632,8.0
912,1436179591656,7.0
