id,attr_time,attr_light
1,1436179573412,47.0
2,1436179573429,47.0
3,1436179573449,47.0
4,1436179573469,47.0
5,1436179573489,47.0
6,1436179573509,47.0
7,1436179573529,47.0
8,1436179573549,47.0
9,1436179573574,47.0
10,1436179573592,47.0
11,1436179573612,47.0
12,1436179573629,47.0
13,1436179573649,47.0
14,1436179573669,47.0
15,1436179573690,47.0
16,1436179573761,47.0
17,1436179573762,47.0
18,1436179573763,47.0
19,1436179573776,47.0
20,1436179573796,47.0
21,1436179573809,47.0
22,1436179573835,47.0
23,1436179573850,47.0
24,1436179573871,47.0
25,1436179573890,47.0
26,1436179573909,47.0
27,1436179573934,47.0
28,1436179573953,47.0
29,1436179573970,47.0
30,1436179573991,47.0
31,1436179574012,47.0
32,1436179574028,47.0
33,1436179574048,47.0
34,1436179574069,47.0
35,1436179574090,47.0
36,1436179574112,47.0
37,1436179574131,47.0
38,1436179574153,47.0
39,1436179574170,47.0
40,1436179574191,47.0
41,1436179574211,47.0
42,1436179574231,47.0
43,1436179574250,47.0
44,1436179574270,47.0
45,1436179574290,47.0
46,1436179574311,47.0
47,1436179574330,47.0
48,1436179574380,47.0
49,1436179574381,47.0
50,1436179574389,47.0
51,1436179574409,47.0
52,1436179574464,47.0
53,1436179574465,47.0
54,1436179574469,47.0
55,1436179574489,47.0
56,1436179574509,47.0
57,1436179574531,47.0
58,1436179574548,47.0
59,1436179574568,47.0
60,1436179574588,47.0
61,1436179574608,47.0
62,1436179574628,47.0
63,1436179574648,47.0
64,1436179574668,47.0
65,1436179574688,47.0
66,1436179574708,47.0
67,1436179574728,47.0
68,1436179574748,47.0
69,1436179574768,47.0
70,1436179574788,47.0
71,1436179574808,47.0
72,1436179574830,47.0
73,1436179574850,47.0
74,1436179574870,47.0
75,1436179574890,47.0
76,1436179574910,47.0
77,1436179574930,47.0
78,1436179574950,47.0
79,1436179574971,47.0
80,1436179574990,47.0
81,1436179575010,47.0
82,1436179575032,47.0
83,1436179575056,47.0
84,1436179575069,47.0
85,1436179575090,47.0
86,1436179575109,47.0
87,1436179575130,47.0
88,1436179575153,47.0
89,1436179575170,47.0
90,1436179575191,47.0
91,1436179575214,47.0
92,1436179575234,47.0
93,1436179575254,47.0
94,1436179575273,47.0
95,1436179575291,47.0
96,1436179575314,47.0
97,1436179575333,47.0
98,1436179575351,47.0
99,1436179575374,47.0
100,1436179575393,47.0
101,1436179575413,47.0
102,1436179575432,47.0
103,1436179575451,47.0
104,1436179575473,47.0
105,1436179575492,47.0
106,1436179575513,47.0
107,1436179575536,47.0
108,1436179575558,47.0
109,1436179575574,47.0
110,1436179575594,47.0
111,1436179575611,47.0
112,1436179575632,47.0
113,1436179575651,47.0
114,1436179575673,47.0
115,1436179575742,47.0
116,1436179575743,47.0
117,1436179575744,47.0
118,1436179575760,47.0
119,1436179575771,47.0
120,1436179575796,47.0
121,1436179575811,47.0
122,1436179575831,47.0
123,1436179575851,47.0
124,1436179575872,47.0
125,1436179575893,47.0
126,1436179575913,47.0
127,1436179575932,47.0
128,1436179575976,47.0
129,1436179575977,47.0
130,1436179575992,47.0
131,1436179576012,47.0
132,1436179576035,47.0
133,1436179576055,47.0
134,1436179576072,47.0
135,1436179576095,47.0
136,1436179576115,47.0
137,1436179576133,47.0
138,1436179576153,47.0
139,1436179576174,47.0
140,1436179576195,47.0
141,1436179576213,47.0
142,1436179576235,47.0
143,1436179576255,47.0
144,1436179576272,47.0
145,1436179576294,47.0
146,1436179576315,47.0
147,1436179576333,47.0
148,1436179576355,47.0
149,1436179576372,47.0
150,1436179576394,47.0
151,1436179576421,47.0
152,1436179576478,47.0
153,1436179576479,47.0
154,1436179576480,47.0
155,1436179576496,47.0
156,1436179576513,47.0
157,1436179576532,47.0
158,1436179576555,47.0
159,1436179576575,47.0
160,1436179576592,47.0
161,1436179576612,47.0
162,1436179576632,47.0
163,1436179576652,47.0
164,1436179576681,47.0
165,1436179576692,47.0
166,1436179576712,47.0
167,1436179576732,47.0
168,1436179576752,47.0
169,1436179576772,47.0
170,1436179576792,47.0
171,1436179576812,47.0
172,1436179576832,47.0
173,1436179576852,47.0
174,1436179576872,47.0
175,1436179576892,47.0
176,1436179576912,47.0
177,1436179576932,47.0
178,1436179576954,47.0
179,1436179576974,47.0
180,1436179576994,47.0
181,1436179577014,47.0
182,1436179577034,47.0
183,1436179577054,47.0
184,1436179577074,47.0
185,1436179577095,47.0
186,1436179577116,47.0
187,1436179577135,47.0
188,1436179577155,47.0
189,1436179577173,47.0
190,1436179577246,47.0
191,1436179577247,47.0
192,1436179577248,47.0
193,1436179577259,47.0
194,1436179577273,47.0
195,1436179577293,47.0
196,1436179577312,47.0
197,1436179577333,47.0
198,1436179577354,47.0
199,1436179577374,47.0
200,1436179577394,47.0
201,1436179577413,47.0
202,1436179577436,47.0
203,1436179577456,47.0
204,1436179577476,47.0
205,1436179577498,47.0
206,1436179577516,47.0
207,1436179577533,47.0
208,1436179577556,47.0
209,1436179577577,47.0
210,1436179577596,48.0
211,1436179577616,48.0
212,1436179577635,48.0
213,1436179577654,48.0
214,1436179577678,48.0
215,1436179577693,48.0
216,1436179577714,48.0
217,1436179577733,48.0
218,1436179577759,48.0
219,1436179577779,48.0
220,1436179577805,48.0
221,1436179577820,48.0
222,1436179577879,49.0
223,1436179577880,49.0
224,1436179577881,50.0
225,1436179577893,50.0
226,1436179577914,50.0
227,1436179577933,50.0
228,1436179578028,51.0
229,1436179578029,51.0
230,1436179578030,51.0
231,1436179578046,52.0
232,1436179578047,52.0
233,1436179578061,52.0
234,1436179578078,52.0
235,1436179578099,52.0
236,1436179578113,52.0
237,1436179578133,53.0
238,1436179578161,53.0
239,1436179578176,54.0
240,1436179578200,54.0
241,1436179578212,55.0
242,1436179578239,55.0
243,1436179578255,54.0
244,1436179578275,54.0
245,1436179578296,53.0
246,1436179578317,53.0
247,1436179578337,53.0
248,1436179578357,53.0
249,1436179578377,53.0
250,1436179578397,52.0
251,1436179578416,52.0
252,1436179578434,52.0
253,1436179578457,52.0
254,1436179578477,51.0
255,1436179578497,51.0
256,1436179578516,51.0
257,1436179578537,51.0
258,1436179578556,52.0
259,1436179578576,52.0
260,1436179578596,52.0
261,1436179578616,52.0
262,1436179578636,51.0
263,1436179578656,51.0
264,1436179578675,51.0
265,1436179578697,51.0
266,1436179578788,49.0
267,1436179578789,49.0
268,1436179578790,48.0
269,1436179578791,47.0
270,1436179578806,47.0
271,1436179578814,50.0
272,1436179578834,50.0
273,1436179578854,57.0
274,1436179578874,57.0
275,1436179578896,72.0
276,1436179578958,72.0
277,1436179578959,95.0
278,1436179578960,95.0
279,1436179578988,122.0
280,1436179578995,122.0
281,1436179579020,145.0
282,1436179579037,145.0
283,1436179579057,165.0
284,1436179579076,165.0
285,1436179579095,179.0
286,1436179579116,179.0
287,1436179579137,185.0
288,1436179579157,185.0
289,1436179579177,185.0
290,1436179579199,181.0
291,1436179579224,181.0
292,1436179579239,179.0
293,1436179579260,179.0
294,1436179579280,181.0
295,1436179579307,181.0
296,1436179579318,181.0
297,1436179579336,181.0
298,1436179579356,178.0
299,1436179579374,178.0
300,1436179579398,170.0
301,1436179579419,170.0
302,1436179579455,152.0
303,1436179579456,152.0
304,1436179579475,131.0
305,1436179579494,131.0
306,1436179579529,111.0
307,1436179579541,111.0
308,1436179579555,89.0
309,1436179579575,70.0
310,1436179579595,70.0
311,1436179579616,58.0
312,1436179579664,58.0
313,1436179579665,50.0
314,1436179579683,50.0
315,1436179579696,45.0
316,1436179579716,45.0
317,1436179579737,42.0
318,1436179579755,42.0
319,1436179579778,40.0
320,1436179579798,40.0
321,1436179579818,39.0
322,1436179579837,39.0
323,1436179579858,38.0
324,1436179579878,38.0
325,1436179579898,37.0
326,1436179579918,37.0
327,1436179579935,37.0
328,1436179579959,37.0
329,1436179579978,37.0
330,1436179579998,37.0
331,1436179580019,37.0
332,1436179580038,39.0
333,1436179580057,39.0
334,1436179580078,41.0
335,1436179580097,41.0
336,1436179580116,44.0
337,1436179580136,44.0
338,1436179580156,48.0
339,1436179580176,48.0
340,1436179580310,55.0
341,1436179580311,55.0
342,1436179580312,66.0
343,1436179580324,66.0
344,1436179580326,82.0
345,1436179580327,82.0
346,1436179580328,102.0
347,1436179580335,102.0
348,1436179580356,123.0
349,1436179580376,143.0
350,1436179580398,143.0
351,1436179580417,160.0
352,1436179580437,160.0
353,1436179580457,172.0
354,1436179580478,172.0
355,1436179580500,172.0
356,1436179580518,172.0
357,1436179580539,159.0
358,1436179580559,159.0
359,1436179580579,132.0
360,1436179580599,132.0
361,1436179580619,103.0
362,1436179580639,103.0
363,1436179580659,85.0
364,1436179580680,85.0
365,1436179580696,77.0
366,1436179580720,77.0
367,1436179580736,69.0
368,1436179580756,59.0
369,1436179580776,59.0
370,1436179580801,52.0
371,1436179580821,52.0
372,1436179580842,47.0
373,1436179580859,47.0
374,1436179580877,44.0
375,1436179580896,44.0
376,1436179580916,41.0
377,1436179580938,41.0
378,1436179581008,40.0
379,1436179581009,40.0
380,1436179581010,40.0
381,1436179581017,40.0
382,1436179581037,40.0
383,1436179581057,40.0
384,1436179581076,40.0
385,1436179581096,40.0
386,1436179581119,40.0
387,1436179581137,40.0
388,1436179581157,40.0
389,1436179581182,41.0
390,1436179581200,41.0
391,1436179581222,43.0
392,1436179581238,43.0
393,1436179581260,47.0
394,1436179581278,47.0
395,1436179581299,52.0
396,1436179581320,52.0
397,1436179581337,60.0
398,1436179581360,60.0
399,1436179581380,71.0
400,1436179581400,71.0
401,1436179581418,85.0
402,1436179581440,85.0
403,1436179581460,106.0
404,1436179581477,106.0
405,1436179581497,133.0
406,1436179581519,133.0
407,1436179581541,163.0
408,1436179581562,189.0
409,1436179581582,189.0
410,1436179581600,204.0
411,1436179581618,204.0
412,1436179581638,211.0
413,1436179581659,211.0
414,1436179581679,213.0
415,1436179581749,213.0
416,1436179581750,207.0
417,1436179581762,207.0
418,1436179581763,186.0
419,1436179581777,186.0
420,1436179581800,160.0
421,1436179581834,160.0
422,1436179581837,146.0
423,1436179581858,146.0
424,1436179581882,135.0
425,1436179581901,135.0
426,1436179581918,120.0
427,1436179581940,104.0
428,1436179581957,104.0
429,1436179581980,93.0
430,1436179582000,93.0
431,1436179582020,85.0
432,1436179582040,85.0
433,1436179582060,78.0
434,1436179582080,78.0
435,1436179582100,74.0
436,1436179582122,74.0
437,1436179582137,71.0
438,1436179582160,71.0
439,1436179582177,69.0
440,1436179582197,69.0
441,1436179582222,68.0
442,1436179582244,68.0
443,1436179582268,66.0
444,1436179582284,66.0
445,1436179582299,65.0
446,1436179582318,65.0
447,1436179582338,65.0
448,1436179582358,66.0
449,1436179582379,66.0
450,1436179582401,70.0
451,1436179582447,70.0
452,1436179582449,76.0
453,1436179582465,76.0
454,1436179582478,82.0
455,1436179582500,82.0
456,1436179582517,87.0
457,1436179582538,87.0
458,1436179582561,91.0
459,1436179582582,91.0
460,1436179582601,97.0
461,1436179582619,97.0
462,1436179582641,107.0
463,1436179582660,107.0
464,1436179582681,122.0
465,1436179582700,139.0
466,1436179582721,139.0
467,1436179582741,153.0
468,1436179582761,153.0
469,1436179582781,163.0
470,1436179582801,163.0
471,1436179582820,166.0
472,1436179582840,166.0
473,1436179582861,166.0
474,1436179582881,166.0
475,1436179582901,159.0
476,1436179582921,159.0
477,1436179582940,149.0
478,1436179582966,149.0
479,1436179582980,146.0
480,1436179583000,146.0
481,1436179583018,144.0
482,1436179583038,144.0
483,1436179583058,135.0
484,1436179583080,135.0
485,1436179583099,123.0
486,1436179583179,111.0
487,1436179583180,111.0
488,1436179583181,101.0
489,1436179583182,101.0
490,1436179583199,95.0
491,1436179583231,95.0
492,1436179583239,90.0
493,1436179583259,90.0
494,1436179583281,87.0
495,1436179583300,87.0
496,1436179583333,84.0
497,1436179583345,84.0
498,1436179583370,82.0
499,1436179583378,82.0
500,1436179583409,79.0
501,1436179583422,79.0
502,1436179583439,77.0
503,1436179583503,77.0
504,1436179583504,76.0
505,1436179583505,76.0
506,1436179583518,76.0
507,1436179583539,76.0
508,1436179583559,76.0
509,1436179583579,79.0
510,1436179583599,79.0
511,1436179583619,85.0
512,1436179583639,85.0
513,1436179583659,94.0
514,1436179583680,94.0
515,1436179583699,106.0
516,1436179583718,106.0
517,1436179583738,123.0
518,1436179583760,123.0
519,1436179583780,142.0
520,1436179583798,142.0
521,1436179583817,164.0
522,1436179583838,164.0
523,1436179583874,188.0
524,1436179583878,212.0
525,1436179583897,212.0
526,1436179583918,231.0
527,1436179583939,231.0
528,1436179583958,245.0
529,1436179583979,245.0
530,1436179584003,255.0
531,1436179584023,255.0
532,1436179584043,259.0
533,1436179584060,259.0
534,1436179584079,249.0
535,1436179584103,249.0
536,1436179584123,222.0
537,1436179584143,222.0
538,1436179584161,197.0
539,1436179584180,197.0
540,1436179584199,187.0
541,1436179584223,187.0
542,1436179584243,177.0
543,1436179584260,177.0
544,1436179584281,159.0
545,1436179584302,141.0
546,1436179584322,141.0
547,1436179584345,126.0
548,1436179584362,126.0
549,1436179584383,116.0
550,1436179584401,116.0
551,1436179584420,110.0
552,1436179584441,110.0
553,1436179584460,107.0
554,1436179584532,107.0
555,1436179584544,104.0
556,1436179584545,104.0
557,1436179584546,101.0
558,1436179584560,101.0
559,1436179584582,99.0
560,1436179584601,99.0
561,1436179584620,98.0
562,1436179584641,98.0
563,1436179584660,98.0
564,1436179584681,97.0
565,1436179584707,97.0
566,1436179584720,96.0
567,1436179584742,96.0
568,1436179584763,98.0
569,1436179584783,98.0
570,1436179584803,104.0
571,1436179584823,104.0
572,1436179584843,115.0
573,1436179584863,115.0
574,1436179584883,128.0
575,1436179584903,128.0
576,1436179584923,139.0
577,1436179584946,139.0
578,1436179584963,145.0
579,1436179584986,145.0
580,1436179585005,148.0
581,1436179585026,148.0
582,1436179585043,151.0
583,1436179585060,155.0
584,1436179585080,155.0
585,1436179585100,161.0
586,1436179585127,161.0
587,1436179585141,165.0
588,1436179585165,165.0
589,1436179585183,169.0
590,1436179585208,169.0
591,1436179585289,174.0
592,1436179585290,174.0
593,1436179585291,179.0
594,1436179585292,179.0
595,1436179585309,192.0
596,1436179585322,192.0
597,1436179585342,211.0
598,1436179585392,211.0
599,1436179585393,218.0
600,1436179585411,218.0
601,1436179585420,200.0
602,1436179585440,200.0
603,1436179585460,178.0
604,1436179585481,168.0
605,1436179585501,168.0
606,1436179585524,160.0
607,1436179585544,160.0
608,1436179585564,145.0
609,1436179585581,145.0
610,1436179585604,129.0
611,1436179585624,129.0
612,1436179585644,119.0
613,1436179585663,119.0
614,1436179585683,114.0
615,1436179585704,114.0
616,1436179585723,110.0
617,1436179585744,110.0
618,1436179585762,108.0
619,1436179585783,108.0
620,1436179585804,108.0
621,1436179585824,108.0
622,1436179585844,108.0
623,1436179585864,108.0
624,1436179585883,108.0
625,1436179585903,106.0
626,1436179585922,106.0
627,1436179585998,105.0
628,1436179586000,105.0
629,1436179586001,105.0
630,1436179586002,105.0
631,1436179586023,105.0
632,1436179586042,105.0
633,1436179586062,106.0
634,1436179586081,106.0
635,1436179586101,110.0
636,1436179586121,110.0
637,1436179586143,118.0
638,1436179586162,118.0
639,1436179586182,128.0
640,1436179586205,128.0
641,1436179586225,140.0
642,1436179586242,155.0
643,1436179586265,155.0
644,1436179586285,170.0
645,1436179586302,170.0
646,1436179586325,183.0
647,1436179586345,183.0
648,1436179586362,196.0
649,1436179586387,196.0
650,1436179586403,204.0
651,1436179586424,204.0
652,1436179586445,208.0
653,1436179586461,208.0
654,1436179586481,213.0
655,1436179586502,213.0
656,1436179586523,222.0
657,1436179586601,222.0
658,1436179586602,213.0
659,1436179586603,213.0
660,1436179586604,179.0
661,1436179586622,151.0
662,1436179586642,151.0
663,1436179586662,142.0
664,1436179586704,142.0
665,1436179586705,140.0
666,1436179586722,140.0
667,1436179586742,131.0
668,1436179586762,131.0
669,1436179586782,118.0
670,1436179586828,118.0
671,1436179586829,107.0
672,1436179586852,107.0
673,1436179586865,98.0
674,1436179586882,98.0
675,1436179586902,90.0
676,1436179586922,90.0
677,1436179586942,85.0
678,1436179586961,85.0
679,1436179586981,82.0
680,1436179587001,82.0
681,1436179587021,80.0
682,1436179587041,78.0
683,1436179587061,78.0
684,1436179587081,77.0
685,1436179587103,77.0
686,1436179587121,76.0
687,1436179587141,76.0
688,1436179587161,75.0
689,1436179587181,75.0
690,1436179587201,76.0
691,1436179587221,76.0
692,1436179587241,79.0
693,1436179587261,79.0
694,1436179587281,88.0
695,1436179587301,88.0
696,1436179587321,100.0
697,1436179587343,100.0
698,1436179587361,114.0
699,1436179587381,114.0
700,1436179587401,131.0
701,1436179587421,152.0
702,1436179587441,152.0
703,1436179587461,176.0
704,1436179587481,176.0
705,1436179587501,200.0
706,1436179587521,200.0
707,1436179587541,218.0
708,1436179587561,218.0
709,1436179587581,227.0
710,1436179587601,227.0
711,1436179587621,231.0
712,1436179587641,231.0
713,1436179587661,227.0
714,1436179587681,227.0
715,1436179587701,205.0
716,1436179587721,205.0
717,1436179587741,175.0
718,1436179587761,175.0
719,1436179587781,159.0
720,1436179587802,158.0
721,1436179587825,158.0
722,1436179587846,157.0
723,1436179587864,157.0
724,1436179587886,148.0
725,1436179587906,148.0
726,1436179587923,136.0
727,1436179587946,136.0
728,1436179587978,125.0
729,1436179588018,125.0
730,1436179588019,115.0
731,1436179588023,115.0
732,1436179588046,107.0
733,1436179588066,107.0
734,1436179588083,100.0
735,1436179588105,100.0
736,1436179588123,95.0
737,1436179588142,95.0
738,1436179588167,92.0
739,1436179588186,92.0
740,1436179588205,91.0
741,1436179588224,92.0
742,1436179588247,92.0
743,1436179588268,94.0
744,1436179588285,94.0
745,1436179588307,96.0
746,1436179588323,96.0
747,1436179588346,99.0
748,1436179588364,99.0
749,1436179588386,106.0
750,1436179588407,106.0
751,1436179588427,118.0
752,1436179588447,118.0
753,1436179588466,135.0
754,1436179588486,135.0
755,1436179588506,154.0
756,1436179588526,154.0
757,1436179588547,176.0
758,1436179588566,176.0
759,1436179588584,201.0
760,1436179588607,236.0
761,1436179588628,236.0
762,1436179588658,279.0
763,1436179588664,279.0
764,1436179588684,324.0
765,1436179588704,324.0
766,1436179588727,361.0
767,1436179588745,361.0
768,1436179588767,383.0
769,1436179588784,383.0
770,1436179588806,392.0
771,1436179588824,392.0
772,1436179588847,395.0
773,1436179588864,395.0
774,1436179588887,378.0
775,1436179588907,378.0
776,1436179588927,351.0
777,1436179588948,351.0
778,1436179588967,337.0
779,1436179588987,330.0
780,1436179589007,330.0
781,1436179589027,314.0
782,1436179589050,314.0
783,1436179589064,296.0
784,1436179589087,296.0
785,1436179589108,281.0
786,1436179589128,281.0
787,1436179589148,268.0
788,1436179589167,268.0
789,1436179589187,258.0
790,1436179589204,258.0
791,1436179589225,249.0
792,1436179589247,249.0
793,1436179589276,240.0
794,1436179589290,240.0
795,1436179589307,233.0
796,1436179589391,233.0
797,1436179589392,228.0
798,1436179589393,228.0
799,1436179589394,225.0
800,1436179589404,227.0
801,1436179589427,227.0
802,1436179589446,232.0
803,1436179589464,232.0
804,1436179589491,237.0
805,1436179589506,237.0
806,1436179589527,242.0
807,1436179589566,242.0
808,1436179589567,248.0
809,1436179589584,248.0
810,1436179589605,259.0
811,1436179589625,259.0
812,1436179589649,275.0
813,1436179589665,275.0
814,1436179589683,299.0
815,1436179589704,299.0
816,1436179589724,329.0
817,1436179589747,329.0
818,1436179589768,363.0
819,1436179589786,399.0
820,1436179589808,399.0
821,1436179589824,435.0
822,1436179589844,435.0
823,1436179589864,466.0
824,1436179589889,466.0
825,1436179589909,489.0
826,1436179589929,489.0
827,1436179589948,509.0
828,1436179589964,509.0
829,1436179589985,526.0
830,1436179590006,526.0
831,1436179590026,542.0
832,1436179590047,542.0
833,1436179590074,559.0
834,1436179590090,559.0
835,1436179590107,578.0
836,1436179590124,578.0
837,1436179590145,593.0
838,1436179590167,589.0
839,1436179590187,589.0
840,1436179590209,556.0
841,1436179590227,556.0
842,1436179590245,504.0
843,1436179590267,504.0
844,1436179590288,484.0
845,1436179590307,484.0
846,1436179590326,482.0
847,1436179590348,482.0
848,1436179590368,478.0
849,1436179590388,478.0
850,1436179590408,475.0
851,1436179590430,475.0
852,1436179590445,472.0
853,1436179590469,472.0
854,1436179590488,469.0
855,1436179590507,469.0
856,1436179590527,467.0
