id,attr_time,attr_db
1,1437228625440,31.83962951659
2,1437228626187,36.4276467545088
3,1437228626915,22.4272191951474
4,1437228627641,34.0095192645856
5,1437228628398,20.5458428522018
6,1437228629102,54.3679165241571
7,1437228629856,40.1474141444856
8,1437228630561,21.5518526384595
9,1437228631331,38.9784223044405
10,1437228632037,40.208939595756
11,1437228632750,22.9293998234002
12,1437228633478,32.2455909281467
13,1437228634218,64.3960906241864
14,1437228634871,33.6021282306068
15,1437228635487,60.0695876921237
16,1437228636086,46.7173318448517
17,1437228636755,59.2004803648192
18,1437228637477,53.4721726211628
19,1437228638162,69.721349324379
20,1437228638856,54.3278007545399
21,1437228639586,63.3863848330184
22,1437228640295,56.9088845464915
23,1437228640956,45.7411635438088
24,1437228641696,54.7893636916829
25,1437228642418,55.8305238126965
26,1437228643152,70.3255137387077
27,1437228643887,58.6263183551717
28,1437228644610,34.0104038179347
29,1437228645332,55.5353709099431
30,1437228646011,46.134894659106
31,1437228646731,69.091477794478
32,1437228647453,50.3987723338465
33,1437228648196,50.9347117645544
34,1437228648894,58.7213519434758
35,1437228649579,63.3751960317
36,1437228650359,64.1401655471628
37,1437228651085,55.3185155493387
38,1437228651804,43.1964045840028
39,1437228652504,70.7671516942742
40,1437228653236,53.4499313830619
41,1437228653953,55.4013193592781
42,1437228654632,61.9076690020758
43,1437228655344,51.489720264098
44,1437228656058,69.4894903747929
45,1437228656734,56.102099834738
46,1437228657455,50.8794442287571
47,1437228658192,66.2395016432284
48,1437228658929,46.9380212370738
49,1437228659663,70.3648973129678
50,1437228660393,57.6635420264518
51,1437228661110,50.1964230733751
52,1437228661702,66.4573451822436
53,1437228662428,47.2511860616216
54,1437228663147,68.9167422154742
55,1437228663888,59.8667945784945
56,1437228664590,53.9833504420892
57,1437228665266,62.7531576621737
58,1437228665950,58.1485479109485
59,1437228666624,70.7395263510453
60,1437228667282,55.1642335008522
61,1437228668027,54.3741363331874
62,1437228668798,67.6089148441562
63,1437228669519,46.6076766345658
64,1437228670262,67.3338963223523
65,1437228670981,66.4902298603448
66,1437228671698,57.0594800834811
67,1437228672436,72.2091454246319
68,1437228673151,56.7450492101739
69,1437228673893,63.9370395036949
70,1437228674573,55.7241674413326
71,1437228675314,60.1461634790532
72,1437228676044,69.8509626189257
73,1437228676793,59.0341969729603
74,1437228677491,47.3453460971779
75,1437228678129,64.0824667343561
76,1437228678887,66.5393923132477
77,1437228679520,71.0419818219714
78,1437228680206,53.0259883073196
79,1437228680938,64.402719520094
80,1437228681681,61.8671207708881
81,1437228682446,67.1858773059634
82,1437228683189,70.6685690380316
83,1437228683794,60.6216664943091
84,1437228684479,64.6724967270657
85,1437228685213,60.9552144530789
86,1437228685940,57.3375331783207
87,1437228686676,71.2191515533945
88,1437228687427,62.8110087306313
89,1437228688155,52.7274340300029
90,1437228688868,58.0320833349891
91,1437228689586,67.8300092541667
92,1437228690312,62.2804006030271
93,1437228691040,64.5179204723171
94,1437228691784,61.5633715592598
95,1437228692517,70.0674184388488
96,1437228693235,54.0323977383962
97,1437228693965,63.0917753568834
98,1437228694641,63.9415339539084
99,1437228695291,52.0155287328762
100,1437228696026,62.7423658766262
101,1437228696753,55.797250609041
102,1437228697477,68.4348474257367
103,1437228698201,65.8810894115048
104,1437228698908,55.3931219927316
105,1437228699628,55.6686651248523
106,1437228700373,55.1504553586338
107,1437228701087,65.3086262392097
108,1437228701806,65.7084790541983
109,1437228702568,59.7448035129991
110,1437228703289,70.406359230018
111,1437228704008,50.1286756347363
112,1437228704730,65.8802726840307
113,1437228705399,65.1187388550329
114,1437228706126,48.8076802942299
115,1437228706843,55.9560737492272
116,1437228707575,52.7638561083166
117,1437228708344,70.9514457410831
118,1437228709125,61.2833810700604
119,1437228709900,56.9815144290406
120,1437228710622,57.6968167664899
121,1437228711334,47.790769123712
122,1437228712060,70.6571627189463
123,1437228712779,59.2855474074894
124,1437228713504,63.7892907293919
125,1437228714273,65.5342563400899
126,1437228714974,56.2819493327681
127,1437228715650,61.2207640204619
128,1437228716404,52.0858189616715
129,1437228717149,68.7193392137915
130,1437228717835,50.8923696757411
131,1437228718567,57.3696880886054
132,1437228719329,65.11816871263
133,1437228720076,47.2651807856148
134,1437228720788,70.7219691963669
135,1437228721516,55.5177657882044
136,1437228722235,64.9983742229409
137,1437228722976,63.2615716605072
138,1437228723725,50.8583932339154
139,1437228724447,48.152923088698
140,1437228725270,53.5562910301751
141,1437228725921,64.5759114273748
142,1437228726702,64.8413997535814
143,1437228727467,55.5652987352831
144,1437228728244,71.3486443946844
145,1437228728985,52.9345723823002
146,1437228729720,56.591123317404
147,1437228730456,67.3806793320373
148,1437228731152,67.1343717767829
149,1437228731821,71.1388017335799
150,1437228732533,56.0586910973937
151,1437228733261,55.9237403793756
152,1437228734002,65.0071415478508
153,1437228734747,65.542685072937
154,1437228735488,68.4016386068287
155,1437228736167,44.0120885646417
156,1437228736902,50.352568913103
157,1437228737695,61.5037950577564
158,1437228738460,57.5573344600154
159,1437228739157,58.9341322512821
160,1437228739878,62.7258410444895
161,1437228740612,51.8956306768831
162,1437228741324,71.8350182322525
163,1437228741986,64.0240998542728
164,1437228742703,54.3184106833598
165,1437228743488,57.5290691154629
166,1437228744228,50.8226870033976
167,1437228744933,70.0698744125984
168,1437228746043,53.2277128738814
169,1437228746656,66.2022848835213
170,1437228747345,69.3507152558987
171,1437228748024,44.0333230563471
172,1437228748705,56.3285191276979
173,1437228749486,61.9761106122542
174,1437228750226,39.0597397559978
175,1437228750940,71.3440908807836
176,1437228751669,43.1615133064258
177,1437228752416,57.8205324903486
178,1437228753174,60.4627524145718
179,1437228753848,65.0074843141297
180,1437228754480,69.297540077972
181,1437228755153,51.5903132279129
182,1437228755758,70.9288165967343
183,1437228756441,50.1100206272557
184,1437228757182,63.9804410455337
185,1437228757899,61.2784505447522
186,1437228758610,52.8624786002058
187,1437228759337,67.1424690804611
188,1437228760002,68.7675829000916
189,1437228760713,69.1294954115343
190,1437228761447,57.4967762699377
191,1437228762162,48.0287127099388
192,1437228762928,61.4952941362441
193,1437228763648,58.2780965996162
194,1437228764369,60.1134981077411
195,1437228765102,64.6874944186797
196,1437228765799,41.2646131769899
197,1437228766492,62.2693289292942
198,1437228767204,67.9138588376154
199,1437228767933,60.3253646267448
200,1437228768657,58.4570449296818
201,1437228769393,51.5551233460299
202,1437228770129,61.7625739019306
203,1437228770850,63.7672324457542
204,1437228771561,64.8033656936727
205,1437228772314,62.8658942860113
206,1437228773061,47.2603374974797
207,1437228773777,67.4018169085261
208,1437228774500,57.9364579240396
209,1437228775195,58.5776269501034
210,1437228775811,62.6499172929615
211,1437228776462,47.6444950980765
212,1437228777142,63.3401259834387
213,1437228777820,56.9425889107484
214,1437228778573,69.7274878219715
215,1437228779272,50.759313204204
216,1437228780700,66.8415752801666
217,1437228781375,40.0385449702708
218,1437228782085,70.5596487203125
219,1437228782818,50.5430331173385
220,1437228783575,54.9373190910367
221,1437228784308,72.6738161119345
222,1437228785048,54.3208888837394
223,1437228785794,70.6051885150222
224,1437228786514,56.4690112386575
225,1437228787213,54.3915911270894
226,1437228787840,59.5028192032611
227,1437228788534,47.2273821800697
228,1437228789285,63.0053949874308
229,1437228790039,69.6683363656603
230,1437228790770,67.3180133351342
231,1437228791527,64.0704350578088
232,1437228792200,53.9527062642798
233,1437228792905,61.8000355516797
234,1437228793662,46.9426465813477
235,1437228794308,66.9001521605539
236,1437228795841,48.9418891907941
237,1437228796508,66.6221796730133
238,1437228797250,54.8860151017647
239,1437228798013,62.4683705233241
240,1437228798692,57.9698388176193
241,1437228799344,55.5346078286433
242,1437228800050,60.6006541731608
243,1437228800770,50.0643323845855
244,1437228801490,71.7381616739293
245,1437228802234,62.2020698483689
246,1437228802959,47.5710883836738
247,1437228803742,68.2644070831789
248,1437228804467,61.7068657471739
249,1437228805218,68.8102649507121
250,1437228805948,52.0100196342948
251,1437228806624,48.4610700154807
252,1437228807250,59.5554360343876
253,1437228807932,55.5770939891006
254,1437228808658,60.9146205571847
255,1437228809313,52.9842890040146
256,1437228810019,70.6388592393545
257,1437228810749,58.9395506275954
258,1437228811458,44.150366392175
259,1437228812207,62.4710361612738
260,1437228812920,62.0813618795632
261,1437228813653,66.5951549627939
262,1437228814441,59.6537370526513
263,1437228815161,57.7656090408316
264,1437228815883,63.5860034703259
265,1437228816605,71.2225940770185
266,1437228818240,50.6585016050813
267,1437228818893,64.4538504545979
268,1437228819595,68.8800663616956
269,1437228820340,54.2947097475871
270,1437228821055,40.0294175216326
271,1437228821783,62.2991383498225
272,1437228822514,55.0686759406968
273,1437228823264,54.4727925077962
274,1437228823978,59.4773727846027
275,1437228824707,54.8212005362183
276,1437228825448,70.2389122155609
277,1437228826189,59.3320263462431
278,1437228826933,53.5153095389321
279,1437228827696,63.4928360321022
280,1437228828450,53.8882766634259
281,1437228829184,59.7560528481801
282,1437228829840,63.7023653333211
283,1437228831099,60.711701165645
284,1437228831852,54.5151051918258
285,1437228832569,68.0199308253568
286,1437228833199,52.1685028101811
287,1437228833896,56.65910445015
288,1437228834633,62.4407945354158
289,1437228835297,58.5019204169466
290,1437228836005,72.7090363262725
291,1437228836737,65.0864600544526
292,1437228837395,62.8021425895341
293,1437228838087,60.0809387404916
294,1437228838775,54.1632283284888
295,1437228839500,67.811080200431
296,1437228840242,44.5440306037282
297,1437228840954,51.4435357072074
298,1437228841676,59.8070597794991
299,1437228842396,47.786394594224
300,1437228843113,61.7218121466758
301,1437228843850,54.4020242832601
302,1437228844545,50.8799956279463
303,1437228845308,70.1122409780448
304,1437228846052,55.7320659382992
305,1437228846788,57.6236459264001
306,1437228847505,61.5025090904423
307,1437228848251,62.6173113593182
308,1437228848953,70.1810899432654
309,1437228849679,56.1109440512206
310,1437228850407,46.4987258681466
311,1437228851147,70.64032950604
312,1437228851861,60.122542376971
313,1437228852591,57.8498105463307
314,1437228853345,65.8976095813931
315,1437228854078,71.9071393854178
316,1437228854803,69.3809736820598
317,1437228855494,57.4619633144067
318,1437228856233,44.1225237981089
319,1437228856957,70.182373537678
320,1437228857587,46.2037124044858
321,1437228858361,57.996040634401
322,1437228859084,62.4806725284632
323,1437228859841,65.5613438534805
324,1437228860557,69.1473641464551
325,1437228861320,62.0022382486326
326,1437228862049,56.8612988078622
327,1437228862765,62.6762705958411
328,1437228863485,69.4268672233099
329,1437228864237,64.6249189988399
330,1437228864995,62.1196425422356
331,1437228865686,57.5174988141119
332,1437228866378,70.9335214533291
333,1437228867122,58.2654244062963
334,1437228867871,49.7364979658917
335,1437228868589,61.6992147995394
336,1437228869343,55.7408833514081
337,1437228870049,69.7962721406844
338,1437228870778,54.8699265384471
339,1437228871512,56.9469400760978
340,1437228872284,69.1814199441081
341,1437228873011,57.3463424518866
342,1437228873742,52.1969214416308
343,1437228874486,60.1415177545912
344,1437228875200,69.3700191461318
345,1437228875928,59.1855877464655
346,1437228876717,48.617399694744
347,1437228877403,56.0375399060816
348,1437228878136,70.3288153076948
349,1437228878877,46.3011000616671
350,1437228879564,54.1607665502537
351,1437228880331,66.8429187353301
352,1437228881054,41.6189122402383
353,1437228881759,61.5911721239892
354,1437228882409,51.440285830377
355,1437228883111,52.099994153716
356,1437228883823,63.7454761685759
357,1437228884543,59.5334276215393
358,1437228885273,68.2633361872059
359,1437228885999,53.8471967506882
360,1437228886688,54.1731322023197
361,1437228887351,69.5218837119854
362,1437228888023,41.2397077815126
363,1437228888731,69.9542771407176
364,1437228889464,51.8534297880516
365,1437228890172,58.1738128533442
366,1437228890776,46.0978134096337
367,1437228891454,53.4003695667305
368,1437228892177,60.6664118621163
369,1437228892852,61.9170481920739
370,1437228893576,69.456115429595
371,1437228894299,53.7217501800096
372,1437228895033,56.5468225532373
373,1437228895765,64.8656417065568
374,1437228896498,67.6884168036722
375,1437228897169,69.3687927602323
376,1437228897870,59.3490592780341
377,1437228898597,60.2649927829061
378,1437228899360,71.8045183723807
379,1437228900101,58.132125400866
380,1437228900859,54.9704268865911
381,1437228901587,63.3754958036057
382,1437228902349,50.5033220341139
383,1437228903006,68.4744973700943
384,1437228903724,45.3005105410677
385,1437228904449,52.3048784103479
386,1437228905175,63.6180817716997
387,1437228905924,68.4831125897578
388,1437228906664,64.2638104940192
389,1437228907409,66.0214951809409
390,1437228908112,49.3541353416545
391,1437228908859,67.0552059281515
392,1437228909592,48.798225506141
393,1437228910353,60.6073882215875
394,1437228911075,63.3012776399455
395,1437228911791,56.6003867144581
396,1437228912591,69.3269745558246
397,1437228913256,55.4652270686978
398,1437228913993,56.9212917963254
399,1437228914718,56.9010009712576
400,1437228915451,46.3783548047996
401,1437228916190,67.3327656179405
402,1437228916922,54.167630560464
403,1437228917601,60.8567419343164
404,1437228918355,61.4212350235011
405,1437228919055,58.6352984581008
406,1437228919772,61.0197624779668
407,1437228920497,65.4620217832576
408,1437228921201,72.0432217396201
409,1437228921913,59.6102614212113
410,1437228922689,53.1723521280298
411,1437228923441,70.3278573102436
412,1437228924108,70.9088349274053
413,1437228924825,59.7793389316044
414,1437228925559,57.1900868143844
415,1437228926297,57.4365356084298
416,1437228927032,68.4550930488059
417,1437228927706,60.5808658652651
418,1437228928430,69.3012468890375
419,1437228929131,60.4126548047476
420,1437228929853,58.4526140335053
421,1437228930575,66.8837573478459
422,1437228931351,59.9150644030707
423,1437228932061,66.5024900087692
424,1437228932787,49.3140241388503
425,1437228933528,52.4764781191515
426,1437228934246,60.6729805065969
427,1437228934997,51.7629753502187
428,1437228935717,64.5830413924932
429,1437228936432,64.0603110339521
430,1437228937191,69.8213287988759
431,1437228937841,55.1487672497784
432,1437228938535,60.3088667076205
433,1437228939313,64.1076200703739
434,1437228940038,55.7211986060547
435,1437228940758,62.2274612133349
436,1437228941484,57.7291747186145
437,1437228942209,67.8354594963813
438,1437228942881,56.0064330865268
439,1437228943591,70.286083115363
440,1437228944318,70.3977198934327
441,1437228945054,68.9993735359614
442,1437228945777,67.9345238424818
443,1437228946507,55.1726332477033
444,1437228947235,67.7174537859007
445,1437228947925,50.1601961773429
446,1437228948649,61.9061372679976
447,1437228949404,53.1076523308447
448,1437228950130,66.0192416509338
449,1437228950850,70.0793327736605
450,1437228951566,53.514244408623
451,1437228952318,61.3448321622454
452,1437228953033,52.6795972090913
453,1437228953770,65.5400699159957
454,1437228954568,57.7674392306756
455,1437228955293,58.846396910005
456,1437228956022,67.3170437897221
457,1437228956766,60.7253705488901
458,1437228957527,50.7259263862597
459,1437228958158,56.6596095537796
460,1437228958891,53.0083973445152
461,1437228959652,65.5135388613098
462,1437228960394,69.3600317768165
463,1437228961156,64.5473970116932
464,1437228961881,59.8736142239965
465,1437228962646,52.8852474591211
466,1437228963347,66.0962988808578
467,1437228964074,59.6611241962323
468,1437228964795,65.0132635590744
469,1437228965497,57.6229521835268
470,1437228966229,59.8309641439007
471,1437228966963,65.0958013380148
472,1437228967695,68.5923289992465
473,1437228968378,62.0222910288575
474,1437228969028,43.9184094757251
475,1437228969692,53.0381585269971
476,1437228970367,61.8475675281503
477,1437228971070,48.0746658862133
478,1437228971789,48.9337340281545
479,1437228972514,57.5251480470351
480,1437228973230,66.3604473234278
481,1437228973964,59.6173561232781
482,1437228974731,56.5794170438357
483,1437228975468,64.3032910651341
484,1437228976211,67.6362209176026
485,1437228976942,55.9481022762188
486,1437228977681,60.4251603541448
487,1437228978309,50.4344778329494
488,1437228978955,63.5130448202475
489,1437228979678,52.233009800446
490,1437228980439,70.1451023283979
491,1437228981179,55.4593008366629
492,1437228981920,53.5038818698164
493,1437228982667,66.5412013824185
494,1437228983366,50.1791598619297
495,1437228984939,62.2714246476917
496,1437228985658,57.8838735877009
497,1437228986390,68.1629852834091
498,1437228987114,67.4810579229817
499,1437228987856,67.7359082070166
500,1437228988660,59.9058737377326
501,1437228989336,49.1340843111057
502,1437228990058,61.98849349217
503,1437228990776,47.8188059749997
504,1437228991511,70.526408351609
505,1437228992249,61.1988069250984
506,1437228993030,64.147188201655
507,1437228993781,71.6063807346
508,1437228994484,58.1268660119463
509,1437228995162,69.1425871756053
510,1437228995889,60.0424165595667
511,1437228996631,53.0728482612526
512,1437228997376,55.3029217206431
513,1437228998092,62.9951317814694
514,1437228998765,68.8044841416738
515,1437228999451,47.0463129482841
516,1437229000162,40.4258973846012
517,1437229000909,52.2927349306176
518,1437229001616,68.4405876298932
519,1437229002335,59.2107870270589
520,1437229004104,67.7877008474268
521,1437229004732,64.4605030407695
522,1437229005471,71.2649794463343
523,1437229006206,59.702386222581
524,1437229006947,54.7102950492574
525,1437229007679,64.4442071610967
526,1437229008405,69.1764426935568
527,1437229009098,69.0100094235015
528,1437229009766,53.3118001813169
529,1437229010491,52.5894330592043
530,1437229011224,59.2364014689512
531,1437229011958,55.9969137641829
532,1437229012668,65.3547898441101
533,1437229013346,61.4123276545391
534,1437229014071,67.6946629535076
535,1437229014818,54.9025098042446
536,1437229015551,46.4598700181388
537,1437229016258,67.1193512887
538,1437229016983,52.3863793975665
539,1437229017754,68.6527418832591
540,1437229018441,55.8146370126642
541,1437229019179,48.6967541628687
542,1437229019865,53.9428403604527
543,1437229020521,45.8442227934023
544,1437229021268,60.9970921561681
545,1437229021998,69.8685193548613
546,1437229022726,65.347866677821
547,1437229023453,60.7555420301338
548,1437229024150,59.9486071883017
549,1437229024871,67.3520833331214
550,1437229025557,58.4305287812005
551,1437229026288,68.4861288509264
552,1437229027023,49.2316664075156
553,1437229027740,62.5549013885858
554,1437229028470,60.3947665317805
555,1437229029215,62.0701619509383
556,1437229029917,66.4335113399809
557,1437229030665,63.4073581048878
558,1437229031427,61.4053981100701
559,1437229032141,59.805157948984
560,1437229032850,44.3116867402784
561,1437229034660,63.7996046826523
562,1437229035381,64.9447273566935
563,1437229036107,69.3616751687352
564,1437229036847,54.7031880258629
565,1437229037589,52.2987283183687
566,1437229038294,72.4395442109331
567,1437229039011,63.7075886140823
568,1437229039692,69.3122606532487
569,1437229040354,53.8746109727944
570,1437229041081,59.4374542837174
571,1437229041800,53.5279559959761
572,1437229042508,53.8076277806483
573,1437229043257,67.225560064637
574,1437229044028,60.1802304146405
575,1437229044755,60.3499503920179
