id,attr_time,attr_db
1,1437228625674,37.9413132776554
2,1437228626406,27.0078558784775
3,1437228627137,40.0758058983168
4,1437228627889,45.8191144811496
5,1437228628626,19.1336278164412
6,1437228629354,36.1042686751182
7,1437228630083,42.3913298274927
8,1437228630803,58.2197543364285
9,1437228631530,44.1989634871195
10,1437228632259,30.9200679339585
11,1437228633035,32.8168990154934
12,1437228633764,26.3831358716769
13,1437228634490,34.4111134760321
14,1437228635150,36.1181564137226
15,1437228635849,35.0124238902917
16,1437228636521,35.1166928590029
17,1437228637257,31.1630698568903
18,1437228637976,43.5815305996279
19,1437228638738,42.8745203235338
20,1437228639457,64.4882282328854
21,1437228640173,52.1417041218003
22,1437228640896,59.0747133763687
23,1437228641634,28.103333496115
24,1437228642362,62.7954190894258
25,1437228643096,49.2657581440231
26,1437228643820,38.3067596261175
27,1437228644540,62.786043239327
28,1437228645252,58.6912028408365
29,1437228645942,59.9611045198039
30,1437228646581,50.8608064449358
31,1437228647268,62.2530371825231
32,1437228648018,40.0511609896849
33,1437228648760,55.5892685257473
34,1437228649484,58.0791249897632
35,1437228650195,51.8302113314805
36,1437228650937,59.9474849702776
37,1437228651671,45.3003148964127
38,1437228652415,35.7354225498643
39,1437228653153,44.8336390952208
40,1437228653888,59.2373430875387
41,1437228654617,35.9125330127576
42,1437228655383,64.9744767920098
43,1437228656145,37.6410071319443
44,1437228656728,43.0704039995187
45,1437228657402,38.7367999042099
46,1437228658130,57.1960016157149
47,1437228658858,50.6618657602478
48,1437228659580,44.7549168364084
49,1437228660332,56.9984101648449
50,1437228661041,53.6465904846612
51,1437228661773,45.5317893129534
52,1437228662515,49.0152332309944
53,1437228663242,60.7086684861031
54,1437228663933,41.4791997154797
55,1437228664621,35.5403783977771
56,1437228665354,37.9009001902975
57,1437228666077,35.8858708662444
58,1437228666808,52.4188778267381
59,1437228667551,43.6412649245017
60,1437228668281,52.7121205466137
61,1437228669013,57.7168150061897
62,1437228669765,47.9562129392341
63,1437228670511,57.3005263607817
64,1437228671256,49.7642864926703
65,1437228671994,60.0593330675552
66,1437228672736,32.0953342486656
67,1437228673481,43.9350987514432
68,1437228674227,37.7166931380551
69,1437228674933,47.8641180115854
70,1437228675689,62.088114777712
71,1437228676467,59.9457507504819
72,1437228677062,62.8369731403167
73,1437228677755,45.5190263412892
74,1437228678506,64.1899555596157
75,1437228679217,40.1136001558064
76,1437228679975,63.5079540793146
77,1437228680730,40.1932645255322
78,1437228681454,44.6861147093219
79,1437228682191,37.9967646402248
80,1437228682915,53.0457366116535
81,1437228683754,57.4456742438673
82,1437228684461,41.746538708115
83,1437228685191,33.1889215877734
84,1437228685915,37.986329649076
85,1437228686687,46.504960550638
86,1437228687427,36.0940746537248
87,1437228688166,30.6747815514445
88,1437228688886,33.4068355127681
89,1437228689648,34.5373822154645
90,1437228690377,36.2561904105291
91,1437228691073,38.4614570975023
92,1437228691808,52.5395154008316
93,1437228692538,38.1214905621872
94,1437228693281,40.4633536228369
95,1437228694023,46.4452068966975
96,1437228694776,49.818140158717
97,1437228695495,58.2233396602534
98,1437228696214,40.020161963026
99,1437228696889,52.7243599004605
100,1437228698469,44.6155245744784
101,1437228699199,36.5291604374074
102,1437228699920,36.4731813712352
103,1437228700702,47.328781367379
104,1437228701441,45.613400807669
105,1437228702173,43.0813277713636
106,1437228702938,36.9273729852716
107,1437228703710,33.193487504523
108,1437228704440,62.8230110639403
109,1437228705160,58.4424193419322
110,1437228705869,46.1152787223282
111,1437228706628,39.1312876928794
112,1437228707360,41.4724977738346
113,1437228708103,41.7434449288994
114,1437228708809,40.7668408472602
115,1437228709552,50.0024705781306
116,1437228710289,51.6761551620419
117,1437228711046,51.1849248368133
118,1437228711781,49.5560009711249
119,1437228713634,37.6728277460869
120,1437228714364,36.8492686193188
121,1437228715084,51.328922294567
122,1437228715811,54.2176442588033
123,1437228716541,46.2372566718918
124,1437228717343,35.9440762558626
125,1437228718020,41.0348094892811
126,1437228718778,67.8680323728553
127,1437228719520,61.3742492017494
128,1437228720236,38.173105604386
129,1437228721000,38.4449581091825
130,1437228721743,39.6846841608712
131,1437228722474,33.4370348312524
132,1437228723142,44.0866597068589
133,1437228723833,37.2165262820383
134,1437228724562,36.3810697068986
135,1437228725284,41.0891183463041
136,1437228726032,35.6298753903094
137,1437228726779,37.5744994943119
138,1437228727518,35.8507786892862
139,1437228728233,38.4992957531509
140,1437228729019,45.3761705184229
141,1437228729779,51.2183244927904
142,1437228730504,33.8770932475231
143,1437228731233,47.2549296279952
144,1437228731989,59.5508627475281
145,1437228732743,45.6597489703453
146,1437228733473,40.0423574038262
147,1437228734221,39.3069600093977
148,1437228736266,38.4015966013823
149,1437228737009,45.1525602600668
150,1437228737780,39.0758663822983
151,1437228738450,36.8314059476396
152,1437228739158,37.5159621259721
153,1437228739894,45.285531313676
154,1437228740658,50.9760600968521
155,1437228741378,35.0425561410385
156,1437228742103,56.2693808316913
157,1437228742823,39.2178352965211
158,1437228743546,37.3052082810046
159,1437228744269,43.7947601514917
160,1437228744982,45.4467974028887
161,1437228745634,38.075997700159
162,1437228746416,34.2243514524358
163,1437228747137,33.6416020596175
164,1437228747865,37.6204436693692
165,1437228749414,36.2297945730713
166,1437228750079,36.4042794724545
167,1437228750809,37.1915925451092
168,1437228751547,41.0698004447618
169,1437228752267,36.9794110202356
170,1437228753017,34.7067612891572
171,1437228753788,57.7886518330667
172,1437228754473,56.6978341423463
173,1437228755149,51.7717919661711
174,1437228755864,56.8075982426708
175,1437228756627,53.5798250676206
176,1437228757395,52.3472441973983
177,1437228758125,39.0227780981422
178,1437228758870,64.4700567355951
179,1437228759629,62.4742736962619
180,1437228760316,60.0753842225504
181,1437228760974,59.7080048336266
182,1437228761784,40.2329424896421
183,1437228762527,53.5316213819932
184,1437228763240,47.7464193259959
185,1437228763919,43.8439886419398
186,1437228764692,43.103903056445
187,1437228765414,36.0287280706045
188,1437228766140,39.8084222096042
189,1437228766861,67.4947317604087
190,1437228767594,60.844201048828
191,1437228768329,39.3441804232762
192,1437228769071,62.0984391090559
193,1437228769803,59.9308898200259
194,1437228770549,37.1972142992995
195,1437228771257,46.0277744691337
196,1437228772002,63.8128745797256
197,1437228772743,39.4156317694933
198,1437228773530,51.6849974166585
199,1437228774267,53.3392309024467
200,1437228775011,67.7089128440535
201,1437228775749,59.4201811565193
202,1437228776488,40.544944924567
203,1437228777205,40.3530052551393
204,1437228777924,58.5184704161691
205,1437228778727,46.692789208185
206,1437228779491,36.7641802503342
207,1437228780164,37.2013878967716
208,1437228780895,36.8270447018343
209,1437228781637,44.4037392835814
210,1437228782363,38.7590788914887
211,1437228783125,56.2236777725681
212,1437228783861,41.5011287786618
213,1437228784633,35.5790108354563
214,1437228785293,38.4123242054921
215,1437228785992,64.7917163930695
216,1437228786607,61.7135751513986
217,1437228787339,63.1114735279471
218,1437228788075,52.5318620535752
219,1437228788796,36.2012054805802
220,1437228789553,37.1432923384508
221,1437228790253,58.5932512995105
222,1437228790967,59.3382608206611
223,1437228791733,36.1998081056947
224,1437228792483,42.4807662336832
225,1437228793204,54.9317640293194
226,1437228793936,53.2349826251317
227,1437228794672,50.4980826798055
228,1437228795287,49.1500914932453
229,1437228795987,51.4800932881241
230,1437228796753,35.1306854595708
231,1437228797488,65.8928918602667
232,1437228798209,49.3073656041399
233,1437228798949,40.3401959443765
234,1437228799722,42.1987501000098
235,1437228800461,70.335368344454
236,1437228801191,36.5944299256025
237,1437228801927,44.9563936449284
238,1437228802704,38.5235659818785
239,1437228803444,65.6254084802146
240,1437228804178,62.6221797473834
241,1437228804915,56.5235099508552
242,1437228805666,55.1685610725538
243,1437228806400,54.3003863572097
244,1437228807167,59.1337136398053
245,1437228807881,42.3690594459489
246,1437228808658,65.8132481999259
247,1437228809475,56.9121692207862
248,1437228810189,60.2581304024078
249,1437228810873,36.8004832409035
250,1437228811619,44.1288301323866
251,1437228812346,39.5480634367132
252,1437228813078,34.9176772659801
253,1437228813810,35.4800137792892
254,1437228814547,47.3854420881638
255,1437228815288,61.2863095076159
256,1437228816035,59.4130726609958
257,1437228816784,53.8594873272852
258,1437228817433,37.2047787591203
259,1437228818112,64.9036079689489
260,1437228818860,63.9287361505362
261,1437228819624,39.1175693600977
262,1437228820341,34.8318955545281
263,1437228821081,39.3439879508808
264,1437228821801,51.284967129789
265,1437228822535,51.3728087881598
266,1437228823318,34.2996541390259
267,1437228824046,36.4217937686013
268,1437228824804,37.3183111801025
269,1437228825537,39.0053860305293
270,1437228826265,48.4951552179721
271,1437228827005,52.7190227040257
272,1437228827757,38.3083607265696
273,1437228828482,35.9524336287614
274,1437228829220,52.0077534263553
275,1437228829932,51.1354315482068
276,1437228830724,58.0812788211105
277,1437228831445,65.826937439182
278,1437228832171,62.1052624133145
279,1437228832897,32.6127318563769
280,1437228833611,39.3236456836981
281,1437228834312,51.5189520836389
282,1437228835045,61.6691734917004
283,1437228835765,61.9402806306356
284,1437228836340,65.1496177723924
285,1437228837037,64.7169451065562
286,1437228837751,68.183759345126
287,1437228838444,66.7097766554399
288,1437228839159,39.1542069551969
289,1437228839968,63.7015121644212
290,1437228840657,47.0846154182542
291,1437228841402,57.8883046629462
292,1437228842129,37.49318726986
293,1437228842853,39.2331991502193
294,1437228843645,44.7159601401593
295,1437228844368,42.6808240011414
296,1437228845058,42.9028005181399
297,1437228845709,33.9328065649187
298,1437228846453,40.0186287752069
299,1437228847174,39.9226272858061
300,1437228847925,42.2159765057159
301,1437228848707,57.1301330740322
302,1437228849434,43.115416874756
303,1437228850159,67.1962737488761
304,1437228850879,67.0937884833597
305,1437228851677,42.177900629044
306,1437228852402,39.7898639452623
307,1437228853176,59.8305572872458
308,1437228853901,61.2359959954036
309,1437228854673,62.9290472324011
310,1437228855404,44.2059028643087
311,1437228856238,35.7110115462206
312,1437228856933,48.309291660484
313,1437228857676,60.8341562706867
314,1437228858401,56.1118321073429
315,1437228859151,40.3969837134935
316,1437228859860,50.0884209544741
317,1437228860524,39.3804340919279
318,1437228861773,41.9115948759441
319,1437228862449,66.7679527837072
320,1437228863219,33.7052628433312
321,1437228863968,55.7412126642256
322,1437228864627,37.6326254156911
323,1437228865376,39.8543378080241
324,1437228866096,32.7437214925825
325,1437228866797,30.6161864606451
326,1437228867504,68.0163042616767
327,1437228868149,37.1238036475346
328,1437228868839,38.8493469099577
329,1437228869607,48.8114311626842
330,1437228870361,32.0010369581635
331,1437228871084,36.4108757412803
332,1437228871819,60.4421534856947
333,1437228872552,52.2294012571534
334,1437228873323,37.6718986739158
335,1437228874063,48.8263418157296
336,1437228874791,40.8067095191961
337,1437228875483,61.4205072919382
338,1437228876096,58.9128048937721
339,1437228876788,36.2910666758634
340,1437228877524,42.531757321664
341,1437228878314,61.4034841819241
342,1437228879029,64.818987156374
343,1437228879778,50.3376432358994
344,1437228880477,32.8091323986061
345,1437228881193,37.2011599252776
346,1437228881912,38.6693946269659
347,1437228882688,38.633090426943
348,1437228883462,31.765187421181
349,1437228884181,37.5572290803223
350,1437228884890,41.3044672526792
351,1437228885648,44.2758811395142
352,1437228886380,43.4800613344641
353,1437228887095,41.2559542426276
354,1437228887826,45.812377773401
355,1437228888574,52.9476252569649
356,1437228889293,39.2601817052646
357,1437228890037,41.3296423558996
358,1437228890780,57.917840276705
359,1437228891479,46.4547943809473
360,1437228892118,35.9605635472598
361,1437228892892,29.4159006293365
362,1437228893639,42.9916731999987
363,1437228894341,31.3607901749508
364,1437228895008,44.8530288191806
365,1437228895707,53.105058956649
366,1437228896441,42.433902105272
367,1437228897168,41.1038928935455
368,1437228897911,42.9392434283646
369,1437228898698,36.474102394468
370,1437228899377,37.4530863797666
371,1437228900031,30.3996086154652
372,1437228900716,35.1434173908825
373,1437228901371,32.3367813822513
374,1437228902815,52.8462351704619
375,1437228903477,45.6216486250498
376,1437228904203,48.926117205123
377,1437228904932,41.0709185260276
378,1437228905669,55.5732932397381
379,1437228906362,48.4061244281616
380,1437228907114,40.5931598727032
381,1437228907863,56.6260729779422
382,1437228908642,48.1747740375614
383,1437228909344,56.2104476118329
384,1437228910065,56.8016221350973
385,1437228910796,36.7505047700398
386,1437228911559,49.7067890472778
387,1437228912293,39.026012801636
388,1437228913030,62.8915310286868
389,1437228913797,51.6147765944469
390,1437228914537,51.1386198888028
391,1437228915265,34.7135947369928
392,1437228916014,39.0650920169191
393,1437228916736,41.0108295776729
394,1437228917458,37.5519777310728
395,1437228918192,42.8423475574809
396,1437228918943,44.9078296933363
397,1437228919696,25.6466150648152
398,1437228920383,34.3025729601325
399,1437228921787,46.7252911267956
400,1437228922519,33.8032749638558
401,1437228923269,42.5524057938031
402,1437228924050,39.6378527115863
403,1437228924786,38.6335701500312
404,1437228925520,29.579016634378
405,1437228926278,28.496600019999
406,1437228926950,25.909905278264
407,1437228927621,27.5136489637269
408,1437228928346,39.8540947172588
409,1437228929077,43.4805252320578
410,1437228929794,37.8695750620146
411,1437228930523,38.0723682610567
412,1437228931225,26.8174767223949
413,1437228931947,32.2051550389227
414,1437228932715,35.7767139358684
415,1437228933443,38.5958425672486
416,1437228934182,29.8371977981041
417,1437228934923,34.5728889109123
418,1437228935719,54.0499405490043
419,1437228936443,59.5059623034874
420,1437228937154,61.871845132641
421,1437228937880,40.9017344014789
422,1437228938654,46.6413872449489
423,1437228939371,47.6410208796322
424,1437228940088,60.155367633705
425,1437228940838,61.2918312862385
426,1437228941569,65.5998160229937
427,1437228942303,55.069752266722
428,1437228943058,39.9639133536456
429,1437228943789,48.3585965976009
430,1437228944509,55.6333317848641
431,1437228945228,38.2354290507519
432,1437228945959,64.4905498950436
433,1437228946712,36.4174067218288
434,1437228947442,54.5097592181346
435,1437228948178,56.7528045722137
436,1437228948926,39.3718341079088
437,1437228949686,35.9240468943405
438,1437228950404,39.5776938715661
439,1437228952538,61.4310211724368
440,1437228953311,66.1263773120255
441,1437228954047,58.1353658993823
442,1437228954777,58.9858233349351
443,1437228955542,36.8895632173328
444,1437228956288,34.829517886274
445,1437228957000,65.3485218166847
446,1437228957793,28.266852866122
447,1437228958492,62.2105710855046
448,1437228959164,51.6861055869976
449,1437228959814,57.7478734249561
450,1437228960600,40.1995820641309
451,1437228961321,56.3221956843923
452,1437228962072,53.3817547164313
453,1437228962796,56.8930893738285
454,1437228963512,57.0870076892303
455,1437228964202,40.787515440101
456,1437228964905,58.843085191024
457,1437228965524,55.7826459420125
458,1437228966213,63.5728965145516
459,1437228966926,63.8585384547652
460,1437228967666,55.7161418198519
461,1437228968358,49.9370921674933
462,1437228969527,41.4332495155697
463,1437228970230,65.4649012605276
464,1437228970981,60.6447132059067
465,1437228971761,55.8880907700795
466,1437228972472,49.899236743018
467,1437228973205,37.5909526398623
468,1437228973924,37.5217448935549
469,1437228974657,37.6270540148514
470,1437228975272,50.3894599356248
471,1437228975929,52.0944349643899
472,1437228976630,48.5713837612403
473,1437228977349,43.740339549723
474,1437228978089,38.3469097632079
475,1437228978823,39.5126886549999
476,1437228979560,56.2322750564676
477,1437228980225,53.9830411239785
478,1437228980899,28.5974689017801
479,1437228981572,39.8786849776396
480,1437228982317,59.233910952415
481,1437228983057,63.3695361554328
482,1437228983780,51.2063939788902
483,1437228984555,58.2305892820979
484,1437228985273,38.954461321618
485,1437228985952,38.4193942627271
486,1437228986739,40.1091583811699
487,1437228987472,32.9998540615657
488,1437228988188,36.558907962433
489,1437228988921,55.892410429489
490,1437228989643,53.7599094430152
491,1437228990343,34.9210124405072
492,1437228991079,32.7802213585876
493,1437228991795,56.4733622193458
494,1437228992546,58.3896211086493
495,1437228993274,45.1792429791263
496,1437228994029,44.2317432869968
497,1437228994794,40.5242778957291
498,1437228995547,63.7293502328142
499,1437228996270,63.9717849000387
500,1437228997039,55.4122580342442
501,1437228997694,47.0190339699092
502,1437228998385,57.7121890506536
503,1437228999099,36.7228173081796
504,1437228999840,30.1607317115944
505,1437229000591,27.6208534931361
506,1437229001284,32.5345305809449
507,1437229001974,35.2189483380272
508,1437229002713,38.5927157802653
509,1437229003422,37.2403217919779
510,1437229004155,40.4079997999587
511,1437229004880,37.0623446058195
512,1437229005608,43.9831871974263
513,1437229006317,53.0218082404823
514,1437229007047,38.0729976045104
515,1437229007829,39.051107078081
516,1437229008580,43.5709919623852
517,1437229009303,39.1086445205155
518,1437229010038,58.3239583055097
519,1437229010792,39.0028895402001
520,1437229011524,40.6231494591747
521,1437229012261,38.9506872880253
522,1437229012987,46.9198121287657
523,1437229013722,39.4228601523494
524,1437229014447,36.3029191614248
525,1437229015194,39.723969588281
526,1437229015922,34.8489788433809
527,1437229016662,35.531232855136
528,1437229017399,39.1356418153849
529,1437229018138,40.9321743397287
530,1437229018883,44.4056175812158
531,1437229019537,48.3785118536085
532,1437229020272,51.7531271465468
533,1437229021004,39.9619184304569
534,1437229021868,41.7067384880022
535,1437229022546,57.6708235426967
536,1437229023251,36.9006220442336
537,1437229023957,44.1037468290613
538,1437229024645,41.2831434038404
539,1437229025394,34.1183639071952
540,1437229026103,48.9959964735526
541,1437229026779,35.8456597281648
542,1437229027535,36.5691024253705
543,1437229028265,35.5476324693152
544,1437229029017,41.8617746438432
545,1437229029748,45.1584637823897
546,1437229030390,39.2914969935041
547,1437229031036,41.8480851973776
548,1437229031666,32.1973413193235
549,1437229032394,38.8980461980694
550,1437229033074,31.9793310761523
551,1437229033765,38.9765581832275
552,1437229034484,34.497137174854
553,1437229035208,36.5448954956784
554,1437229035912,35.8660458472686
555,1437229036650,37.6638505756746
556,1437229037434,36.9457567943004
557,1437229038177,40.350635658225
558,1437229038858,31.4348670254002
559,1437229039516,34.4579488965861
560,1437229040243,37.4235764488309
561,1437229040992,37.8806500439339
562,1437229041713,37.8310567011756
563,1437229042397,32.7312770079588
564,1437229043015,39.5788524824922
565,1437229043673,33.3706649541054
566,1437229044397,31.1112311892133
567,1437229045114,38.9794622580846
568,1437229045843,37.8218022963004
569,1437229046582,42.1848015013226
570,1437229047262,38.2779013559541
571,1437229048035,38.2129330495522
572,1437229048836,57.7845524726662
573,1437229049563,57.7295370732442
574,1437229050299,58.9413872707495
575,1437229051030,40.2526623523238
