id,attr_time,attr_db
1,1437228625356,39.8571116048494
2,1437228626092,37.4132070347142
3,1437228626860,47.0559529212413
4,1437228627540,24.400161397498
5,1437228628261,35.170671470979
6,1437228629004,58.2219603190645
7,1437228629754,56.6327731862169
8,1437228630429,62.7786954789348
9,1437228631004,30.7153770103181
10,1437228631646,35.8075561033755
11,1437228632323,23.6127382938894
12,1437228633029,24.2711615197377
13,1437228633763,26.7802507486132
14,1437228634399,23.9903631065465
15,1437228635097,31.0281191976742
16,1437228635817,28.0415806527597
17,1437228636543,22.0912807402525
18,1437228637251,23.4570401831761
19,1437228637947,33.4081042432895
20,1437228638573,44.1938194658072
21,1437228639265,67.6115443347535
22,1437228640013,68.0089191794387
23,1437228640740,64.7353767054896
24,1437228641439,23.0639963473218
25,1437228642134,66.8933961227861
26,1437228642816,58.0691215893974
27,1437228643577,29.3071181703979
28,1437228644300,70.1197328604216
29,1437228645048,53.8465195437762
30,1437228645806,60.6468234716931
31,1437228646516,64.6423108192765
32,1437228647192,67.7479996257047
33,1437228647923,42.108733820182
34,1437228648654,63.5647768457955
35,1437228649383,66.6059942914116
36,1437228650139,65.0547124309137
37,1437228650853,63.2780394836446
38,1437228651522,52.2032595925917
39,1437228652201,40.9927859149516
40,1437228652898,56.4596052848497
41,1437228653644,66.7542180437671
42,1437228654379,56.748959632817
43,1437228655186,53.2751997148253
44,1437228655898,41.8070210331189
45,1437228656617,32.4598407548222
46,1437228657354,57.9667685030726
47,1437228658097,63.6021593165847
48,1437228658813,48.6393567979488
49,1437228659552,50.4999323761092
50,1437228660264,68.7670689773343
51,1437228661019,61.3115564423167
52,1437228661725,32.1568628682714
53,1437228662433,54.0013068459493
54,1437228663166,62.0738001237451
55,1437228663898,53.2864247372078
56,1437228664645,34.8137733516445
57,1437228665386,21.503391991869
58,1437228666099,33.4524499523257
59,1437228666833,49.2713180150309
60,1437228667554,41.4552779765616
61,1437228668270,63.5174350015679
62,1437228668986,68.1867023050513
63,1437228669703,63.8570680300729
64,1437228670435,59.0832262649428
65,1437228671123,52.5952815318873
66,1437228671773,37.8984625600145
67,1437228672503,63.1538764786682
68,1437228673227,25.6925723194785
69,1437228673951,43.5854740578906
70,1437228674704,32.8407253991766
71,1437228675399,61.3468183562877
72,1437228676144,64.7967799986955
73,1437228676855,64.1137620952641
74,1437228677599,54.7070782341747
75,1437228678298,54.1302767459374
76,1437228678979,42.8958842510448
77,1437228679713,57.379280428193
78,1437228680450,64.9403430782812
79,1437228681174,28.7547152055671
80,1437228681923,31.9700590900749
81,1437228682656,66.8272122645412
82,1437228683337,70.9315035054162
83,1437228684069,58.5781240032225
84,1437228684813,21.8650777811754
85,1437228685531,23.3200236656493
86,1437228686216,34.0366815209714
87,1437228686963,24.4082632341811
88,1437228687705,36.2191231624225
89,1437228688442,22.7664145381256
90,1437228689182,26.9704553845278
91,1437228689912,43.0106924915947
92,1437228690660,56.7215666178935
93,1437228691382,60.3855267063593
94,1437228692104,42.7243279189571
95,1437228692784,39.5383067122198
96,1437228693501,67.2388300899561
97,1437228694224,63.0315839161427
98,1437228694905,67.9099353459515
99,1437228695630,65.1427556154632
100,1437228696454,35.6801865208177
101,1437228697187,57.4138388468028
102,1437228697905,25.4763567030376
103,1437228698651,25.2410074273943
104,1437228699398,69.1117710581029
105,1437228700119,64.6818935298125
106,1437228700858,47.4769337171995
107,1437228701581,45.0655893186536
108,1437228702313,40.4752738889721
109,1437228703022,49.4831694729144
110,1437228703686,34.7585961721386
111,1437228704412,70.1350270928674
112,1437228705146,68.6687798265347
113,1437228705873,45.2964002025849
114,1437228706613,33.37396270088
115,1437228707296,34.505834218957
116,1437228708028,59.5144117782456
117,1437228708722,47.4173765986958
118,1437228709383,62.1018695688877
119,1437228710118,41.485587969601
120,1437228710874,42.5751501057812
121,1437228711578,53.9929226023109
122,1437228712301,39.5179245458725
123,1437228713015,61.0994093235077
124,1437228713694,36.2852598256127
125,1437228714422,32.8487855366887
126,1437228715156,65.8081635089698
127,1437228715880,74.8475698854911
128,1437228716649,69.8509673776865
129,1437228717367,31.7300853629449
130,1437228718110,45.8465685625503
131,1437228718844,71.2263015014398
132,1437228719615,49.2161526350651
133,1437228720349,32.3861037057956
134,1437228721075,30.154867283889
135,1437228721795,29.4671729991629
136,1437228722535,45.5652198472081
137,1437228723261,32.3903666069863
138,1437228723956,38.2902012225152
139,1437228724638,35.8977004513697
140,1437228725367,28.3941928934992
141,1437228726108,30.3901967339753
142,1437228726834,40.1922934967937
143,1437228727495,33.4023846106765
144,1437228728231,36.9842972090585
145,1437228728963,39.5720467065044
146,1437228729725,50.1788673490055
147,1437228730464,30.6476248336405
148,1437228731175,47.0497478652763
149,1437228731788,47.2952176498766
150,1437228732493,34.6406469203732
151,1437228733225,39.0253595210511
152,1437228733951,34.8369636820688
153,1437228734746,43.327565088156
154,1437228735460,34.5767394999288
155,1437228736159,45.0463796508872
156,1437228736940,57.3358474505931
157,1437228737730,36.188106058406
158,1437228738470,41.452309819889
159,1437228739199,48.3382538999267
160,1437228739932,31.328954742069
161,1437228740709,53.0768272241062
162,1437228741469,31.8159694416445
163,1437228742235,32.4604362734595
164,1437228742972,42.9562373732391
165,1437228743703,34.2135333915712
166,1437228744422,39.4762733680484
167,1437228745156,54.9203034700022
168,1437228745891,32.7202909641004
169,1437228746656,36.8910427901814
170,1437228747408,32.0325068205975
171,1437228748029,30.7540951540765
172,1437228748716,34.2531454073605
173,1437228749436,31.3914984519267
174,1437228750168,32.2917971032425
175,1437228750913,33.156802956013
176,1437228751625,32.2255263850392
177,1437228752303,30.9763060845691
178,1437228753023,37.2763521929322
179,1437228753748,66.960045943462
180,1437228754430,66.8168725954068
181,1437228755106,63.9603672597957
182,1437228755834,64.8838923611114
183,1437228756599,64.2016097320164
184,1437228757317,52.3706518982651
185,1437228758048,40.12270042483
186,1437228758807,64.0931111843332
187,1437228759529,71.6602183429814
188,1437228760258,66.6560778920871
189,1437228760992,63.2558145619923
190,1437228761715,41.3718515501124
191,1437228762452,64.5109947791213
192,1437228763202,42.6123417723435
193,1437228763946,37.0162115686897
194,1437228764676,47.3189621473951
195,1437228765347,34.7611926629313
196,1437228766069,35.5825460481176
197,1437228766808,73.9381873597937
198,1437228767514,59.821049077471
199,1437228768174,35.527727824981
200,1437228768762,65.1181365872564
201,1437228769430,66.7175847993381
202,1437228770172,69.9175502153539
203,1437228770918,36.5989379654657
204,1437228771674,35.4178055839304
205,1437228772326,31.9769450201938
206,1437228773064,38.5135261362497
207,1437228773783,67.3562205668674
208,1437228774510,70.0968881924102
209,1437228775155,39.1500180578233
210,1437228775894,44.5769943791498
211,1437228776664,71.9123600226284
212,1437228777345,73.1542170656485
213,1437228778765,47.9974678875574
214,1437228779501,53.5258071808129
215,1437228780242,37.3910660719496
216,1437228780993,42.6054469445015
217,1437228781736,41.1761391808433
218,1437228782466,35.2802239260853
219,1437228783192,64.8373838803468
220,1437228783933,32.8582067777867
221,1437228784663,35.0260054706112
222,1437228785345,30.1986405502701
223,1437228786009,72.4031653640207
224,1437228786700,54.8362061577957
225,1437228787354,61.5989302220403
226,1437228788101,57.6147204373417
227,1437228788833,34.8480472505492
228,1437228789495,40.3619792535958
229,1437228790236,60.0431684433086
230,1437228790963,66.174738916511
231,1437228791701,40.0232050788003
232,1437228792413,37.8680459979456
233,1437228793192,65.8048097547449
234,1437228793865,69.3487967745349
235,1437228794593,71.2391537058106
236,1437228795326,60.6124556502785
237,1437228796697,35.8337527394092
238,1437228797398,64.3117177326187
239,1437228798046,63.161490948437
240,1437228798792,36.5354082278259
241,1437228799539,38.0721859276212
242,1437228800275,71.9048619712106
243,1437228801047,71.3091639727364
244,1437228801811,54.8999442649711
245,1437228802503,31.2314798693217
246,1437228803242,35.6060474957262
247,1437228803954,67.7812462117519
248,1437228804694,65.6544810455235
249,1437228805423,64.3803355957324
250,1437228806061,57.7039751358497
251,1437228806791,62.3524941891981
252,1437228807566,46.9859150399028
253,1437228808297,38.5119757123518
254,1437228809031,46.8036224831097
255,1437228809820,64.810188432491
256,1437228810561,64.2505906136648
257,1437228811289,42.0815868884154
258,1437228812021,44.754867093005
259,1437228812762,47.404369368939
260,1437228813483,66.0297386335133
261,1437228814128,37.2157446033569
262,1437228814862,76.7481890459674
263,1437228815601,71.1863205825018
264,1437228816234,69.2837340418224
265,1437228816959,59.7507411978398
266,1437228817722,38.7603803445387
267,1437228818407,65.0807891456436
268,1437228819058,72.7663392746609
269,1437228819798,33.5493149232785
270,1437228820539,43.5845450162786
271,1437228821268,30.8639646024365
272,1437228821993,68.6624887956081
273,1437228822740,49.5968758424446
274,1437228823472,31.2189487900642
275,1437228824210,40.3649631268364
276,1437228824929,28.6267519957557
277,1437228825666,65.2296096883681
278,1437228826305,70.9905040930009
279,1437228827493,60.7306520064115
280,1437228828158,34.1337084950133
281,1437228828885,37.1617240519337
282,1437228829613,68.2991180569102
283,1437228830291,68.0490450866878
284,1437228830893,62.0228747117942
285,1437228831567,67.8446808560845
286,1437228832346,59.8572819669776
287,1437228833105,34.9416299003553
288,1437228833801,45.7775786945764
289,1437228834454,58.4912553463681
290,1437228835141,57.2293115308609
291,1437228835872,66.6239945900331
292,1437228836566,63.1135350578533
293,1437228837224,59.7196345549386
294,1437228837939,69.6445060932882
295,1437228838696,33.7115538514167
296,1437228839419,59.2305964921886
297,1437228840140,56.5795269264632
298,1437228840891,68.4506675806516
299,1437228841623,47.9969518935987
300,1437228842415,36.5927694197781
301,1437228843147,48.7225948375997
302,1437228844973,47.2694184828502
303,1437228845703,33.1166008396311
304,1437228846343,37.6937137843206
305,1437228847055,69.5302864807658
306,1437228847767,42.4566361784535
307,1437228848505,46.2506601447401
308,1437228849262,39.178388707272
309,1437228849983,49.2914023649133
310,1437228850680,58.2707332988729
311,1437228851414,44.0192259983084
312,1437228852147,69.0145271843078
313,1437228852870,69.0414679845567
314,1437228853613,62.4049822305154
315,1437228854360,73.1309013341108
316,1437228855017,41.2717976871627
317,1437228855744,30.2071451427972
318,1437228856424,28.8266379885827
319,1437228857085,49.9564030992193
320,1437228857818,54.5360450138681
321,1437228858558,74.5876747936555
322,1437228859169,69.7308593137327
323,1437228859868,46.2237580868032
324,1437228860604,29.8167420498693
325,1437228861337,42.7825089111338
326,1437228862082,33.3870663651047
327,1437228862818,70.6332970115322
328,1437228863584,35.6303788608475
329,1437228864312,35.565515247824
330,1437228865029,36.1535750993718
331,1437228865753,31.1608521428784
332,1437228866483,38.5821327398091
333,1437228867126,38.295426113148
334,1437228867853,43.6949999819679
335,1437228868614,31.8532179793024
336,1437228869317,64.9231428270382
337,1437228870055,45.2266402770465
338,1437228870822,43.9419855739744
339,1437228871550,52.5163276235174
340,1437228872314,67.7423030084861
341,1437228873049,67.4584518805693
342,1437228873781,72.5261531910935
343,1437228874471,37.5631731259892
344,1437228875058,42.6863659986235
345,1437228875730,71.0613569653369
346,1437228876453,72.0646268664963
347,1437228877207,52.7861551024583
348,1437228877903,43.9522823431669
349,1437228878656,68.6284865368785
350,1437228879363,54.4168081592382
351,1437228880080,39.3929786186553
352,1437228880839,30.9348196073761
353,1437228881498,35.2485885008261
354,1437228882241,26.0307159853545
355,1437228882969,30.5334114742735
356,1437228883707,38.5596253713622
357,1437228884426,63.643965105148
358,1437228885151,29.7209567620634
359,1437228885891,71.6646533640393
360,1437228886612,34.0663810232125
361,1437228887313,27.6356756935172
362,1437228888000,62.2188254608053
363,1437228888751,30.0735999549839
364,1437228889455,29.2807983608897
365,1437228890148,73.4952070082903
366,1437228890847,60.4577179585671
367,1437228891519,55.6588497966866
368,1437228892225,29.1972026153615
369,1437228892962,65.7120897339415
370,1437228893721,47.2439715742268
371,1437228894432,43.5346642776538
372,1437228895111,31.1916917007116
373,1437228895854,46.6997643826468
374,1437228896603,48.9098511389123
375,1437228897336,49.8357958998155
376,1437228898037,38.9727073310117
377,1437228898790,35.561063843044
378,1437228899525,30.6855546057117
379,1437228900256,41.7360474220881
380,1437228901006,24.0657489255879
381,1437228901805,23.4533675459907
382,1437228902463,59.03197464924
383,1437228903221,69.878308132228
384,1437228903923,62.9978623865228
385,1437228904591,32.0231921126416
386,1437228905332,61.626157960331
387,1437228906047,64.2003357337373
388,1437228906842,32.6909309969584
389,1437228907556,52.9217451361679
390,1437228908238,67.0578928974101
391,1437228908996,33.091839933958
392,1437228909728,66.1761014026999
393,1437228910450,34.470525266357
394,1437228911198,71.2808040022895
395,1437228911964,64.5858468916752
396,1437228912691,35.5956793270286
397,1437228913455,63.229906202475
398,1437228914181,50.1897232017312
399,1437228914849,38.1154291875695
400,1437228915488,42.3364372191468
401,1437228916183,37.0857459088921
402,1437228916999,29.080229075506
403,1437228917724,42.1729688188331
404,1437228918432,39.3003435782118
405,1437228919075,37.9292767207716
406,1437228919804,24.3433293604759
407,1437228920532,48.3639952280339
408,1437228921257,43.8350906843059
409,1437228922045,40.5669989788792
410,1437228922823,33.1015625808784
411,1437228923559,31.1647781905809
412,1437228924298,28.1663101252344
413,1437228925036,25.9229677479582
414,1437228925773,32.6134804510228
415,1437228926510,26.8383876654503
416,1437228927237,64.3886260739016
417,1437228927970,45.3552945344884
418,1437228928645,37.1662046843378
419,1437228929321,38.4170326899519
420,1437228930048,25.8218599715386
421,1437228930772,38.5113676124725
422,1437228931513,25.3665530300731
423,1437228932238,26.4675789114161
424,1437228932928,27.6581687605204
425,1437228933646,28.8463760576079
426,1437228934372,22.5065718507506
427,1437228935073,21.8986151789645
428,1437228935734,66.1324737190678
429,1437228936509,47.1978639976145
430,1437228937229,66.4305859328252
431,1437228937952,57.5314011607706
432,1437228938647,40.5281849425515
433,1437228939294,62.6891978018319
434,1437228940004,71.1047096750093
435,1437228940759,67.4159751003722
436,1437228941549,74.627748794086
437,1437228942279,64.8837579908156
438,1437228943011,46.2230271504204
439,1437228943745,60.6739040851046
440,1437228944482,63.5932429921852
441,1437228945223,40.6542660462218
442,1437228945948,69.6627810353352
443,1437228946718,40.3621752133244
444,1437228947454,65.8967757364943
445,1437228948189,67.1260996645745
446,1437228948885,31.6207508665237
447,1437228949571,34.6236625721697
448,1437228950287,71.5112950821176
449,1437228951028,62.156408592759
450,1437228951790,72.6278433539184
451,1437228952452,59.2136289833403
452,1437228953193,71.7887393965532
453,1437228953920,70.3993598399298
454,1437228954703,61.8474750706692
455,1437228955476,31.6360597796949
456,1437228956153,38.2209769314195
457,1437228956872,67.4129285680777
458,1437228957605,51.1170183185248
459,1437228958333,58.356765970105
460,1437228959075,46.4476381065195
461,1437228959750,63.6387857378056
462,1437228960490,31.4705772810926
463,1437228961158,66.6493668373564
464,1437228961831,65.7762682448287
465,1437228962540,63.3075169930539
466,1437228963238,54.6139120650624
467,1437228963977,39.1538844601026
468,1437228964706,62.9725768893508
469,1437228965437,65.9450264561387
470,1437228966172,71.554740171792
471,1437228966905,70.223656910013
472,1437228967638,60.1994315527361
473,1437228968373,61.7825242797832
474,1437228969089,36.4571745018412
475,1437228969748,70.1540930276395
476,1437228970410,70.2979463762424
477,1437228971128,62.4764990693956
478,1437228971893,66.4926804047646
479,1437228972653,63.1822594439521
480,1437228973424,32.2319544937272
481,1437228974137,43.0170512054655
482,1437228974815,67.9450442715304
483,1437228975515,50.0920317148435
484,1437228976158,64.8758553864356
485,1437228976897,33.200840380412
486,1437228977622,60.1920559069092
487,1437228978350,27.4139926572235
488,1437228979076,71.297819273425
489,1437228979775,65.1924485562967
490,1437228980494,61.6086742081298
491,1437228981209,36.3541751024418
492,1437228982991,69.1601330518876
493,1437228983658,55.3783547200359
494,1437228984387,59.1679615860979
495,1437228985120,40.0085044363661
496,1437228985867,42.1790547349171
497,1437228986611,40.5547080789256
498,1437228987336,31.5069985149055
499,1437228988077,38.1858997804058
500,1437228988808,71.6099953368598
501,1437228989558,66.5521837809941
502,1437228990215,33.4884145228061
503,1437228990911,29.9224460313579
504,1437228991600,68.9224541250299
505,1437228992336,49.3048829408497
506,1437228993029,57.254522304277
507,1437228993686,56.6088535277178
508,1437228994415,59.9593266848902
509,1437228995144,67.9861827437405
510,1437228995874,65.5669555135655
511,1437228996608,60.3616318848774
512,1437228997329,55.2868872244284
513,1437228998060,60.8456817302952
514,1437228998822,32.0721136229209
515,1437228999569,28.8056354778488
516,1437229000293,34.5306586148973
517,1437229000973,34.4829494128806
518,1437229001722,34.3002731994312
519,1437229002441,33.6563006646112
520,1437229003173,36.5809217002447
521,1437229004887,35.3747790251154
522,1437229005625,44.9608456857245
523,1437229006359,39.2907270278533
524,1437229007115,59.6694189528149
525,1437229007831,35.4108388064557
526,1437229008573,42.8604211980139
527,1437229009288,39.0781307805022
528,1437229010025,46.7272087425414
529,1437229010719,35.5277286582305
530,1437229011392,37.3027223788401
531,1437229012095,37.5085896136373
532,1437229012866,52.2793400048532
533,1437229013623,38.8755899735774
534,1437229014345,35.6130413048708
535,1437229015075,36.3176419735391
536,1437229015959,34.8947872933447
537,1437229016606,33.1198135980664
538,1437229017336,34.1407889061964
539,1437229018062,45.0058607019866
540,1437229018776,42.9931769675979
541,1437229019523,53.1836654038528
542,1437229020235,54.6128134559563
543,1437229020993,40.9021726230015
544,1437229021769,38.8774560335615
545,1437229022518,67.483752608545
546,1437229023303,33.0531203441566
547,1437229024023,55.4159551037697
548,1437229024755,45.4335797311101
549,1437229025506,34.6281664875424
550,1437229026265,51.6122078504318
551,1437229026996,30.3455022795157
552,1437229027739,30.7333435012754
553,1437229028466,41.1237229040919
554,1437229029210,36.3452624577323
555,1437229029929,42.6859660995366
556,1437229030701,43.2285372401452
557,1437229031349,37.9087640132994
558,1437229032077,38.935668530591
559,1437229032802,60.8250781879692
560,1437229033536,34.8441010139141
561,1437229034261,31.9906050726242
562,1437229034997,35.1743771452161
563,1437229035736,42.9822537321877
564,1437229036467,39.0027405039822
565,1437229037163,33.6483496196409
566,1437229037816,34.1920687306936
567,1437229038545,32.4049002905036
568,1437229039306,34.2477783730914
569,1437229040048,33.9510201146556
570,1437229040759,33.7211836594021
571,1437229041470,34.545826075471
572,1437229042194,32.9809583958992
573,1437229043965,31.1092479623984
574,1437229044627,31.5810531428499
575,1437229045394,30.9195312907972
