id,attr_time,attr_db
1,1437228625538,39.5514530982608
2,1437228626276,30.2820908854893
3,1437228627035,40.520851984104
4,1437228627756,33.3926195805074
5,1437228628491,50.2140820241935
6,1437228629270,54.7320862012416
7,1437228630002,54.613534200121
8,1437228630735,41.1239023801884
9,1437228631449,34.5543233449637
10,1437228632122,33.9740918462831
11,1437228632858,47.2401935270273
12,1437228633592,31.9824684921624
13,1437228634333,32.8371989785863
14,1437228635127,32.1109290567286
15,1437228635783,46.1716996221153
16,1437228636539,37.1244233971872
17,1437228637276,35.8337417788306
18,1437228638028,38.7900857549662
19,1437228639828,69.8017888803544
20,1437228640578,66.4515410992731
21,1437228641358,61.7609382014681
22,1437228642097,61.3495638166769
23,1437228642832,66.537991832303
24,1437228643567,40.9958938815561
25,1437228644303,36.5958559107546
26,1437228645071,69.4603442024692
27,1437228645721,53.8260453984388
28,1437228646433,62.7287321828358
29,1437228648209,38.2595242158317
30,1437228648886,58.5714458734071
31,1437228649584,65.7920916552349
32,1437228650321,57.8986827962244
33,1437228651035,58.6240083008334
34,1437228651832,58.7942063569204
35,1437228652567,37.3320038823381
36,1437228653215,56.1388530522446
37,1437228653969,62.3877907889958
38,1437228654733,53.2305376518626
39,1437228655420,49.8168449784972
40,1437228656074,54.1934233981057
41,1437228656917,39.4799839905159
42,1437228657640,67.5398684985555
43,1437228658369,52.5183016750555
44,1437228659179,53.9771256513287
45,1437228659908,49.9472987048371
46,1437228660648,59.5321695602665
47,1437228661407,58.0213988952103
48,1437228662185,67.2884383239392
49,1437228662920,46.668461190551
50,1437228663653,67.2843880508007
51,1437228664368,27.4688704264878
52,1437228665102,35.6545888843588
53,1437228665821,45.4390112932054
54,1437228666431,37.5627070621705
55,1437228667075,59.7924773434927
56,1437228667819,60.7549623485321
57,1437228668552,59.5944593349831
58,1437228669285,53.3163918362582
59,1437228670088,56.9271959526063
60,1437228670826,60.4675392367454
61,1437228671580,43.2350306463663
62,1437228672186,51.0070024031583
63,1437228672851,60.54632181529
64,1437228673581,34.4580023689944
65,1437228674341,40.5886784832992
66,1437228675086,32.3500097383182
67,1437228675806,47.9050288347265
68,1437228676515,57.3402589211889
69,1437228677174,61.8374689765106
70,1437228677936,54.2890752323887
71,1437228678603,67.2024040098982
72,1437228679346,47.447840510666
73,1437228680086,52.9365019440105
74,1437228680796,59.8535694758508
75,1437228681484,31.1023665606361
76,1437228682188,38.8091789609941
77,1437228682868,63.9884578908991
78,1437228683486,64.3649290017253
79,1437228684178,58.1893426856188
80,1437228684919,29.8355259928115
81,1437228685662,37.9174820294169
82,1437228686358,42.5645231972986
83,1437228686971,58.228031451674
84,1437228687665,44.4130814963523
85,1437228688406,35.2178925567144
86,1437228689145,29.5077990791272
87,1437228689862,41.5677391485985
88,1437228690517,33.2529817197269
89,1437228691224,44.0735710309267
90,1437228691946,53.7114561338014
91,1437228692610,50.0379013089739
92,1437228693352,66.2707131198831
93,1437228694100,54.2942553536058
94,1437228694847,48.2371378155145
95,1437228695638,69.4645684113393
96,1437228696359,66.982603084985
97,1437228697133,69.417269452547
98,1437228697868,54.4063084408787
99,1437228698589,31.2777624130085
100,1437228699323,36.0555080360363
101,1437228700086,44.3710448770009
102,1437228700733,57.8779851030631
103,1437228701440,35.7896988909568
104,1437228702111,45.9678514924503
105,1437228702856,41.2288422560722
106,1437228703604,44.7309975188561
107,1437228704326,40.5931277065722
108,1437228705064,52.8403375797632
109,1437228705821,49.6819345467168
110,1437228706613,40.9060836305774
111,1437228707377,63.5527953541239
112,1437228708027,46.6415611131533
113,1437228708777,59.9301662519578
114,1437228709509,54.1602911258697
115,1437228710252,57.9533118664984
116,1437228711049,67.517800396699
117,1437228711833,55.4667325950714
118,1437228712507,40.254237751903
119,1437228713274,52.9242205804069
120,1437228713843,43.9500061327002
121,1437228714426,36.9641561148991
122,1437228714995,57.4011716850084
123,1437228715648,64.7852847719124
124,1437228716360,60.136104535271
125,1437228717100,64.3389950854529
126,1437228717770,30.936749468412
127,1437228718392,45.5760222283381
128,1437228718967,70.5303225952796
129,1437228719541,70.8431192129815
130,1437228720119,56.6268882635061
131,1437228720683,30.58654105703
132,1437228721910,32.626055685038
133,1437228722574,34.5737149762061
134,1437228723304,42.3365574604861
135,1437228724042,35.9220239719366
136,1437228724821,35.1990581707728
137,1437228725531,42.6410700362733
138,1437228726121,46.1489780894628
139,1437228726666,34.4243489401431
140,1437228727214,36.8371359779917
141,1437228727803,34.3046175981784
142,1437228728506,39.7893489038916
143,1437228729216,49.1781278950381
144,1437228729811,35.3932059010113
145,1437228730382,51.9487143557846
146,1437228730964,45.1843486734373
147,1437228731520,44.2347920757831
148,1437228733104,52.3917250245871
149,1437228733846,39.8014446682799
150,1437228734577,41.1096572208407
151,1437228735372,40.7202234478825
152,1437228736102,41.6801870589889
153,1437228736655,36.4651794209973
154,1437228737214,49.5453530417818
155,1437228737780,35.5925942237987
156,1437228738398,41.8824548539168
157,1437228739084,39.0054607338521
158,1437228739866,43.5753833297899
159,1437228740588,46.7798193958387
160,1437228741123,32.1603890917155
161,1437228741698,31.4469565471979
162,1437228742247,44.7297323493519
163,1437228742815,47.4735827299891
164,1437228743396,41.1128051790092
165,1437228745227,38.2784674629941
166,1437228745964,39.9896894122151
167,1437228746702,34.8497918423958
168,1437228747444,36.2406624552535
169,1437228748117,35.3046633260758
170,1437228748815,42.57938671241
171,1437228749545,37.2754580214834
172,1437228750254,41.6288784458251
173,1437228751033,34.2716452248002
174,1437228751728,35.5720106902443
175,1437228752308,42.084434990533
176,1437228752963,40.173421649416
177,1437228753665,64.9997848895101
178,1437228754405,55.2888586332726
179,1437228755112,60.4799476303241
180,1437228755735,52.5872352663056
181,1437228756400,57.6901732378499
182,1437228757133,49.5087592945325
183,1437228757821,67.7237408114907
184,1437228758483,45.991291845311
185,1437228759230,70.7102861261741
186,1437228759991,59.2854535063551
187,1437228760711,40.8000565951925
188,1437228761379,55.2613013235756
189,1437228762070,44.4591525769273
190,1437228762821,58.016021936491
191,1437228763560,43.7440805435523
192,1437228764291,38.1081145400193
193,1437228765040,46.1645951296576
194,1437228765770,38.1681681572963
195,1437228766598,41.4781454198412
196,1437228767328,60.0033229240748
197,1437228767956,56.0353198058976
198,1437228768620,38.8030368936962
199,1437228769377,68.0867035038146
200,1437228770110,65.9379381168511
201,1437228770840,38.1408028442188
202,1437228771535,39.1567085610492
203,1437228772282,70.0323649494259
204,1437228773101,36.9493192436161
205,1437228773845,55.490485280112
206,1437228774590,58.3195881674419
207,1437228775335,72.5333492637495
208,1437228776131,65.1062366450965
209,1437228776861,38.2500657325879
210,1437228777589,50.062835998153
211,1437228778321,73.8406453022728
212,1437228779014,56.8832712131795
213,1437228779697,67.9328211185814
214,1437228780431,38.6654795193441
215,1437228781296,41.957252819117
216,1437228782034,42.650908637118
217,1437228782744,37.4269366663608
218,1437228783467,58.5543486760146
219,1437228784197,42.1433479436187
220,1437228784934,39.5890181099767
221,1437228785697,39.1443973498199
222,1437228786461,62.2433021062249
223,1437228787147,41.1255100091509
224,1437228787875,67.0913916506479
225,1437228788584,42.2442584705311
226,1437228789238,52.857787519074
227,1437228790033,61.0924883955897
228,1437228790768,53.2807902611877
229,1437228791536,60.6131009923054
230,1437228792230,37.087077434441
231,1437228792803,52.4288928602779
232,1437228793466,64.9580739074385
233,1437228794193,65.1196978629487
234,1437228794935,64.9574797011613
235,1437228795660,54.4396934240329
236,1437228796442,68.6945723045924
237,1437228797207,37.9637925593951
238,1437228797953,69.6871156430975
239,1437228798676,62.0335228388331
240,1437228799334,39.8145601859113
241,1437228799977,44.6396115173386
242,1437228800680,58.3820006736816
243,1437228801418,62.775037856435
244,1437228802141,41.0983112168935
245,1437228802857,40.765859887808
246,1437228803489,40.3002902993974
247,1437228804210,46.6635747728026
248,1437228804950,58.5871060857982
249,1437228805715,70.1941780392345
250,1437228806457,58.0269816787068
251,1437228807189,57.3702685627248
252,1437228807929,51.2280605364144
253,1437228808665,34.9368130227652
254,1437228809338,39.1897078522282
255,1437228810117,65.9291062308991
256,1437228810855,54.1973735349675
257,1437228811614,41.689230774442
258,1437228812374,46.7101432031315
259,1437228813136,40.8119975906042
260,1437228813838,60.0234815944275
261,1437228814552,37.8528207953123
262,1437228815285,43.8115327294658
263,1437228815989,60.5325270377015
264,1437228816628,50.7675225003706
265,1437228817355,43.2522827710724
266,1437228819055,65.7630793199477
267,1437228819700,57.3935317976312
268,1437228820445,38.4947328824347
269,1437228821201,40.6221234713675
270,1437228822019,47.0084636935031
271,1437228822743,58.2818429881611
272,1437228823479,41.2977340634571
273,1437228824237,44.4055691085734
274,1437228824994,33.5617477522917
275,1437228825665,45.8593871917348
276,1437228826508,45.9196104451441
277,1437228827284,58.4239194500964
278,1437228827951,57.1056770369159
279,1437228828685,36.8104124495351
280,1437228829442,70.4991507065209
281,1437228830132,63.5280566634604
282,1437228830895,64.7565972063399
283,1437228831616,55.568727072086
284,1437228833120,37.3354448033024
285,1437228833826,42.1647811144493
286,1437228834555,70.1500260505158
287,1437228835296,59.4039292438863
288,1437228836017,44.1994338868012
289,1437228836662,71.0389096854538
290,1437228837293,60.0632713505469
291,1437228837975,70.033868481898
292,1437228838692,61.5291630550415
293,1437228839435,51.1116791823002
294,1437228840167,66.2007869113781
295,1437228840806,59.1227139638876
296,1437228841509,56.6467459128646
297,1437228842354,42.5370314935357
298,1437228843105,43.9710135061691
299,1437228843754,55.8690978689901
300,1437228844359,63.9325157835974
301,1437228845011,46.3600380404457
302,1437228845684,34.934187162043
303,1437228846419,36.3393551077984
304,1437228847237,69.0200407068654
305,1437228847970,59.7649153904104
306,1437228848598,48.2384465122699
307,1437228849197,62.1623476501811
308,1437228849933,45.3031498119936
309,1437228850645,68.9918836044176
310,1437228851383,64.5009228921764
311,1437228852141,60.9462989553886
312,1437228852896,63.3266097684897
313,1437228853632,62.6128043303223
314,1437228854419,61.2115526812152
315,1437228855678,45.4692467108967
316,1437228856425,42.1073892826827
317,1437228857166,48.3488131178719
318,1437228857899,49.9092215915465
319,1437228858654,56.5004690663299
320,1437228859389,51.047212602881
321,1437228860141,46.3075020044236
322,1437228860815,40.0830943927202
323,1437228861530,47.6121086504121
324,1437228862371,37.288314473101
325,1437228863112,69.3751560507204
326,1437228863868,41.3118340691999
327,1437228864604,36.1485310449461
328,1437228865302,36.8423806245914
329,1437228865884,32.120687018608
330,1437228866600,32.6752598493619
331,1437228867412,38.6418732159831
332,1437228868417,48.9733099289664
333,1437228868985,35.7311786459645
334,1437228869557,37.1958947697847
335,1437228870161,41.0708990032099
336,1437228870794,49.8268134944789
337,1437228871517,39.0234452091568
338,1437228872249,62.0279998417704
339,1437228873106,54.6667407893744
340,1437228873702,63.9272681726695
341,1437228874258,35.7526938789367
342,1437228874844,41.3140485787298
343,1437228875368,42.0806292552952
344,1437228876410,65.489611750463
345,1437228877038,47.1376967597015
346,1437228877769,39.6045809522643
347,1437228878515,38.4140858907274
348,1437228879241,52.813710458109
349,1437228879910,42.7814992200699
350,1437228880476,32.9436611877335
351,1437228881038,33.6043906207332
352,1437228881609,44.4172820012938
353,1437228882193,36.9093441342512
354,1437228882858,41.7586574691141
355,1437228883578,34.999307127411
356,1437228884369,42.0974158819767
357,1437228884951,53.6695595267605
358,1437228885503,37.2500516413454
359,1437228886056,38.6566744554464
360,1437228886622,54.5935263957739
361,1437228887875,48.5360472466629
362,1437228888620,44.6754257152476
363,1437228889356,28.5765882270261
364,1437228890089,33.691321197314
365,1437228890813,62.3922963528423
366,1437228891362,58.1854816313002
367,1437228891938,58.0784718803457
368,1437228892518,40.8605079860004
369,1437228893129,33.5976398541314
370,1437228893857,45.3100398667944
371,1437228894577,47.8224303605801
372,1437228895213,42.8873416666626
373,1437228895846,43.44295362858
374,1437228896440,51.6241010870724
375,1437228896991,53.1007740316974
376,1437228897571,33.816888594802
377,1437228898113,41.2615077476698
378,1437228898665,41.4204187670292
379,1437228899864,43.8750540322734
380,1437228900496,45.2911758896646
381,1437228901181,37.0177456714204
382,1437228901842,38.7566108278321
383,1437228902662,59.5674344618081
384,1437228903403,48.3317431151394
385,1437228904143,57.6457890655543
386,1437228904853,36.9112457468
387,1437228905502,38.3046924348857
388,1437228906214,56.2425085147919
389,1437228907033,37.0784204332831
390,1437228907742,48.1156835457457
391,1437228908475,66.6388977213558
392,1437228909225,35.9763949166976
393,1437228909960,60.4920650141631
394,1437228910675,30.9056276032517
395,1437228911361,59.3199104042383
396,1437228911944,59.0781350005559
397,1437228912628,32.7333007435085
398,1437228913373,65.4398984461672
399,1437228914106,56.960664648238
400,1437228914937,55.4423546385307
401,1437228915528,31.3561511678376
402,1437228916265,44.1330195042185
403,1437228917074,39.3488570980175
404,1437228917804,49.3654582242749
405,1437228918549,44.3347436435462
406,1437228919264,48.5261564036893
407,1437228920010,31.5554587555243
408,1437228920746,36.1296847405864
409,1437228921476,38.7611746350115
410,1437228922149,49.0764655369977
411,1437228922839,32.3955914855345
412,1437228923569,43.3995463633827
413,1437228924305,44.8115513854221
414,1437228925032,46.3120284783567
415,1437228925584,37.6812708577235
416,1437228926199,39.6983509683162
417,1437228926933,34.9263101695489
418,1437228927754,30.366982444713
419,1437228928503,38.1345977816865
420,1437228929235,38.0970412941469
421,1437228930045,34.8055263194601
422,1437228930775,40.8675319899693
423,1437228931500,30.4026673320544
424,1437228932228,35.7057533388859
425,1437228932865,34.5252070606269
426,1437228933545,42.519942555577
427,1437228934269,43.952771560728
428,1437228935056,29.7658695165998
429,1437228935730,40.5029966674176
430,1437228936466,59.4822808992731
431,1437228937247,45.1022688234999
432,1437228937963,38.41686988118
433,1437228938643,60.214295334978
434,1437228939385,55.9294272473016
435,1437228940079,65.8629181517272
436,1437228940662,39.4606882154476
437,1437228941288,66.7798773483991
438,1437228942048,56.9522616425603
439,1437228942720,59.4639164839035
440,1437228943460,53.4842942703039
441,1437228944189,62.1205002105741
442,1437228944943,58.3826411450764
443,1437228945665,44.7333055738078
444,1437228946351,51.8691450313104
445,1437228947068,41.0346540770662
446,1437228947892,57.4780322343198
447,1437228948624,47.0596758414175
448,1437228949376,32.3915708630853
449,1437228950119,32.0753220515357
450,1437228950869,66.4874348364359
451,1437228951607,65.1857509933376
452,1437228952380,57.1740557847511
453,1437228953026,69.5071694194976
454,1437228953733,58.5255643000902
455,1437228954470,49.8392712048314
456,1437228955198,56.9724611289006
457,1437228955945,37.9765005226641
458,1437228956599,33.2640935507399
459,1437228957385,68.2671295879846
460,1437228958126,34.7776690561273
461,1437228958872,65.045230920471
462,1437228959534,59.9755387997707
463,1437228960288,49.2001636250316
464,1437228961018,50.191487677655
465,1437228961766,59.7915770829712
466,1437228962529,45.7336505103379
467,1437228963253,49.6985220551336
468,1437228963940,47.7405885364572
469,1437228964667,42.1357079306197
470,1437228965388,61.4436436958094
471,1437228966152,63.4430031435435
472,1437228966891,65.7728714911939
473,1437228967553,54.0922846455009
474,1437228968296,58.715087119682
475,1437228969024,38.3432331324338
476,1437228969753,41.9717106282346
477,1437228970576,70.6243879430691
478,1437228971307,66.0211739910647
479,1437228972054,58.0848203292468
480,1437228972792,54.5086012014596
481,1437228973480,37.724693904841
482,1437228974125,47.8015582051817
483,1437228974894,66.9497110706065
484,1437228975591,55.2839597677069
485,1437228976207,58.9148690188435
486,1437228976952,53.4428821218354
487,1437228977674,39.5940032339471
488,1437228978407,38.2221953908462
489,1437228979002,41.6868951976214
490,1437228979713,60.7664271609201
491,1437228980436,64.3838892303908
492,1437228981185,33.3292820447477
493,1437228981920,51.6297525645105
494,1437228982660,62.6547225281512
495,1437228983340,66.8983479706826
496,1437228984001,60.111025571853
497,1437228984739,47.6522623465339
498,1437228985489,47.1322556105439
499,1437228986225,52.4246753037793
500,1437228987013,40.7577971532783
501,1437228987755,31.817183059132
502,1437228988451,37.0256474534385
503,1437228989092,69.0791905037114
504,1437228989864,59.3859681491207
505,1437228990602,33.2123422868098
506,1437228991333,35.6308509257318
507,1437228992110,50.7870539011894
508,1437228992854,67.1239364654206
509,1437228993587,47.3155464216424
510,1437228994235,61.3288578150036
511,1437228994990,45.7679510672622
512,1437228995743,55.3092513994589
513,1437228996474,46.1872911113981
514,1437228997138,39.842863991605
515,1437228997849,61.8044827395742
516,1437228998504,56.0179321166811
517,1437228999243,35.485633327582
518,1437228999988,33.7437143455901
519,1437229000715,34.5469012265278
520,1437229001440,29.7889959303144
521,1437229002203,43.5955006649667
522,1437229002937,39.2695975713861
523,1437229003667,37.2537351230262
524,1437229004393,39.7099696706806
525,1437229005139,41.5721401303967
526,1437229005903,44.5758546633315
527,1437229006643,54.3837766704747
528,1437229007408,45.55119726468
529,1437229008206,38.1889444615283
530,1437229008937,42.8683206332703
531,1437229009673,40.9276774895517
532,1437229010391,59.6727713503932
533,1437229011094,41.8403944583611
534,1437229011849,40.7218739074245
535,1437229012664,43.1230243002495
536,1437229013396,49.9595874698471
537,1437229014141,40.8191157128283
538,1437229014811,38.512057340127
539,1437229015537,41.5919075988497
540,1437229016269,33.8940323414153
541,1437229017060,36.6295951084619
542,1437229017758,35.0049054202199
543,1437229018443,41.9618670679956
544,1437229019171,42.700173315535
545,1437229019908,47.566399249798
546,1437229020637,46.6758189770535
547,1437229021399,43.4017490073207
548,1437229023266,34.6585258984418
549,1437229023892,41.3571094801116
550,1437229024511,42.1821344589416
551,1437229025158,47.0188088295231
552,1437229025842,34.8941152326283
553,1437229026472,46.8042553702541
554,1437229027153,40.7863203372757
555,1437229027822,38.5986496101986
556,1437229028565,38.3541198921737
557,1437229029301,39.0604323937476
558,1437229030037,47.1189809033463
559,1437229030770,38.4608660407169
560,1437229031509,42.0437895734253
561,1437229032247,42.6420264339568
562,1437229032974,68.1217922307361
563,1437229033725,40.4839394462982
564,1437229034490,39.1640588955748
565,1437229035175,44.0498655540964
566,1437229036024,41.4258058036328
567,1437229036667,38.8987760963647
568,1437229037342,36.6710667472199
569,1437229038064,40.7342676233009
570,1437229038799,41.0899522485941
571,1437229039523,37.6443505951891
572,1437229041447,36.8816556811104
573,1437229042166,38.1634623844587
574,1437229042918,34.3770177718456
575,1437229043647,36.6459487063605
