id,attr_time,attr_x,attr_y,attr_z
1,1435995489024,-7.196,-37.754,22.068
2,1435995489045,-7.196,-37.754,22.068
3,1435995489062,-7.196,-37.754,22.068
4,1435995489084,-7.196,-37.754,22.068
5,1435995489105,-7.196,-37.754,22.068
6,1435995489121,-7.196,-37.754,22.068
7,1435995489141,-7.196,-37.754,21.763
8,1435995489166,-7.196,-37.754,21.763
9,1435995489181,-6.877,-37.754,21.763
10,1435995489206,-6.877,-37.754,21.763
11,1435995489223,-6.877,-37.754,21.763
12,1435995489244,-6.877,-37.754,21.763
13,1435995489262,-6.877,-37.754,21.763
14,1435995489285,-6.877,-37.754,21.763
15,1435995489311,-6.877,-37.754,21.763
16,1435995489388,-6.877,-37.754,21.763
17,1435995489389,-6.877,-37.754,22.082
18,1435995489390,-6.877,-37.754,22.082
19,1435995489391,-6.877,-37.754,22.082
20,1435995489402,-6.877,-37.754,22.082
21,1435995489420,-6.877,-37.754,22.082
22,1435995489445,-6.877,-37.754,22.082
23,1435995489464,-6.877,-37.754,22.082
24,1435995489481,-6.877,-37.754,22.082
25,1435995489502,-6.877,-37.754,22.082
26,1435995489526,-6.877,-37.754,22.082
27,1435995489545,-6.877,-37.754,22.082
28,1435995489564,-6.877,-37.754,22.082
29,1435995489586,-6.877,-37.754,22.082
30,1435995489601,-6.877,-37.754,22.082
31,1435995489623,-6.877,-37.754,22.082
32,1435995489646,-6.877,-37.754,22.082
33,1435995489661,-6.877,-37.754,22.082
34,1435995489681,-6.877,-37.754,22.082
35,1435995489704,-6.877,-37.754,22.082
36,1435995489725,-6.877,-37.754,22.082
37,1435995489744,-6.877,-37.754,22.082
38,1435995489769,-6.877,-37.754,22.082
39,1435995489784,-6.877,-37.754,22.082
40,1435995489804,-6.877,-37.754,22.082
41,1435995489827,-6.877,-37.754,22.082
42,1435995489842,-6.877,-37.754,22.082
43,1435995489862,-6.877,-37.754,22.082
44,1435995489885,-6.877,-37.754,22.082
45,1435995489901,-6.877,-37.754,22.082
46,1435995489925,-6.877,-37.754,22.082
47,1435995489950,-6.877,-37.754,22.082
48,1435995489963,-6.877,-37.754,22.082
49,1435995489989,-6.877,-37.754,22.082
50,1435995490048,-6.877,-37.754,22.082
51,1435995490049,-6.877,-37.754,22.082
52,1435995490053,-6.877,-37.754,22.39
53,1435995490069,-6.877,-37.754,22.39
54,1435995490085,-6.877,-37.754,22.39
55,1435995490101,-6.877,-37.754,22.39
56,1435995490123,-6.877,-37.754,22.39
57,1435995490141,-6.877,-37.754,22.39
58,1435995490161,-6.877,-37.754,22.39
59,1435995490183,-6.877,-37.754,22.39
60,1435995490204,-6.877,-37.754,22.39
61,1435995490222,-6.877,-37.754,22.39
62,1435995490251,-6.877,-37.754,22.39
63,1435995490263,-6.877,-37.754,22.39
64,1435995490283,-6.877,-37.754,22.39
65,1435995490307,-6.877,-37.754,22.39
66,1435995490325,-6.877,-37.754,22.39
67,1435995490345,-6.877,-37.754,22.39
68,1435995490367,-7.182,-37.754,22.39
69,1435995490384,-7.182,-37.754,22.39
70,1435995490403,-7.182,-37.754,22.39
71,1435995490425,-7.182,-38.069,22.39
72,1435995490443,-7.182,-38.069,22.39
73,1435995490465,-7.182,-38.069,22.39
74,1435995490487,-7.182,-38.069,22.39
75,1435995490505,-7.182,-38.069,22.39
76,1435995490525,-7.182,-38.069,22.39
77,1435995490547,-7.182,-38.069,22.39
78,1435995490564,-7.182,-38.069,22.39
79,1435995490585,-7.182,-38.069,22.39
80,1435995490605,-7.182,-38.069,22.712
81,1435995490625,-7.182,-38.069,22.712
82,1435995490650,-7.182,-38.069,22.712
83,1435995490690,-7.182,-38.069,22.712
84,1435995490691,-7.182,-38.069,22.712
85,1435995490701,-7.182,-38.069,22.712
86,1435995490723,-7.182,-38.069,22.712
87,1435995490741,-7.182,-38.069,22.712
88,1435995490761,-7.182,-38.069,22.712
89,1435995490785,-7.182,-38.069,22.712
90,1435995490803,-7.182,-38.069,22.343
91,1435995490825,-7.182,-38.069,22.343
92,1435995490848,-7.182,-38.069,22.343
93,1435995490865,-7.182,-38.069,22.343
94,1435995490885,-7.182,-37.754,22.343
95,1435995490906,-7.182,-37.754,22.343
96,1435995490925,-7.182,-37.754,22.343
97,1435995490945,-7.182,-37.754,22.343
98,1435995490968,-7.182,-37.754,22.343
99,1435995490985,-7.182,-37.754,22.343
100,1435995491003,-7.182,-37.754,22.343
101,1435995491028,-7.182,-37.754,22.343
102,1435995491044,-7.182,-37.754,22.343
103,1435995491063,-7.182,-37.754,22.343
104,1435995491086,-7.182,-37.754,22.343
105,1435995491106,-7.182,-37.754,22.343
106,1435995491126,-7.182,-37.754,22.343
107,1435995491156,-7.182,-37.754,22.343
108,1435995491167,-7.182,-37.754,22.343
109,1435995491186,-7.182,-37.754,22.343
110,1435995491204,-7.182,-37.754,22.343
111,1435995491222,-7.182,-37.754,22.343
112,1435995491250,-7.182,-37.754,22.343
113,1435995491331,-7.182,-37.754,22.343
114,1435995491332,-7.182,-37.754,22.343
115,1435995491333,-7.182,-37.754,22.343
116,1435995491334,-7.182,-37.754,22.038
117,1435995491342,-7.182,-37.754,22.038
118,1435995491363,-7.182,-37.754,22.038
119,1435995491389,-7.182,-37.754,22.038
120,1435995491405,-7.182,-37.754,22.038
121,1435995491422,-7.182,-37.754,22.038
122,1435995491444,-7.182,-37.754,22.038
123,1435995491462,-7.182,-37.754,22.038
124,1435995491482,-7.182,-37.754,22.038
125,1435995491504,-7.182,-37.754,22.038
126,1435995491522,-7.182,-37.754,22.038
127,1435995491542,-7.182,-37.754,22.038
128,1435995491565,-7.182,-37.754,22.038
129,1435995491582,-7.182,-37.754,22.038
130,1435995491603,-7.182,-37.754,22.038
131,1435995491627,-7.182,-37.754,22.038
132,1435995491643,-7.182,-37.754,22.038
133,1435995491662,-6.849,-37.754,22.038
134,1435995491687,-6.849,-37.754,22.038
135,1435995491717,-6.849,-37.754,22.038
136,1435995491725,-6.849,-37.754,22.373
137,1435995491746,-6.849,-37.754,22.373
138,1435995491766,-6.455,-37.396,22.373
139,1435995491786,-6.455,-37.396,22.705
140,1435995491808,-6.455,-37.396,22.705
141,1435995491829,-6.016,-37.049,24.433
142,1435995491849,-6.016,-37.049,26.303
143,1435995491866,-5.696,-36.494,27.867
144,1435995491887,-5.696,-34.951,29.023
145,1435995491975,-5.366,-33.917,29.698
146,1435995491976,-5.366,-33.23,30.432
147,1435995491977,-5.027,-33.23,30.871
148,1435995491978,-5.027,-32.908,30.282
149,1435995491990,-5.027,-32.908,30.282
150,1435995492002,-5.027,-33.534,29.339
151,1435995492022,-5.027,-33.534,28.72
152,1435995492045,-5.027,-34.4,28.102
153,1435995492064,-5.027,-34.4,27.273
154,1435995492083,-5.027,-34.701,26.56
155,1435995492105,-5.027,-34.701,26.124
156,1435995492122,-5.027,-34.701,26.124
157,1435995492142,-5.027,-34.701,26.124
158,1435995492165,-5.503,-35.232,26.124
159,1435995492183,-5.503,-35.232,26.124
160,1435995492204,-5.503,-35.232,26.124
161,1435995492225,-5.503,-35.543,26.124
162,1435995492243,-5.503,-35.543,25.488
163,1435995492265,-5.503,-35.844,25.488
164,1435995492288,-5.857,-35.844,25.038
165,1435995492305,-5.857,-36.178,25.038
166,1435995492327,-5.857,-36.178,25.038
167,1435995492345,-6.166,-36.178,25.486
168,1435995492365,-6.166,-35.786,25.828
169,1435995492384,-6.166,-35.786,25.828
170,1435995492405,-6.166,-35.786,25.828
171,1435995492424,-5.392,-35.786,25.828
172,1435995492444,-4.56,-35.786,25.828
173,1435995492464,-3.335,-35.786,26.815
174,1435995492485,-2.178,-35.786,29.069
175,1435995492528,-0.733,-34.08,30.245
176,1435995492529,-0.199,-33.045,31.015
177,1435995492552,-0.199,-32.058,31.497
178,1435995492612,-0.199,-31.733,32.131
179,1435995492613,0.122,-31.198,32.464
180,1435995492614,0.122,-30.763,31.484
181,1435995492629,0.122,-30.763,32.255
182,1435995492644,-0.508,-29.997,32.652
183,1435995492663,-0.88,-29.997,33.004
184,1435995492684,-1.672,-29.069,33.566
185,1435995492705,-1.672,-27.928,34.635
186,1435995492723,-2.397,-26.773,35.556
187,1435995492743,-2.777,-25.296,36.395
188,1435995492768,-2.777,-22.724,37.89
189,1435995492788,-2.777,-18.617,39.184
190,1435995492807,-2.777,-13.775,41.474
191,1435995492827,-2.777,-9.02,42.709
192,1435995492847,-3.3,-4.592,43.814
193,1435995492867,-4.878,0.047,43.814
194,1435995492888,-5.702,3.042,43.814
195,1435995492908,-4.728,4.417,45.195
196,1435995492926,-2.983,4.417,45.195
197,1435995492948,-1.489,3.112,45.195
198,1435995492967,-0.756,-0.241,45.195
199,1435995492987,-0.756,-5.285,44.442
200,1435995493006,-0.756,-10.429,42.861
201,1435995493028,-1.519,-16.081,41.435
202,1435995493047,-2.34,-22.581,38.275
203,1435995493068,-2.967,-28.402,35.507
204,1435995493087,-2.967,-32.987,30.383
205,1435995493110,-3.565,-36.944,24.291
206,1435995493135,-5.441,-39.341,19.175
207,1435995493151,-6.661,-40.628,15.144
208,1435995493175,-6.983,-40.934,14.025
209,1435995493222,-6.472,-40.934,14.607
210,1435995493223,-5.671,-40.161,16.622
211,1435995493227,-4.467,-39.111,20.848
212,1435995493245,-2.073,-35.374,26.226
213,1435995493265,2.355,-32.96,28.511
214,1435995493284,5.659,-31.678,29.898
215,1435995493306,7.046,-28.842,32.264
216,1435995493325,8.297,-27.07,33.506
217,1435995493347,7.858,-25.386,35.069
218,1435995493368,7.858,-24.559,35.375
219,1435995493389,8.169,-23.927,35.842
220,1435995493407,9.169,-23.927,35.247
221,1435995493428,9.169,-23.927,35.247
222,1435995493448,7.327,-23.927,36.259
223,1435995493468,4.66,-23.927,36.572
224,1435995493489,2.513,-22.753,37.966
225,1435995493508,2.513,-20.149,39.23
226,1435995493528,4.313,-16.117,40.882
227,1435995493547,6.971,-12.692,41.842
228,1435995493568,6.971,-8.874,42.483
229,1435995493588,4.519,-5.268,43.6
230,1435995493608,-0.077,-2.239,44.552
231,1435995493631,-4.484,-0.454,44.868
232,1435995493647,-7.781,-0.047,44.415
233,1435995493669,-9.509,-0.047,45.002
234,1435995493685,-8.259,-1.457,44.7
235,1435995493705,-5.856,-4.931,44.7
236,1435995493726,-3.392,-9.547,43.521
237,1435995493748,-1.06,-15.129,42.28
238,1435995493767,0.903,-21.56,39.431
239,1435995493788,1.817,-27.256,35.345
240,1435995493806,0.939,-32.295,31.431
241,1435995493869,-1.992,-36.268,26.242
242,1435995493870,-3.846,-39.619,20.867
243,1435995493871,-5.201,-40.834,17.44
244,1435995493885,-5.201,-40.834,15.803
245,1435995493905,-4.202,-40.834,17.062
246,1435995493927,-2.232,-39.562,20.315
247,1435995493946,-0.08,-37.297,23.985
248,1435995493970,4.109,-35.304,26.791
249,1435995493985,7.472,-33.119,27.267
250,1435995494008,8.685,-30.886,30.233
251,1435995494029,6.503,-29.67,32.73
252,1435995494048,5.879,-27.981,34.501
253,1435995494067,7.478,-26.663,34.501
254,1435995494088,8.189,-26.072,34.501
255,1435995494109,7.485,-26.072,35.258
256,1435995494131,6.39,-26.072,35.911
257,1435995494147,6.069,-25.335,35.911
258,1435995494166,6.069,-25.335,36.312
259,1435995494187,4.62,-24.948,36.828
260,1435995494210,2.684,-24.438,37.702
261,1435995494231,1.364,-22.761,38.255
262,1435995494251,2.194,-19.944,39.952
263,1435995494271,4.667,-15.213,41.233
264,1435995494288,6.947,-10.722,41.998
265,1435995494308,7.597,-6.867,43.542
266,1435995494329,5.722,-2.821,44.515
267,1435995494349,3.256,0.219,44.895
268,1435995494369,1.924,1.884,44.895
269,1435995494390,1.496,2.511,44.895
270,1435995494409,1.496,1.748,44.895
271,1435995494429,1.496,-1.417,44.895
272,1435995494447,2.207,-6.214,44.052
273,1435995494465,2.69,-12.193,43.197
274,1435995494491,2.69,-19.012,40.261
275,1435995494506,2.69,-25.755,36.953
276,1435995494525,2.69,-32.09,31.976
277,1435995494547,2.69,-36.509,26.152
278,1435995494572,1.593,-39.904,19.992
279,1435995494587,1.051,-41.731,14.561
280,1435995494607,1.051,-42.219,12.898
281,1435995494629,2.168,-41.896,13.615
282,1435995494646,3.157,-40.827,16.215
283,1435995494666,4.598,-39.544,19.398
284,1435995494687,8.146,-35.807,22.459
285,1435995494706,12.077,-34.396,23.106
286,1435995494726,14.881,-31.506,25.392
287,1435995494750,14.881,-29.042,28.866
288,1435995494769,13.783,-27.386,31.1
289,1435995494789,14.836,-25.125,31.855
290,1435995494809,16.6,-24.313,32.829
291,1435995494829,17.274,-23.748,32.829
292,1435995494847,16.482,-23.266,33.418
293,1435995494869,15.176,-23.266,34.283
294,1435995494890,15.176,-22.737,33.949
295,1435995494910,14.558,-22.737,33.949
296,1435995494930,12.373,-22.737,34.98
297,1435995494949,9.884,-21.519,37.408
298,1435995494969,8.781,-19.453,38.955
299,1435995494990,9.963,-15.251,39.846
300,1435995495008,12.812,-11.054,40.69
301,1435995495031,14.631,-7.365,41.384
302,1435995495052,13.526,-2.929,42.912
303,1435995495071,10.006,1.113,43.577
304,1435995495089,7.058,2.886,44.132
305,1435995495110,6.268,4.579,43.695
306,1435995495162,5.715,4.579,44.195
307,1435995495163,4.875,3.228,44.195
308,1435995495166,4.258,-0.096,44.645
309,1435995495186,5.093,-5.191,44.049
310,1435995495206,6.748,-11.001,42.15
311,1435995495227,8.25,-18.048,38.88
312,1435995495246,9.982,-24.89,35.157
313,1435995495267,10.948,-31.074,29.145
314,1435995495287,9.878,-36.212,22.65
315,1435995495307,7.795,-39.875,17.292
316,1435995495326,6.182,-41.378,12.893
317,1435995495352,6.182,-41.97,11.645
318,1435995495366,7.588,-41.255,12.185
319,1435995495405,8.938,-40.277,14.775
320,1435995495407,11.782,-37.855,17.88
321,1435995495426,15.08,-35.496,20.056
322,1435995495447,16.825,-33.023,22.187
323,1435995495467,19.055,-29.8,26.927
324,1435995495486,17.822,-28.144,29.071
325,1435995495512,18.701,-26.095,30.747
326,1435995495529,20.396,-24.079,30.747
327,1435995495550,21.652,-23.471,30.747
328,1435995495569,21.255,-22.656,30.747
329,1435995495590,21.255,-22.656,31.46
330,1435995495610,21.255,-22.03,32.049
331,1435995495628,20.55,-22.03,32.049
332,1435995495648,19.548,-21.64,33.227
333,1435995495668,17.581,-21.64,34.593
334,1435995495690,15.553,-20.747,35.891
335,1435995495709,15.206,-18.539,36.576
336,1435995495729,16.744,-14.921,38.526
337,1435995495749,18.861,-11.042,38.526
338,1435995495775,19.801,-7.192,38.526
339,1435995495815,18.304,-2.903,40.524
340,1435995495816,14.088,1.043,43.721
341,1435995495832,8.563,3.013,44.433
342,1435995495850,6.394,4.153,45.074
343,1435995495866,4.762,4.153,44.74
344,1435995495888,3.083,2.832,45.37
345,1435995495911,2.636,-0.471,45.37
346,1435995495929,3.303,-5.764,44.903
347,1435995495949,4.742,-11.485,43.174
348,1435995495971,6.413,-18.432,40.359
349,1435995495991,8.076,-25.18,36.442
350,1435995496012,9.617,-31.243,30.076
351,1435995496029,9.617,-36.251,23.66
352,1435995496050,7.403,-39.408,18.035
353,1435995496071,5.69,-41.696,13.626
354,1435995496090,5.69,-42.384,11.297
355,1435995496110,6.565,-42.074,11.749
356,1435995496131,7.466,-41.505,13.868
357,1435995496149,9.465,-39.25,17.866
358,1435995496170,12.95,-36.288,19.731
359,1435995496191,14.878,-34.472,21.804
360,1435995496209,17.561,-31.108,25.598
361,1435995496230,16.99,-29.045,28.309
362,1435995496251,16.99,-27.244,30.467
363,1435995496269,18.559,-25.148,31.271
364,1435995496290,19.432,-24.461,31.611
365,1435995496311,19.432,-23.724,31.611
366,1435995496330,19.432,-23.118,32.591
367,1435995496349,18.373,-23.118,32.591
368,1435995496372,18.373,-23.118,33.618
369,1435995496388,18.373,-22.509,33.941
370,1435995496408,16.238,-22.509,35.0
371,1435995496437,13.725,-21.806,35.629
372,1435995496449,12.164,-19.964,37.704
373,1435995496490,13.801,-15.945,39.057
374,1435995496491,16.728,-12.702,39.057
375,1435995496508,18.948,-8.412,39.057
376,1435995496527,18.141,-4.168,40.335
377,1435995496548,15.055,0.05,42.64
378,1435995496572,10.22,3.276,43.948
379,1435995496589,7.077,4.783,43.948
380,1435995496609,5.117,4.783,43.507
381,1435995496629,2.653,4.396,44.267
382,1435995496651,1.3,1.834,43.777
383,1435995496672,1.611,-2.519,44.482
384,1435995496689,2.662,-8.288,43.962
385,1435995496711,4.74,-14.654,41.459
386,1435995496730,6.468,-22.282,38.177
387,1435995496750,8.992,-28.204,32.893
388,1435995496771,9.979,-33.732,26.852
389,1435995496792,7.785,-37.976,21.711
390,1435995496809,4.814,-40.605,17.056
391,1435995496831,3.639,-42.115,14.553
392,1435995496852,3.996,-42.115,13.929
393,1435995496870,6.515,-40.965,14.703
394,1435995496891,8.407,-39.483,17.776
395,1435995496912,12.348,-36.352,21.83
396,1435995496930,14.437,-34.419,22.987
397,1435995496950,16.595,-30.964,26.197
398,1435995496970,15.66,-29.309,29.125
399,1435995496991,15.66,-27.59,30.963
400,1435995497020,17.478,-25.68,31.655
401,1435995497030,18.759,-24.38,31.655
402,1435995497049,17.979,-23.68,32.63
403,1435995497069,18.29,-23.68,32.63
404,1435995497090,17.379,-23.68,33.221
405,1435995497128,17.379,-23.68,33.786
406,1435995497129,17.379,-22.84,33.786
407,1435995497148,15.518,-22.431,34.73
408,1435995497168,12.803,-22.048,35.269
409,1435995497189,11.172,-19.543,37.954
410,1435995497209,12.219,-15.919,38.652
411,1435995497233,14.318,-11.77,40.057
412,1435995497248,16.293,-7.969,40.057
413,1435995497274,16.293,-3.097,41.107
414,1435995497293,12.852,0.852,42.218
415,1435995497314,8.776,3.536,43.647
416,1435995497338,6.358,5.253,44.004
417,1435995497351,5.232,5.253,44.477
418,1435995497372,4.029,4.368,44.477
419,1435995497392,3.404,1.628,44.477
420,1435995497410,3.994,-2.801,44.477
421,1435995497432,5.215,-8.747,43.034
422,1435995497453,6.976,-15.122,40.373
423,1435995497470,8.306,-22.483,37.309
424,1435995497492,9.907,-28.532,31.335
425,1435995497512,9.907,-34.025,26.092
426,1435995497531,7.798,-38.356,20.75
427,1435995497551,6.506,-40.615,15.786
428,1435995497585,5.908,-42.079,12.133
429,1435995497591,6.25,-42.079,12.133
430,1435995497609,7.649,-41.384,13.374
431,1435995497632,9.114,-40.481,15.054
432,1435995497648,11.807,-37.49,18.989
433,1435995497669,14.71,-36.015,20.571
434,1435995497690,16.717,-33.828,22.686
435,1435995497709,17.768,-30.633,26.303
436,1435995497729,17.083,-28.95,28.302
437,1435995497781,18.812,-26.855,29.408
438,1435995497782,20.196,-25.544,29.408
439,1435995497794,20.773,-24.975,29.771
440,1435995497809,20.361,-24.975,30.482
441,1435995497828,19.581,-24.513,32.109
442,1435995497850,19.261,-23.825,32.109
443,1435995497874,19.261,-23.825,32.595
444,1435995497890,18.548,-23.825,32.595
445,1435995497910,16.619,-23.158,34.326
446,1435995497935,14.152,-22.021,36.065
447,1435995497952,14.152,-19.807,36.065
448,1435995497972,15.1,-15.74,38.818
449,1435995497991,17.037,-12.269,39.816
450,1435995498012,18.247,-8.499,39.816
451,1435995498032,18.247,-4.672,39.816
452,1435995498053,15.461,-0.547,43.295
453,1435995498072,10.06,2.381,43.862
454,1435995498091,6.454,3.947,45.018
455,1435995498113,5.27,4.847,44.549
456,1435995498130,4.089,4.248,45.043
457,1435995498153,3.192,1.994,45.043
458,1435995498172,3.192,-2.183,45.365
459,1435995498192,4.183,-7.543,43.754
460,1435995498212,5.821,-13.165,42.021
461,1435995498233,7.27,-20.518,39.068
462,1435995498253,9.013,-26.869,34.434
463,1435995498273,10.734,-32.531,27.56
464,1435995498293,9.199,-36.923,21.817
465,1435995498313,6.604,-40.023,16.928
466,1435995498334,5.299,-42.005,13.009
467,1435995498353,5.299,-42.005,12.01
468,1435995498372,6.506,-42.005,12.962
469,1435995498393,8.145,-40.71,14.732
470,1435995498439,9.521,-39.721,17.137
471,1435995498440,13.45,-37.126,19.149
472,1435995498452,15.292,-34.738,21.258
473,1435995498470,17.674,-31.971,24.568
474,1435995498493,16.957,-30.204,27.182
475,1435995498512,17.277,-28.286,29.302
476,1435995498531,18.217,-26.327,30.364
477,1435995498551,19.456,-25.72,30.364
478,1435995498573,19.813,-25.364,30.828
479,1435995498593,19.813,-25.038,30.828
480,1435995498613,19.367,-24.674,31.806
481,1435995498634,19.367,-24.134,31.806
482,1435995498651,18.899,-24.134,32.511
483,1435995498671,17.718,-23.414,33.728
484,1435995498692,15.856,-22.895,34.208
485,1435995498714,14.05,-21.723,35.287
486,1435995498734,13.468,-19.558,37.072
487,1435995498753,15.203,-15.35,38.003
488,1435995498772,16.772,-11.41,38.825
489,1435995498791,17.559,-7.467,39.497
490,1435995498813,15.754,-3.489,42.097
491,1435995498834,12.458,0.086,43.516
492,1435995498851,8.001,2.597,44.454
493,1435995498872,5.717,4.234,44.454
494,1435995498895,3.637,4.678,45.335
495,1435995498915,0.7,3.8,46.166
496,1435995498937,-1.423,1.016,45.729
497,1435995498953,-1.423,-2.844,45.385
498,1435995498972,0.553,-7.992,44.32
499,1435995498991,3.178,-13.568,42.221
500,1435995499014,7.386,-20.413,39.253
501,1435995499033,11.465,-26.144,32.974
502,1435995499051,13.044,-31.741,27.627
503,1435995499097,10.302,-36.872,22.186
504,1435995499098,6.315,-40.432,17.626
505,1435995499114,5.015,-41.921,13.528
506,1435995499130,5.015,-41.921,11.914
507,1435995499149,6.019,-42.317,12.881
508,1435995499173,7.682,-41.415,14.854
509,1435995499194,10.888,-38.9,18.357
510,1435995499211,14.179,-36.439,19.944
511,1435995499232,15.577,-33.604,23.11
512,1435995499255,16.807,-30.967,25.888
