id,attr_time,attr_x,attr_y,attr_z
1,1438345018025,51.2711,9.67255,-38.9328
2,1438345018044,51.9714,11.4304,-38.2599
3,1438345018064,51.9714,11.4304,-38.2599
4,1438345018084,50.7462,9.84955,-37.4191
5,1438345018104,50.5707,12.1338,-37.9242
6,1438345018122,50.5707,12.1338,-37.9242
7,1438345018143,50.5707,9.67255,-37.5885
8,1438345018161,49.8703,11.0794,-38.9328
9,1438345018183,49.8703,11.0794,-38.9328
10,1438345018203,49.1684,9.67255,-39.6057
11,1438345018223,50.2197,10.7285,-36.9156
12,1438345018242,50.2197,10.7285,-36.9156
13,1438345018261,51.4465,10.2005,-38.765
14,1438345018282,51.622,11.4304,-37.5885
15,1438345018301,51.622,11.4304,-37.5885
16,1438345018324,51.2711,10.376,-39.27
17,1438345018341,52.6733,11.4304,-37.2513
18,1438345018360,52.6733,11.4304,-37.2513
19,1438345018381,50.3952,11.9583,-39.1006
20,1438345018400,50.9216,10.7285,-37.5885
21,1438345018423,50.9216,10.7285,-37.5885
22,1438345018438,50.2197,10.376,-38.2599
23,1438345018460,52.3224,11.0794,-38.5971
24,1438345018479,52.3224,11.0794,-38.5971
25,1438345018499,51.0956,10.9039,-39.7736
26,1438345018522,51.7975,10.2005,-38.092
27,1438345018539,51.7975,10.2005,-38.092
28,1438345018559,52.6733,10.7285,-39.9414
29,1438345018578,51.7975,11.2549,-38.092
30,1438345018598,51.7975,11.2549,-38.092
31,1438345018620,51.0956,11.6074,-38.092
32,1438345018638,51.9714,11.0794,-38.5971
33,1438345018658,51.9714,11.0794,-38.5971
34,1438345018678,51.9714,10.025,-38.2599
35,1438345018697,51.622,11.4304,-38.5971
36,1438345018720,51.622,11.4304,-38.5971
37,1438345018737,51.4465,10.5515,-37.7563
38,1438345018755,51.9714,11.7828,-37.9242
39,1438345018777,51.9714,11.7828,-37.9242
40,1438345018795,50.7462,11.6074,-37.0834
41,1438345018819,49.5194,11.4304,-39.27
42,1438345018836,49.5194,11.4304,-39.27
43,1438345018856,51.9714,9.32159,-39.27
44,1438345018876,50.9216,11.0794,-38.9328
45,1438345018894,50.9216,11.0794,-38.9328
46,1438345018917,51.7975,9.49707,-38.765
47,1438345018934,51.0956,10.5515,-38.092
48,1438345018957,51.0956,10.5515,-38.092
49,1438345018974,52.1469,10.9039,-37.7563
50,1438345018994,52.3224,11.4304,-39.27
51,1438345019014,52.3224,11.4304,-39.27
52,1438345019033,50.7462,10.5515,-38.092
53,1438345019056,49.6948,11.2549,-37.7563
54,1438345019071,49.6948,11.2549,-37.7563
55,1438345019093,51.4465,10.2005,-39.7736
56,1438345019112,51.0956,10.9039,-37.4191
57,1438345019133,51.0956,10.9039,-37.4191
58,1438345019152,51.4465,9.49707,-39.1006
59,1438345019172,50.7462,11.6074,-38.765
60,1438345019192,50.7462,11.6074,-38.765
61,1438345019211,50.9216,11.0794,-38.9328
62,1438345019232,50.7462,12.3093,-38.765
63,1438345019253,50.7462,12.3093,-38.765
64,1438345019271,51.9714,11.0794,-38.2599
65,1438345019291,53.0228,11.7828,-36.9156
66,1438345019311,53.0228,11.7828,-36.9156
67,1438345019330,51.7975,11.2549,-39.1006
68,1438345019353,51.0956,11.6074,-38.092
69,1438345019369,51.0956,11.6074,-38.092
70,1438345019388,50.0458,9.49707,-39.1006
71,1438345019409,50.7462,11.2549,-38.4293
72,1438345019428,50.7462,11.2549,-38.4293
73,1438345019452,50.7462,10.2005,-38.765
74,1438345019469,53.8986,10.5515,-37.4191
75,1438345019489,53.8986,10.5515,-37.4191
76,1438345019509,51.0956,10.5515,-37.7563
77,1438345019527,50.9216,11.7828,-38.5971
78,1438345019551,50.9216,11.7828,-38.5971
79,1438345019567,49.1684,9.32159,-37.9242
80,1438345019588,51.622,11.4304,-38.5971
81,1438345019608,51.622,11.4304,-38.5971
82,1438345019627,51.9714,9.67255,-38.2599
83,1438345019648,50.9216,10.376,-38.5971
84,1438345019667,50.9216,10.376,-38.5971
85,1438345019686,51.622,10.025,-38.5971
86,1438345019705,51.622,11.0794,-38.5971
87,1438345019726,51.622,11.0794,-38.5971
88,1438345019746,50.5707,10.7285,-38.2599
89,1438345019766,50.5707,11.7828,-38.5971
90,1438345019786,50.5707,11.7828,-38.5971
91,1438345019806,51.2711,10.7285,-39.6057
92,1438345019825,51.622,12.8372,-38.9328
93,1438345019846,51.622,12.8372,-38.9328
94,1438345019865,51.4465,10.2005,-38.092
95,1438345019884,49.6948,11.2549,-37.4191
96,1438345019905,49.6948,11.2549,-37.4191
97,1438345019924,49.3439,9.84955,-38.4293
98,1438345019946,50.7462,11.2549,-38.765
99,1438345019964,50.7462,11.2549,-38.765
100,1438345019983,52.3224,10.025,-39.6057
101,1438345020012,50.2197,11.0794,-38.2599
102,1438345020029,50.2197,11.0794,-38.2599
103,1438345020041,50.9216,10.025,-37.5885
104,1438345020071,51.4465,11.9583,-38.765
105,1438345020083,51.4465,11.9583,-38.765
106,1438345020099,50.9216,12.8372,-37.9242
107,1438345020119,52.3224,12.8372,-37.9242
108,1438345020139,52.3224,12.8372,-37.9242
109,1438345020160,51.9714,11.0794,-39.9414
110,1438345020187,50.7462,10.5515,-39.1006
111,1438345020199,50.7462,10.5515,-39.1006
112,1438345020220,51.2711,11.7828,-38.2599
113,1438345020240,51.2711,12.8372,-37.9242
114,1438345020260,51.2711,12.8372,-37.9242
115,1438345020282,51.2711,10.376,-37.9242
116,1438345020297,51.7975,11.2549,-39.4379
117,1438345020319,51.7975,11.2549,-39.4379
118,1438345020337,52.4979,11.6074,-38.092
119,1438345020358,49.3439,11.6074,-39.1006
120,1438345020379,49.3439,11.6074,-39.1006
121,1438345020398,51.622,10.7285,-39.9414
122,1438345020419,50.7462,11.2549,-38.4293
123,1438345020438,50.7462,11.2549,-38.4293
124,1438345020458,50.9216,10.7285,-39.6057
125,1438345020479,51.622,11.7828,-38.9328
126,1438345020498,51.622,11.7828,-38.9328
127,1438345020517,50.9216,10.376,-38.2599
128,1438345020538,50.2197,12.1338,-38.2599
129,1438345020557,50.2197,12.1338,-38.2599
130,1438345020577,50.2197,11.0794,-37.9242
131,1438345020597,50.5707,11.0794,-39.27
132,1438345020616,50.5707,11.0794,-39.27
133,1438345020637,51.2711,10.376,-38.9328
134,1438345020654,49.8703,11.4304,-38.9328
135,1438345020679,49.8703,11.4304,-38.9328
136,1438345020694,51.7975,10.2005,-39.1006
137,1438345020716,51.7975,11.9583,-39.1006
138,1438345020736,51.7975,11.9583,-39.1006
139,1438345020755,50.7462,10.5515,-38.4293
140,1438345020777,49.8703,12.4863,-38.9328
141,1438345020793,49.8703,12.4863,-38.9328
142,1438345020814,51.7975,11.9583,-38.092
143,1438345020834,51.622,11.7828,-37.2513
144,1438345020854,51.622,11.7828,-37.2513
145,1438345020876,50.3952,9.84955,-39.1006
146,1438345020894,52.8488,10.5515,-37.0834
147,1438345020913,52.8488,10.5515,-37.0834
148,1438345020934,51.4465,10.2005,-38.765
149,1438345020953,52.4979,10.5515,-39.1006
150,1438345020971,52.4979,10.5515,-39.1006
151,1438345020993,50.7462,9.49707,-38.4293
152,1438345021011,50.7462,13.0127,-38.092
153,1438345021032,50.7462,13.0127,-38.092
154,1438345021052,50.0458,9.84955,-39.1006
155,1438345021074,51.622,12.1338,-38.2599
156,1438345021091,51.622,12.1338,-38.2599
157,1438345021110,51.4465,10.9039,-39.1006
158,1438345021132,52.3224,12.8372,-39.6057
159,1438345021150,52.3224,12.8372,-39.6057
160,1438345021171,51.622,10.7285,-39.27
161,1438345021190,52.1469,11.6074,-37.7563
162,1438345021213,52.1469,11.6074,-37.7563
163,1438345021230,49.8703,10.7285,-39.6057
164,1438345021250,51.0956,12.3093,-39.7736
165,1438345021270,51.0956,12.3093,-39.7736
166,1438345021287,50.7462,10.2005,-40.4465
167,1438345021312,52.8488,12.3093,-38.4293
168,1438345021328,52.8488,12.3093,-38.4293
169,1438345021348,50.9216,10.376,-39.27
170,1438345021369,50.2197,12.1338,-39.6057
171,1438345021388,50.2197,12.1338,-39.6057
172,1438345021408,51.7975,11.2549,-38.765
173,1438345021427,50.0458,11.6074,-39.4379
174,1438345021447,50.0458,11.6074,-39.4379
175,1438345021467,51.0956,11.9583,-38.092
176,1438345021487,50.2197,12.8372,-38.2599
177,1438345021510,50.2197,12.8372,-38.2599
178,1438345021527,51.0956,9.84955,-40.1108
179,1438345021547,51.0956,10.9039,-40.1108
180,1438345021567,51.0956,10.9039,-40.1108
181,1438345021585,50.5707,11.0794,-39.27
182,1438345021605,51.4465,12.6617,-37.7563
183,1438345021626,51.4465,12.6617,-37.7563
184,1438345021644,51.9714,11.4304,-38.9328
185,1438345021666,51.4465,12.3093,-38.765
186,1438345021684,51.4465,12.3093,-38.765
187,1438345021706,50.9216,11.0794,-38.5971
188,1438345021725,50.2197,11.7828,-37.5885
189,1438345021743,50.2197,11.7828,-37.5885
190,1438345021765,50.7462,10.9039,-39.4379
191,1438345021784,51.7975,12.3093,-37.0834
192,1438345021806,51.7975,12.3093,-37.0834
193,1438345021824,50.7462,9.49707,-40.1108
194,1438345021843,50.9216,13.5406,-38.5971
195,1438345021864,50.9216,13.5406,-38.5971
196,1438345021883,51.7975,9.84955,-38.765
197,1438345021903,51.0956,11.6074,-39.7736
198,1438345021921,51.0956,11.6074,-39.7736
199,1438345021942,51.622,10.025,-39.6057
200,1438345021962,49.3439,11.9583,-39.4379
201,1438345021982,49.3439,11.9583,-39.4379
202,1438345022002,50.0458,10.5515,-39.4379
203,1438345022021,51.0956,11.9583,-38.765
204,1438345022041,51.0956,11.9583,-38.765
205,1438345022060,50.7462,11.2549,-38.765
206,1438345022081,51.0956,12.6617,-39.4379
207,1438345022102,51.0956,12.6617,-39.4379
208,1438345022121,50.0458,10.9039,-39.7736
209,1438345022140,49.5194,11.4304,-39.27
210,1438345022160,49.5194,11.4304,-39.27
211,1438345022180,50.7462,11.9583,-39.7736
212,1438345022200,50.9216,12.8372,-37.9242
213,1438345022220,50.9216,12.8372,-37.9242
214,1438345022237,50.2197,10.025,-39.9414
215,1438345022260,51.622,11.4304,-39.27
216,1438345022278,51.622,11.4304,-39.27
217,1438345022299,51.7975,11.6074,-39.1006
218,1438345022318,51.2711,12.1338,-38.5971
219,1438345022339,51.2711,12.1338,-38.5971
220,1438345022357,50.0458,10.9039,-37.4191
221,1438345022376,50.9216,11.4304,-37.9242
222,1438345022398,50.9216,11.4304,-37.9242
223,1438345022416,51.7975,9.84955,-39.4379
224,1438345022438,49.8703,11.4304,-38.5971
225,1438345022457,49.8703,11.4304,-38.5971
226,1438345022477,51.9714,11.0794,-38.9328
227,1438345022497,50.0458,11.6074,-38.765
228,1438345022516,50.0458,11.6074,-38.765
229,1438345022537,51.4465,11.9583,-39.4379
230,1438345022554,50.2197,11.4304,-37.9242
231,1438345022575,50.2197,11.4304,-37.9242
232,1438345022595,50.3952,9.84955,-39.1006
233,1438345022615,50.0458,12.3093,-38.092
234,1438345022636,50.0458,12.3093,-38.092
235,1438345022655,50.7462,10.5515,-39.4379
236,1438345022674,51.622,11.7828,-40.2786
237,1438345022696,51.622,11.7828,-40.2786
238,1438345022714,50.5707,11.0794,-38.2599
239,1438345022736,50.9216,11.7828,-39.6057
240,1438345022754,50.9216,11.7828,-39.6057
241,1438345022774,51.0956,10.9039,-38.765
242,1438345022794,50.2197,11.7828,-38.2599
243,1438345022813,50.2197,11.7828,-38.2599
244,1438345022836,51.0956,9.84955,-38.765
245,1438345022853,50.7462,11.9583,-38.092
246,1438345022871,50.7462,11.9583,-38.092
247,1438345022893,50.0458,9.49707,-39.7736
248,1438345022911,51.2711,10.7285,-37.9242
249,1438345022935,51.2711,10.7285,-37.9242
250,1438345022952,51.7975,10.9039,-39.4379
251,1438345022972,53.0228,11.7828,-38.9328
252,1438345022992,53.0228,11.7828,-38.9328
253,1438345023010,50.3952,10.2005,-39.1006
254,1438345023034,51.622,10.7285,-38.5971
255,1438345023050,51.622,10.7285,-38.5971
256,1438345023071,52.1469,8.44269,-37.7563
257,1438345023091,51.2711,12.1338,-38.2599
258,1438345023110,51.2711,12.1338,-38.2599
259,1438345023132,50.7462,11.9583,-38.765
260,1438345023149,51.9714,11.0794,-38.5971
261,1438345023170,51.9714,11.0794,-38.5971
262,1438345023188,50.3952,11.6074,-38.4293
263,1438345023209,50.5707,11.0794,-39.6057
264,1438345023230,50.5707,11.0794,-39.6057
265,1438345023249,52.4979,10.2005,-38.765
266,1438345023269,51.2711,11.4304,-38.5971
267,1438345023409,51.2711,11.4304,-38.5971
268,1438345023410,50.3952,11.2549,-37.7563
269,1438345023411,52.1469,10.9039,-38.092
270,1438345023412,52.1469,10.9039,-38.092
271,1438345023413,50.5707,12.8372,-39.27
272,1438345023414,51.2711,13.8916,-37.9242
273,1438345023415,51.2711,13.8916,-37.9242
274,1438345023427,52.1469,12.6617,-38.765
275,1438345023446,51.0956,11.9583,-38.4293
276,1438345023467,51.0956,11.9583,-38.4293
277,1438345023486,51.2711,11.0794,-39.27
278,1438345023505,51.4465,11.6074,-38.092
279,1438345023526,51.4465,11.6074,-38.092
280,1438345023545,51.0956,10.5515,-38.4293
281,1438345023566,52.1469,11.2549,-37.7563
282,1438345023585,52.1469,11.2549,-37.7563
283,1438345023606,51.622,10.376,-38.9328
284,1438345023625,50.9216,10.025,-37.5885
285,1438345023643,50.9216,10.025,-37.5885
286,1438345023665,50.9216,9.67255,-39.6057
287,1438345023683,49.6948,10.9039,-38.765
288,1438345023707,49.6948,10.9039,-38.765
289,1438345023724,51.2711,10.7285,-38.5971
290,1438345023743,50.5707,12.4863,-39.6057
291,1438345023764,50.5707,12.4863,-39.6057
292,1438345023783,50.9216,10.376,-38.9328
293,1438345023805,51.7975,12.3093,-38.4293
294,1438345023821,51.7975,12.3093,-38.4293
295,1438345023842,51.622,11.0794,-39.27
296,1438345023862,50.0458,10.2005,-37.0834
297,1438345023882,50.0458,10.2005,-37.0834
298,1438345023904,51.4465,10.5515,-39.1006
299,1438345023922,52.1469,12.3093,-38.4293
300,1438345023941,52.1469,12.3093,-38.4293
301,1438345023960,51.9714,9.67255,-39.6057
302,1438345023981,50.5707,11.4304,-38.5971
303,1438345024002,50.5707,11.4304,-38.5971
304,1438345024021,51.2711,8.61816,-38.9328
305,1438345024040,51.2711,12.4863,-38.5971
306,1438345024061,51.2711,12.4863,-38.5971
307,1438345024078,51.7975,10.5515,-38.765
308,1438345024102,50.7462,12.6617,-37.7563
309,1438345024119,50.7462,12.6617,-37.7563
310,1438345024137,52.8488,11.2549,-38.765
311,1438345024159,52.1469,11.2549,-38.092
312,1438345024179,52.1469,11.2549,-38.092
313,1438345024201,50.2197,10.025,-38.5971
314,1438345024218,51.0956,10.9039,-38.4293
315,1438345024238,51.0956,10.9039,-38.4293
316,1438345024258,51.0956,10.2005,-37.4191
317,1438345024276,50.9216,11.7828,-38.5971
318,1438345024300,50.9216,11.7828,-38.5971
319,1438345024317,51.0956,10.5515,-38.4293
320,1438345024336,51.622,11.0794,-39.27
321,1438345024357,51.622,11.0794,-39.27
322,1438345024376,51.4465,10.9039,-38.4293
323,1438345024398,50.5707,12.4863,-38.2599
324,1438345024416,50.5707,12.4863,-38.2599
325,1438345024436,51.7975,10.9039,-38.092
326,1438345024454,50.2197,11.7828,-38.2599
327,1438345024476,50.2197,11.7828,-38.2599
328,1438345024497,51.9714,10.7285,-38.2599
329,1438345024515,52.6733,11.4304,-39.27
330,1438345024535,52.6733,11.4304,-39.27
331,1438345024555,50.7462,10.2005,-39.1006
332,1438345024574,51.0956,10.5515,-37.4191
333,1438345024593,51.0956,10.5515,-37.4191
334,1438345024614,51.2711,10.025,-37.5885
335,1438345024636,50.7462,11.2549,-38.092
336,1438345024654,50.7462,11.2549,-38.092
337,1438345024673,51.622,10.376,-39.6057
338,1438345024694,50.3952,9.84955,-38.4293
339,1438345024713,50.3952,9.84955,-38.4293
340,1438345024735,50.5707,9.67255,-39.27
341,1438345024753,50.7462,11.2549,-37.7563
342,1438345024771,50.7462,11.2549,-37.7563
343,1438345024793,50.7462,8.79364,-39.4379
344,1438345024811,51.622,11.0794,-38.5971
345,1438345024834,51.622,11.0794,-38.5971
346,1438345024852,51.4465,11.9583,-38.4293
347,1438345024871,51.9714,11.4304,-39.27
348,1438345024892,51.9714,11.4304,-39.27
349,1438345024909,51.622,9.67255,-38.5971
350,1438345024933,50.7462,11.2549,-37.4191
351,1438345024950,50.7462,11.2549,-37.4191
352,1438345024970,52.3224,8.61816,-39.27
353,1438345024991,51.2711,12.1338,-37.9242
354,1438345025016,51.2711,12.1338,-37.9242
355,1438345025031,51.0956,10.5515,-38.092
356,1438345025050,51.9714,12.4863,-39.27
357,1438345025069,51.9714,12.4863,-39.27
358,1438345025088,51.622,10.7285,-38.5971
359,1438345025109,51.622,11.0794,-37.9242
360,1438345025128,51.622,11.0794,-37.9242
361,1438345025148,50.9216,11.0794,-39.6057
362,1438345025168,50.9216,13.1882,-38.9328
363,1438345025189,50.9216,13.1882,-38.9328
364,1438345025208,50.7462,11.6074,-38.4293
365,1438345025229,50.0458,12.3093,-38.4293
366,1438345025247,50.0458,12.3093,-38.4293
367,1438345025266,52.3224,11.0794,-40.2786
368,1438345025287,50.5707,11.4304,-38.9328
369,1438345025307,50.5707,11.4304,-38.9328
370,1438345025326,52.3224,11.7828,-37.9242
371,1438345025346,51.7975,10.2005,-39.7736
372,1438345025366,51.7975,10.2005,-39.7736
373,1438345025386,51.4465,11.2549,-38.4293
374,1438345025404,50.0458,11.9583,-37.4191
375,1438345025425,50.0458,11.9583,-37.4191
376,1438345025444,51.7975,10.9039,-38.765
377,1438345025465,50.5707,11.4304,-37.9242
378,1438345025485,50.5707,11.4304,-37.9242
379,1438345025505,52.8488,11.6074,-38.4293
380,1438345025525,49.8703,11.7828,-37.2513
381,1438345025543,49.8703,11.7828,-37.2513
382,1438345025564,51.0956,11.2549,-39.4379
383,1438345025583,51.622,11.4304,-36.5784
384,1438345025604,51.622,11.4304,-36.5784
385,1438345025626,52.8488,13.0127,-38.092
386,1438345025643,51.4465,13.0127,-36.4105
387,1438345025662,51.4465,13.0127,-36.4105
388,1438345025683,52.8488,10.9039,-35.4019
389,1438345025702,53.7247,12.4863,-35.5698
390,1438345025721,53.7247,12.4863,-35.5698
391,1438345025742,53.8986,10.5515,-34.729
392,1438345025763,53.5492,11.6074,-33.3832
393,1438345025782,53.5492,11.6074,-33.3832
394,1438345025801,52.6733,9.67255,-32.8796
395,1438345025822,54.0741,10.7285,-32.2067
396,1438345025841,54.0741,10.7285,-32.2067
397,1438345025862,53.8986,8.09174,-33.3832
398,1438345025881,54.95,9.14612,-30.6931
399,1438345025900,54.95,9.14612,-30.6931
400,1438345025921,53.0228,8.61816,-32.2067
401,1438345025940,54.95,9.49707,-32.0389
402,1438345025962,54.95,9.49707,-32.0389
403,1438345025979,54.6005,8.79364,-33.0475
404,1438345025998,53.7247,10.7285,-31.5338
405,1438345026020,53.7247,10.7285,-31.5338
406,1438345026037,53.7247,7.91473,-32.8796
407,1438345026061,53.8986,9.84955,-32.3746
408,1438345026077,53.8986,9.84955,-32.3746
409,1438345026098,53.0228,5.80597,-33.5525
410,1438345026118,53.3737,6.86035,-32.5424
411,1438345026138,53.3737,6.86035,-32.5424
412,1438345026157,53.1982,5.63049,-32.7118
413,1438345026176,53.1982,5.27801,-33.3832
414,1438345026197,53.1982,5.27801,-33.3832
415,1438345026217,51.7975,4.22363,-33.7204
416,1438345026237,53.7247,3.34473,-31.871
417,1438345026259,53.7247,3.34473,-31.871
418,1438345026276,51.9714,2.99377,-31.5338
419,1438345026296,52.4979,3.16925,-31.7017
420,1438345026316,52.4979,3.16925,-31.7017
421,1438345026335,51.0956,1.41144,-32.7118
422,1438345026354,53.1982,0.357056,-30.3574
423,1438345026375,53.1982,0.357056,-30.3574
424,1438345026394,52.4979,-1.0498,-29.0115
425,1438345026414,53.7247,0.532532,-29.5166
426,1438345026435,53.7247,0.532532,-29.5166
427,1438345026455,53.3737,-1.57623,-28.8437
428,1438345026474,52.8488,0.00457764,-28.6758
429,1438345026492,52.8488,0.00457764,-28.6758
430,1438345026514,52.6733,-2.98309,-27.1622
431,1438345026533,54.6005,-2.10419,-27.6657
432,1438345026554,54.6005,-2.10419,-27.6657
433,1438345026573,51.7975,-2.45514,-28.0029
434,1438345026593,51.9714,-0.170898,-26.825
435,1438345026613,51.9714,-0.170898,-26.825
436,1438345026632,52.6733,-1.57623,-28.8437
437,1438345026654,54.6005,-1.0498,-24.9756
438,1438345026670,54.6005,-1.0498,-24.9756
439,1438345026692,54.6005,-1.0498,-25.6485
440,1438345026711,54.0741,-1.22528,-22.4533
441,1438345026731,54.0741,-1.22528,-22.4533
442,1438345026752,54.0741,-1.22528,-21.7804
443,1438345026771,54.0741,0.18158,-19.7632
444,1438345026791,54.0741,0.18158,-19.7632
445,1438345026809,54.95,-3.15857,-19.2581
446,1438345026830,53.7247,-2.98309,-16.0629
447,1438345026848,53.7247,-2.98309,-16.0629
448,1438345026870,54.95,-3.51105,-16.568
449,1438345026892,54.95,-2.10419,-13.8763
450,1438345026909,54.95,-2.10419,-13.8763
451,1438345026929,53.8986,-4.56543,-15.5579
452,1438345026950,53.5492,-4.21295,-17.2394
453,1438345026969,53.5492,-4.21295,-17.2394
454,1438345026987,51.622,-6.49872,-19.0903
455,1438345027009,50.9216,-8.60748,-22.789
456,1438345027027,50.9216,-8.60748,-22.789
457,1438345027048,48.6435,-11.2442,-23.6298
458,1438345027068,46.5408,-13.002,-25.9842
459,1438345027090,46.5408,-13.002,-25.9842
460,1438345027107,43.2129,-15.9912,-28.1708
461,1438345027126,41.9861,-16.8701,-28.6758
462,1438345027147,41.9861,-16.8701,-28.6758
463,1438345027166,38.4827,-19.6823,-28.3386
464,1438345027189,38.6566,-20.5612,-26.152
465,1438345027206,38.6566,-20.5612,-26.152
466,1438345027226,37.2559,-23.3734,-26.152
467,1438345027246,38.3072,-21.6156,-22.789
468,1438345027266,38.3072,-21.6156,-22.789
469,1438345027286,37.0804,-22.847,-18.9209
470,1438345027303,38.3072,-23.0225,-19.426
