id,attr_time,attr_x,attr_y,attr_z
1,1438345018071,7.643,-44.419,-5.259
2,1438345018072,7.643,-44.419,-5.259
3,1438345018073,7.643,-44.419,-5.259
4,1438345018099,7.643,-44.419,-5.259
5,1438345018111,7.643,-44.419,-5.259
6,1438345018132,7.643,-44.419,-5.259
7,1438345018150,7.643,-44.419,-5.259
8,1438345018174,7.643,-44.419,-5.259
9,1438345018194,7.643,-44.419,-5.259
10,1438345018213,7.643,-44.419,-5.259
11,1438345018234,7.643,-44.419,-5.259
12,1438345018253,7.643,-44.419,-5.259
13,1438345018273,7.643,-44.419,-5.259
14,1438345018294,7.643,-44.419,-5.259
15,1438345018313,7.643,-44.419,-5.259
16,1438345018331,7.643,-44.419,-5.259
17,1438345018353,7.643,-44.419,-5.259
18,1438345018371,7.643,-44.419,-5.259
19,1438345018417,7.643,-44.419,-5.259
20,1438345018418,7.643,-44.419,-5.259
21,1438345018434,7.643,-44.419,-5.259
22,1438345018453,7.643,-44.419,-5.259
23,1438345018477,7.643,-44.419,-5.259
24,1438345018495,7.643,-44.419,-5.259
25,1438345018512,7.643,-44.419,-5.259
26,1438345018531,7.643,-44.419,-5.259
27,1438345018551,7.643,-44.419,-4.954
28,1438345018574,7.643,-44.419,-4.954
29,1438345018597,7.643,-44.419,-4.954
30,1438345018658,7.643,-44.419,-4.954
31,1438345018659,7.643,-44.419,-4.954
32,1438345018660,7.643,-44.419,-4.954
33,1438345018672,7.643,-44.419,-4.954
34,1438345018692,7.643,-44.419,-4.954
35,1438345018711,7.643,-44.419,-4.954
36,1438345018731,7.643,-44.419,-4.954
37,1438345018754,7.643,-44.419,-4.954
38,1438345018771,7.643,-44.419,-4.954
39,1438345018792,7.643,-44.419,-4.954
40,1438345018813,7.643,-44.419,-4.954
41,1438345018832,7.643,-44.419,-4.954
42,1438345018854,7.643,-44.419,-4.954
43,1438345018875,7.643,-44.419,-4.954
44,1438345018895,7.643,-44.419,-4.954
45,1438345018917,7.643,-44.419,-4.954
46,1438345018934,7.643,-44.419,-4.954
47,1438345018953,7.643,-44.419,-4.954
48,1438345018974,7.643,-44.419,-4.954
49,1438345018994,7.643,-44.419,-4.954
50,1438345019016,7.643,-44.419,-4.954
51,1438345019032,7.643,-44.419,-4.954
52,1438345019061,7.643,-44.419,-4.954
53,1438345019077,7.643,-44.419,-4.954
54,1438345019094,7.643,-44.419,-4.954
55,1438345019111,7.643,-44.419,-4.954
56,1438345019135,7.643,-44.419,-4.954
57,1438345019155,7.643,-44.419,-4.954
58,1438345019172,7.643,-44.419,-4.954
59,1438345019192,7.643,-44.419,-5.299
60,1438345019213,7.643,-44.419,-5.299
61,1438345019238,7.643,-44.419,-5.299
62,1438345019254,7.643,-44.419,-5.299
63,1438345019274,7.643,-44.419,-5.299
64,1438345019292,7.643,-44.419,-5.299
65,1438345019321,7.643,-44.419,-5.299
66,1438345019387,7.643,-44.419,-5.299
67,1438345019388,7.643,-44.419,-5.299
68,1438345019391,7.643,-44.419,-5.299
69,1438345019392,7.643,-44.419,-5.299
70,1438345019415,7.643,-44.419,-5.299
71,1438345019432,7.643,-44.419,-5.299
72,1438345019451,7.643,-44.419,-5.299
73,1438345019472,7.643,-44.419,-5.299
74,1438345019492,7.643,-44.419,-5.299
75,1438345019518,7.643,-44.419,-5.299
76,1438345019540,7.643,-44.419,-5.299
77,1438345019553,7.643,-44.419,-5.299
78,1438345019572,7.643,-44.419,-5.299
79,1438345019595,7.643,-44.419,-5.299
80,1438345019615,7.643,-44.419,-5.299
81,1438345019636,7.643,-44.419,-5.299
82,1438345019655,7.643,-44.419,-5.299
83,1438345019675,7.643,-44.419,-5.299
84,1438345019695,7.643,-44.419,-5.299
85,1438345019715,7.643,-44.419,-5.299
86,1438345019736,7.643,-44.419,-5.299
87,1438345019756,7.955,-44.419,-5.299
88,1438345019772,7.955,-44.419,-5.299
89,1438345019795,7.955,-44.419,-5.299
90,1438345019815,7.955,-44.419,-5.299
91,1438345019835,7.955,-44.419,-5.299
92,1438345019855,7.955,-44.419,-5.299
93,1438345019875,7.955,-44.419,-5.299
94,1438345019896,7.955,-44.419,-5.299
95,1438345019915,7.955,-44.419,-5.299
96,1438345019936,7.955,-44.419,-5.299
97,1438345019955,7.955,-44.419,-5.299
98,1438345019976,7.955,-44.419,-5.299
99,1438345019996,7.955,-44.419,-5.299
100,1438345020015,7.955,-44.419,-5.299
101,1438345020036,7.955,-44.419,-5.299
102,1438345020121,7.955,-44.419,-5.299
103,1438345020143,7.955,-44.419,-5.299
104,1438345020144,7.955,-44.419,-5.299
105,1438345020145,7.955,-44.419,-5.299
106,1438345020146,7.955,-44.419,-5.299
107,1438345020157,7.955,-44.419,-5.299
108,1438345020176,7.955,-44.419,-5.299
109,1438345020195,7.955,-44.419,-5.299
110,1438345020212,7.955,-44.419,-5.299
111,1438345020237,7.955,-44.419,-5.299
112,1438345020254,7.955,-44.419,-5.299
113,1438345020274,7.955,-44.419,-4.966
114,1438345020296,7.955,-44.419,-4.966
115,1438345020313,7.955,-44.419,-4.966
116,1438345020336,7.955,-44.419,-4.966
117,1438345020356,7.955,-44.419,-4.966
118,1438345020375,7.955,-44.419,-4.966
119,1438345020396,7.955,-44.419,-4.966
120,1438345020419,7.955,-44.419,-4.966
121,1438345020435,7.955,-44.419,-4.966
122,1438345020456,7.955,-44.419,-4.966
123,1438345020476,7.955,-44.419,-4.966
124,1438345020496,7.955,-44.419,-4.966
125,1438345020516,7.955,-44.419,-4.966
126,1438345020535,7.955,-44.419,-4.966
127,1438345020556,7.955,-44.419,-4.966
128,1438345020576,7.955,-44.419,-4.966
129,1438345020595,7.955,-44.419,-4.966
130,1438345020615,7.955,-44.419,-4.966
131,1438345020633,7.955,-44.419,-4.966
132,1438345020657,7.955,-44.419,-4.966
133,1438345020677,7.955,-44.419,-4.966
134,1438345020697,7.955,-44.419,-4.966
135,1438345020716,7.955,-44.419,-4.966
136,1438345020735,7.955,-44.419,-4.966
137,1438345020755,7.955,-44.419,-4.966
138,1438345020774,7.955,-44.419,-5.271
139,1438345020793,7.955,-44.419,-5.271
140,1438345020874,7.955,-44.419,-5.271
141,1438345020875,7.955,-44.419,-5.271
142,1438345020876,7.955,-44.419,-5.271
143,1438345020877,7.955,-44.419,-5.271
144,1438345020895,7.955,-44.419,-5.271
145,1438345020914,7.955,-44.419,-5.271
146,1438345020934,7.955,-44.419,-5.271
147,1438345020959,7.955,-44.419,-5.271
148,1438345020974,7.955,-44.419,-5.271
149,1438345020994,7.955,-44.419,-5.271
150,1438345021015,7.955,-44.419,-5.271
151,1438345021033,7.955,-44.419,-5.271
152,1438345021059,7.955,-44.419,-5.271
153,1438345021079,7.955,-44.419,-5.271
154,1438345021096,7.955,-44.419,-5.271
155,1438345021115,7.955,-44.419,-5.271
156,1438345021136,7.955,-44.419,-5.271
157,1438345021153,7.955,-44.419,-5.271
158,1438345021176,7.955,-44.419,-5.271
159,1438345021196,7.955,-44.419,-5.271
160,1438345021217,7.955,-44.419,-5.271
161,1438345021237,7.955,-44.419,-5.271
162,1438345021258,7.955,-44.419,-5.271
163,1438345021274,7.955,-44.419,-5.271
164,1438345021297,7.955,-44.419,-5.271
165,1438345021318,7.955,-44.419,-5.271
166,1438345021337,7.955,-44.419,-5.271
167,1438345021357,7.955,-44.419,-5.271
168,1438345021377,7.955,-44.419,-5.271
169,1438345021396,7.955,-44.419,-5.271
170,1438345021416,7.955,-44.419,-5.271
171,1438345021436,7.955,-44.419,-5.271
172,1438345021458,7.955,-44.419,-5.271
173,1438345021478,7.955,-44.419,-5.271
174,1438345021499,7.955,-44.419,-5.271
175,1438345021515,7.955,-44.419,-5.271
176,1438345021599,7.955,-44.419,-5.271
177,1438345021600,7.955,-44.419,-5.271
178,1438345021601,7.652,-44.419,-5.271
179,1438345021602,7.652,-44.419,-5.271
180,1438345021614,7.652,-44.419,-5.271
181,1438345021634,7.652,-44.419,-5.271
182,1438345021654,7.652,-44.419,-5.271
183,1438345021678,7.652,-44.419,-5.271
184,1438345021695,7.652,-44.419,-5.271
185,1438345021716,7.652,-44.419,-5.271
186,1438345021740,7.652,-44.419,-4.957
187,1438345021755,7.652,-44.419,-4.957
188,1438345021777,7.652,-44.419,-4.957
189,1438345021795,7.652,-44.419,-4.957
190,1438345021817,7.652,-44.419,-4.957
191,1438345021837,7.652,-44.419,-4.957
192,1438345021854,7.652,-44.419,-4.957
193,1438345021874,7.652,-44.419,-4.957
194,1438345021895,7.652,-44.419,-4.957
195,1438345021914,7.652,-44.419,-4.957
196,1438345021937,7.652,-44.419,-4.957
197,1438345021958,7.652,-44.419,-4.957
198,1438345021975,7.652,-44.419,-4.957
199,1438345021997,7.652,-44.419,-4.957
200,1438345022017,7.652,-44.419,-4.957
201,1438345022038,7.652,-44.419,-4.957
202,1438345022055,7.652,-44.419,-4.957
203,1438345022076,7.652,-44.419,-4.957
204,1438345022104,7.652,-44.419,-4.957
205,1438345022118,7.652,-44.419,-4.957
206,1438345022140,7.652,-44.419,-4.957
207,1438345022158,7.652,-44.419,-5.288
208,1438345022178,7.652,-44.419,-5.288
209,1438345022196,7.652,-44.419,-5.288
210,1438345022216,7.652,-44.419,-5.288
211,1438345022244,7.652,-44.419,-5.288
212,1438345022257,7.652,-44.419,-5.288
213,1438345022299,7.652,-44.419,-5.288
214,1438345022300,7.652,-44.419,-5.288
215,1438345022321,7.652,-44.419,-5.288
216,1438345022334,7.652,-44.419,-5.288
217,1438345022356,7.652,-44.419,-5.288
218,1438345022374,7.652,-44.419,-5.288
219,1438345022395,7.652,-44.419,-5.288
220,1438345022418,7.652,-44.419,-5.288
221,1438345022434,7.652,-44.419,-5.288
222,1438345022456,7.652,-44.419,-5.288
223,1438345022475,7.652,-44.419,-5.288
224,1438345022498,7.652,-44.419,-5.288
225,1438345022516,7.652,-44.419,-5.288
226,1438345022538,7.652,-44.419,-5.288
227,1438345022558,7.652,-44.419,-5.288
228,1438345022578,7.652,-44.419,-5.288
229,1438345022598,7.652,-44.419,-5.288
230,1438345022618,7.652,-44.419,-5.288
231,1438345022638,7.652,-44.419,-5.288
232,1438345022658,7.652,-44.419,-5.288
233,1438345022678,7.652,-44.419,-5.288
234,1438345022699,7.652,-44.419,-5.288
235,1438345022714,7.652,-44.419,-5.288
236,1438345022737,7.652,-44.419,-5.288
237,1438345022758,7.652,-44.419,-5.288
238,1438345022778,7.652,-44.419,-5.288
239,1438345022799,7.652,-44.419,-5.288
240,1438345022818,7.652,-44.419,-5.288
241,1438345022838,7.652,-44.419,-5.288
242,1438345022857,7.652,-44.419,-5.288
243,1438345022878,7.652,-44.419,-5.288
244,1438345022898,7.652,-44.419,-5.288
245,1438345022918,7.652,-44.419,-5.288
246,1438345022939,7.652,-44.419,-5.288
247,1438345022956,7.652,-44.419,-5.288
248,1438345022979,7.652,-44.419,-5.288
249,1438345023070,7.652,-44.419,-5.288
250,1438345023071,7.652,-44.419,-5.288
251,1438345023072,7.652,-44.419,-5.288
252,1438345023073,7.652,-44.419,-5.288
253,1438345023077,7.652,-44.419,-5.288
254,1438345023120,7.652,-44.419,-5.288
255,1438345023121,7.652,-44.419,-5.288
256,1438345023137,7.652,-44.419,-5.288
257,1438345023155,7.652,-44.419,-5.288
258,1438345023176,7.652,-44.419,-5.288
259,1438345023206,7.652,-44.419,-5.288
260,1438345023225,7.652,-44.419,-5.288
261,1438345023245,7.652,-44.419,-5.288
262,1438345023266,7.652,-44.419,-5.288
263,1438345023276,7.652,-44.419,-5.288
264,1438345023295,7.652,-44.419,-5.288
265,1438345023317,7.652,-44.419,-5.288
266,1438345023336,7.652,-44.419,-5.288
267,1438345023356,7.652,-44.419,-5.288
268,1438345023376,7.652,-44.419,-5.288
269,1438345023395,7.652,-44.419,-5.288
270,1438345023415,7.652,-44.419,-5.288
271,1438345023434,7.652,-44.419,-5.288
272,1438345023460,7.652,-44.419,-5.288
273,1438345023474,7.652,-44.419,-5.288
274,1438345023494,7.652,-44.419,-5.288
275,1438345023514,7.652,-44.419,-5.288
276,1438345023534,7.652,-44.419,-5.288
277,1438345023554,7.652,-44.419,-5.288
278,1438345023574,7.652,-44.419,-5.288
279,1438345023594,7.652,-44.419,-5.288
280,1438345023617,7.652,-44.419,-5.288
281,1438345023635,7.652,-44.419,-5.288
282,1438345023654,7.652,-44.419,-5.288
283,1438345023674,7.313,-44.419,-5.288
284,1438345023694,7.313,-44.419,-5.288
285,1438345023714,7.313,-44.419,-4.986
286,1438345023735,7.313,-44.419,-4.986
287,1438345023754,7.313,-44.419,-4.986
288,1438345023774,7.313,-44.419,-4.986
289,1438345023794,7.313,-44.419,-4.986
290,1438345023814,7.313,-44.419,-4.986
291,1438345023834,7.313,-44.419,-4.986
292,1438345023854,7.313,-44.419,-4.986
293,1438345023874,7.313,-44.419,-4.986
294,1438345023894,7.313,-44.419,-4.986
295,1438345023914,7.313,-44.419,-4.986
296,1438345023935,7.313,-44.419,-4.986
297,1438345023955,7.313,-44.419,-4.986
298,1438345023977,7.313,-44.419,-4.986
299,1438345023996,7.313,-44.419,-4.986
300,1438345024016,7.313,-44.419,-4.986
301,1438345024036,7.313,-44.419,-4.986
302,1438345024056,7.313,-44.419,-4.986
303,1438345024076,7.313,-44.419,-4.986
304,1438345024096,7.313,-44.419,-4.986
305,1438345024115,7.615,-44.419,-4.986
306,1438345024135,7.615,-44.419,-4.986
307,1438345024155,7.615,-44.419,-5.307
308,1438345024178,7.615,-44.419,-5.307
309,1438345024200,7.615,-44.419,-5.307
310,1438345024220,7.615,-44.419,-5.307
311,1438345024238,7.615,-44.419,-5.307
312,1438345024256,7.615,-44.419,-5.307
313,1438345024276,7.615,-44.419,-5.307
314,1438345024296,7.615,-44.419,-5.307
315,1438345024319,7.615,-44.419,-5.307
316,1438345024381,7.615,-44.419,-5.307
317,1438345024382,7.615,-44.419,-5.307
318,1438345024383,7.615,-44.419,-5.307
319,1438345024401,7.615,-44.419,-5.307
320,1438345024418,7.615,-44.419,-5.307
321,1438345024437,7.615,-44.419,-5.307
322,1438345024457,7.615,-44.419,-5.307
323,1438345024476,7.615,-44.419,-5.307
324,1438345024498,7.615,-44.419,-5.307
325,1438345024516,7.615,-44.419,-5.307
326,1438345024541,7.615,-44.419,-5.307
327,1438345024558,7.615,-44.419,-5.307
328,1438345024578,7.615,-44.419,-5.307
329,1438345024598,7.615,-44.419,-5.307
330,1438345024618,7.615,-44.419,-5.307
331,1438345024639,7.615,-44.419,-5.307
332,1438345024660,7.615,-44.419,-5.307
333,1438345024680,7.615,-44.419,-5.307
334,1438345024700,7.615,-44.419,-5.307
335,1438345024720,7.615,-44.419,-5.307
336,1438345024742,7.615,-44.419,-5.307
337,1438345024759,7.615,-44.419,-5.307
338,1438345024780,7.615,-44.419,-5.307
339,1438345024798,7.615,-44.419,-5.307
340,1438345024820,7.615,-44.419,-5.307
341,1438345024839,7.615,-44.419,-5.307
342,1438345024859,7.615,-44.419,-5.307
343,1438345024877,7.615,-44.419,-5.307
344,1438345024900,7.615,-44.419,-5.307
345,1438345024921,7.615,-44.419,-5.307
346,1438345024941,7.615,-44.419,-5.307
347,1438345024959,7.615,-44.419,-5.307
348,1438345024977,7.615,-44.419,-5.307
349,1438345024998,7.615,-44.419,-5.307
350,1438345025019,7.615,-44.419,-5.307
351,1438345025054,7.615,-44.419,-5.307
352,1438345025150,7.615,-44.419,-5.307
353,1438345025151,7.615,-44.419,-5.307
354,1438345025152,7.615,-44.419,-5.307
355,1438345025153,7.615,-44.419,-5.307
356,1438345025154,7.615,-44.419,-5.307
357,1438345025168,7.615,-44.419,-5.307
358,1438345025182,7.615,-44.419,-5.307
359,1438345025200,7.615,-44.419,-5.307
360,1438345025217,7.615,-44.419,-5.307
361,1438345025242,7.615,-44.419,-5.307
362,1438345025269,7.615,-44.419,-5.307
363,1438345025278,7.615,-44.419,-5.307
364,1438345025303,7.615,-44.419,-5.307
365,1438345025318,7.615,-44.419,-5.307
366,1438345025340,7.615,-44.419,-5.307
367,1438345025359,7.615,-44.419,-5.307
368,1438345025379,7.615,-44.419,-5.307
369,1438345025400,7.615,-44.419,-5.307
370,1438345025420,7.615,-44.419,-5.307
371,1438345025440,7.615,-44.419,-5.307
372,1438345025460,7.615,-44.419,-5.307
373,1438345025481,7.615,-44.419,-5.307
374,1438345025501,7.615,-44.419,-5.307
375,1438345025520,7.615,-44.419,-5.307
376,1438345025540,7.615,-44.419,-5.307
377,1438345025559,7.615,-44.419,-5.307
378,1438345025581,7.615,-44.419,-5.307
379,1438345025601,7.615,-44.419,-5.307
380,1438345025621,7.615,-44.419,-5.307
381,1438345025639,7.615,-44.419,-5.307
382,1438345025659,7.615,-44.419,-5.307
383,1438345025681,7.615,-44.419,-5.307
384,1438345025699,7.615,-44.419,-5.307
385,1438345025719,7.615,-44.419,-4.981
386,1438345025739,7.615,-44.419,-4.981
387,1438345025759,7.615,-44.419,-4.981
388,1438345025778,7.615,-44.419,-4.981
389,1438345025804,7.615,-44.419,-4.672
390,1438345025863,7.615,-44.419,-4.672
391,1438345025864,7.615,-44.419,-4.672
392,1438345025865,7.615,-44.419,-4.321
393,1438345025880,7.615,-44.419,-4.321
394,1438345025908,7.615,-44.419,-4.321
395,1438345025920,7.615,-44.419,-3.984
396,1438345025938,7.615,-44.419,-3.984
397,1438345025959,7.296,-44.419,-3.984
398,1438345025979,7.296,-44.419,-3.52
399,1438345025999,7.296,-44.419,-3.52
400,1438345026019,7.296,-44.419,-3.175
401,1438345026040,7.296,-44.419,-3.175
402,1438345026060,7.296,-44.419,-2.761
403,1438345026078,6.938,-44.419,-2.194
404,1438345026100,6.938,-44.419,-2.194
405,1438345026119,6.938,-44.419,-1.631
406,1438345026140,6.938,-44.419,-1.231
407,1438345026160,6.938,-44.419,-1.231
408,1438345026180,6.938,-44.419,-1.231
409,1438345026201,6.938,-44.419,-0.628
410,1438345026221,6.938,-44.419,-0.628
411,1438345026245,6.938,-44.419,-0.628
412,1438345026261,6.938,-44.419,-0.27
413,1438345026279,6.938,-44.419,-0.27
414,1438345026299,6.938,-44.419,-0.27
415,1438345026321,6.938,-44.419,-0.27
416,1438345026339,6.938,-44.419,-0.27
417,1438345026361,6.938,-44.419,0.245
418,1438345026380,6.938,-44.419,0.245
419,1438345026399,6.938,-44.419,0.61
420,1438345026422,6.938,-44.419,0.61
421,1438345026448,6.938,-44.419,0.61
422,1438345026459,6.938,-44.419,1.023
423,1438345026480,6.938,-44.419,1.023
424,1438345026508,6.938,-44.419,1.023
425,1438345026565,6.938,-44.419,1.373
426,1438345026566,6.628,-44.419,1.373
427,1438345026567,6.628,-44.419,1.373
428,1438345026587,6.628,-44.419,1.373
429,1438345026598,5.751,-44.419,1.373
430,1438345026621,4.887,-44.419,1.373
431,1438345026640,4.18,-44.741,1.373
432,1438345026658,3.263,-44.741,1.373
433,1438345026679,2.644,-44.741,1.373
434,1438345026699,2.172,-44.741,1.373
435,1438345026720,1.535,-44.741,0.308
436,1438345026739,0.697,-44.741,-0.523
437,1438345026760,0.0,-44.741,-1.058
438,1438345026780,-0.871,-44.741,-2.079
439,1438345026802,-2.21,-44.741,-3.475
440,1438345026819,-3.189,-44.741,-4.368
441,1438345026839,-4.556,-44.741,-5.522
442,1438345026859,-5.917,-44.741,-7.034
443,1438345026879,-7.003,-44.741,-9.149
444,1438345026900,-8.85,-44.741,-11.174
445,1438345026920,-10.803,-44.741,-13.562
446,1438345026940,-12.734,-43.461,-15.353
447,1438345026960,-15.025,-40.446,-17.584
448,1438345026980,-17.117,-37.243,-20.211
449,1438345027001,-19.1,-34.561,-21.94
450,1438345027021,-21.733,-31.21,-23.776
451,1438345027045,-23.738,-27.331,-25.157
452,1438345027061,-25.914,-23.42,-25.697
453,1438345027084,-28.015,-20.233,-26.237
454,1438345027104,-29.698,-16.775,-26.696
455,1438345027125,-30.012,-13.464,-27.751
456,1438345027141,-30.409,-10.075,-28.697
457,1438345027160,-30.409,-7.061,-29.489
458,1438345027181,-29.443,-4.44,-29.913
459,1438345027201,-29.061,-1.428,-31.405
460,1438345027229,-29.061,1.631,-31.405
461,1438345027282,-29.061,3.793,-30.83
462,1438345027283,-29.061,6.051,-30.285
463,1438345027284,-29.595,8.384,-29.331
464,1438345027300,-29.595,10.133,-28.129
465,1438345027320,-30.276,11.474,-27.412
466,1438345027344,-30.276,12.734,-26.962
467,1438345027362,-30.276,13.52,-26.962
468,1438345027380,-31.231,14.128,-25.334
469,1438345027399,-31.658,14.128,-24.783
470,1438345027419,-31.658,14.837,-23.687
471,1438345027451,-30.862,15.629,-23.687
472,1438345027459,-30.424,16.532,-24.078
473,1438345027479,-30.424,16.845,-24.078
474,1438345027500,-30.424,17.433,-24.078
475,1438345027519,-30.424,18.099,-23.699
476,1438345027539,-30.424,18.466,-23.1
477,1438345027560,-30.424,18.466,-22.737
478,1438345027580,-30.783,18.849,-22.212
479,1438345027599,-30.783,19.245,-21.16
480,1438345027630,-31.1,19.609,-19.804
481,1438345027640,-31.1,19.241,-18.721
482,1438345027660,-31.517,19.241,-17.935
483,1438345027747,-31.517,19.241,-17.277
484,1438345027748,-31.944,19.241,-16.525
485,1438345027749,-32.266,19.241,-15.66
486,1438345027750,-32.646,19.241,-15.66
487,1438345027759,-32.646,19.241,-16.075
488,1438345027780,-32.957,19.241,-16.075
489,1438345027800,-32.957,19.241,-16.075
490,1438345027821,-32.957,19.241,-16.761
491,1438345027842,-32.957,19.241,-17.552
492,1438345027863,-32.957,19.241,-17.552
493,1438345027881,-33.262,19.598,-17.552
494,1438345027901,-33.262,19.598,-17.132
495,1438345027920,-33.262,19.598,-16.77
496,1438345027941,-33.718,19.598,-16.77
497,1438345027960,-33.718,19.598,-16.77
498,1438345027983,-34.228,16.822,-16.77
499,1438345028002,-34.846,14.326,-16.77
500,1438345028019,-37.187,11.485,-16.201
501,1438345028039,-39.268,8.975,-14.935
502,1438345028059,-40.588,5.358,-13.047
503,1438345028082,-41.253,1.799,-11.398
504,1438345028103,-42.42,-2.252,-8.54
505,1438345028120,-42.42,-6.449,-5.119
506,1438345028143,-42.42,-10.151,0.34
507,1438345028164,-41.4,-13.868,4.595
508,1438345028185,-40.225,-16.58,4.595
509,1438345028201,-37.962,-20.46,5.863
510,1438345028224,-36.216,-24.194,8.953
511,1438345028244,-33.433,-27.186,11.863
512,1438345028264,-29.946,-28.776,14.651
