id,attr_time,attr_x,attr_y,attr_z
1,1437145182034,18.652,-34.854,-18.661
2,1437145182054,18.652,-34.854,-18.661
3,1437145182074,18.652,-34.854,-18.661
4,1437145182096,18.652,-34.854,-18.661
5,1437145182113,18.652,-34.854,-18.661
6,1437145182134,18.652,-34.854,-18.661
7,1437145182156,18.652,-34.854,-18.661
8,1437145182176,18.652,-34.854,-18.661
9,1437145182196,18.652,-34.854,-18.661
10,1437145182214,18.652,-34.533,-18.661
11,1437145182234,18.652,-34.533,-19.001
12,1437145182256,18.652,-34.533,-19.001
13,1437145182275,18.652,-34.533,-19.001
14,1437145182296,18.652,-34.533,-19.001
15,1437145182315,18.652,-34.197,-19.001
16,1437145182335,18.652,-34.197,-19.001
17,1437145182355,18.336,-34.197,-19.001
18,1437145182375,18.336,-34.197,-19.001
19,1437145182397,18.336,-33.88,-19.001
20,1437145182419,18.336,-33.88,-19.001
21,1437145182437,18.006,-33.88,-19.001
22,1437145182457,18.006,-33.88,-19.001
23,1437145182474,18.006,-33.88,-19.001
24,1437145182495,18.006,-33.88,-19.001
25,1437145182516,18.006,-33.88,-19.001
26,1437145182544,18.006,-33.88,-19.001
27,1437145182646,18.006,-33.88,-19.001
28,1437145182647,18.006,-33.88,-19.001
29,1437145182658,18.006,-33.88,-19.001
30,1437145182659,18.006,-33.88,-19.001
31,1437145182660,18.006,-33.573,-19.001
32,1437145182661,18.006,-33.573,-19.001
33,1437145182703,18.006,-33.573,-19.001
34,1437145182706,18.006,-33.573,-19.309
35,1437145182765,18.006,-33.573,-19.309
36,1437145182766,18.006,-33.573,-19.309
37,1437145182767,18.006,-33.573,-19.309
38,1437145182775,18.006,-33.573,-19.309
39,1437145182800,18.006,-33.573,-19.309
40,1437145182814,18.006,-33.573,-19.309
41,1437145182842,18.006,-33.573,-19.309
42,1437145182869,18.006,-33.573,-19.309
43,1437145182874,18.006,-33.573,-19.309
44,1437145182894,18.006,-33.573,-19.309
45,1437145182914,18.006,-33.573,-19.309
46,1437145182934,18.006,-33.573,-19.309
47,1437145183084,18.006,-33.573,-19.309
48,1437145183085,18.006,-33.573,-19.309
49,1437145183086,18.006,-33.573,-19.309
50,1437145183087,18.006,-33.573,-19.309
51,1437145183088,18.006,-33.573,-19.309
52,1437145183089,18.006,-33.573,-19.309
53,1437145183090,18.006,-33.573,-19.309
54,1437145183121,18.006,-33.573,-19.309
55,1437145183122,18.006,-33.573,-19.309
56,1437145183141,18.006,-33.224,-19.309
57,1437145183156,18.006,-33.224,-19.309
58,1437145183178,18.006,-33.224,-19.309
59,1437145183193,18.006,-33.224,-19.309
60,1437145183213,18.006,-33.224,-19.309
61,1437145183233,18.006,-33.224,-19.309
62,1437145183255,18.006,-33.224,-19.309
63,1437145183273,18.006,-33.224,-19.309
64,1437145183292,17.694,-33.224,-19.627
65,1437145183313,17.694,-33.224,-19.627
66,1437145183333,17.694,-33.224,-19.627
67,1437145183353,17.694,-33.224,-19.627
68,1437145183373,17.694,-33.224,-19.627
69,1437145183393,17.694,-33.224,-19.627
70,1437145183413,18.0,-33.224,-19.627
71,1437145183433,18.0,-33.224,-19.627
72,1437145183453,18.0,-33.224,-19.627
73,1437145183473,18.0,-33.224,-19.627
74,1437145183493,18.353,-33.224,-19.627
75,1437145183513,18.353,-33.224,-19.627
76,1437145183533,18.675,-33.224,-19.627
77,1437145183555,18.675,-33.224,-19.627
78,1437145183577,18.675,-33.557,-19.627
79,1437145183596,19.09,-33.557,-19.627
80,1437145183613,19.09,-33.557,-19.627
81,1437145183637,19.09,-33.557,-19.627
82,1437145183657,19.48,-33.557,-19.627
83,1437145183677,19.48,-33.557,-19.627
84,1437145183697,19.48,-33.557,-19.627
85,1437145183716,19.48,-33.557,-19.627
86,1437145183737,19.48,-33.557,-19.627
87,1437145183758,19.48,-33.86,-19.627
88,1437145183774,19.801,-33.86,-19.627
89,1437145183794,19.801,-33.86,-19.627
90,1437145183814,19.801,-33.86,-19.627
91,1437145183834,19.801,-33.86,-19.627
92,1437145183856,19.801,-33.86,-19.627
93,1437145183885,19.801,-33.86,-19.627
94,1437145183948,19.801,-33.86,-19.627
95,1437145183949,19.801,-33.86,-19.627
96,1437145183950,19.801,-33.86,-19.627
97,1437145183955,19.801,-33.86,-19.627
98,1437145183974,19.801,-33.529,-19.627
99,1437145183994,19.43,-33.529,-19.627
100,1437145184013,19.43,-33.529,-19.627
101,1437145184033,19.43,-33.529,-19.627
102,1437145184053,19.43,-33.529,-19.627
103,1437145184073,19.43,-33.529,-19.627
104,1437145184093,19.43,-33.529,-19.627
105,1437145184113,19.43,-33.529,-19.627
106,1437145184133,19.43,-33.529,-19.627
107,1437145184153,19.43,-33.529,-19.627
108,1437145184173,19.43,-33.529,-19.627
109,1437145184193,19.43,-33.529,-19.627
110,1437145184213,19.43,-33.529,-19.627
111,1437145184234,19.114,-33.529,-19.627
112,1437145184253,19.114,-33.529,-19.627
113,1437145184276,19.114,-33.529,-19.627
114,1437145184298,19.114,-33.529,-19.627
115,1437145184317,19.114,-33.529,-19.627
116,1437145184337,19.114,-33.529,-19.627
117,1437145184356,19.114,-33.529,-19.627
118,1437145184375,19.114,-33.529,-19.627
119,1437145184396,19.433,-33.529,-19.929
120,1437145184416,19.433,-33.529,-19.929
121,1437145184438,19.433,-33.529,-19.929
122,1437145184458,19.433,-33.529,-19.929
123,1437145184477,19.433,-33.529,-19.929
124,1437145184518,19.433,-33.207,-19.929
125,1437145184519,19.433,-33.207,-19.929
126,1437145184538,19.433,-33.207,-19.929
127,1437145184556,19.433,-33.207,-19.929
128,1437145184580,19.433,-33.207,-19.929
129,1437145184596,19.752,-33.207,-19.929
130,1437145184617,19.752,-32.899,-19.929
131,1437145184642,19.752,-32.899,-19.929
132,1437145184657,19.752,-32.899,-19.929
133,1437145184681,19.752,-32.899,-19.929
134,1437145184698,20.086,-32.899,-19.929
135,1437145184717,20.086,-32.899,-19.929
136,1437145184735,20.086,-32.899,-19.929
137,1437145184759,20.086,-32.899,-19.929
138,1437145184778,20.086,-32.899,-19.929
139,1437145184799,20.086,-32.899,-19.929
140,1437145184819,20.429,-32.899,-19.929
141,1437145184839,20.429,-32.899,-19.929
142,1437145184859,20.429,-32.899,-19.929
143,1437145184878,20.429,-32.899,-19.929
144,1437145184899,20.429,-32.899,-19.929
145,1437145184916,20.429,-33.207,-19.929
146,1437145184944,20.429,-33.207,-19.929
147,1437145184959,20.429,-33.207,-19.929
148,1437145184978,20.429,-33.207,-19.929
149,1437145184999,20.429,-33.207,-19.929
150,1437145185019,20.429,-33.207,-19.929
151,1437145185039,20.429,-33.207,-19.929
152,1437145185059,20.429,-33.207,-19.929
153,1437145185079,20.429,-33.207,-19.929
154,1437145185098,20.429,-33.207,-19.929
155,1437145185119,20.429,-33.207,-19.929
156,1437145185139,20.429,-33.207,-19.929
157,1437145185159,20.429,-33.207,-19.929
158,1437145185178,20.429,-33.207,-19.929
159,1437145185206,20.429,-33.207,-19.929
160,1437145185281,20.429,-33.207,-19.929
161,1437145185282,20.429,-33.207,-19.929
162,1437145185283,20.429,-33.207,-19.929
163,1437145185284,20.429,-33.207,-19.929
164,1437145185296,20.429,-33.207,-19.929
165,1437145185318,20.429,-33.207,-19.929
166,1437145185336,20.429,-33.207,-19.929
167,1437145185368,20.429,-33.207,-19.929
168,1437145185376,20.429,-33.207,-19.929
169,1437145185398,20.429,-33.207,-19.929
170,1437145185422,20.429,-33.207,-19.929
171,1437145185437,20.429,-33.207,-19.929
172,1437145185462,20.429,-33.207,-19.929
173,1437145185480,20.755,-33.207,-19.929
174,1437145185503,20.755,-33.207,-20.26
175,1437145185519,20.755,-33.207,-20.26
176,1437145185540,20.755,-33.207,-20.26
177,1437145185558,20.755,-33.207,-20.26
178,1437145185579,20.755,-33.207,-20.26
179,1437145185606,20.755,-32.841,-20.26
180,1437145185621,20.755,-32.841,-20.26
181,1437145185642,21.063,-32.841,-20.26
182,1437145185660,21.063,-32.449,-20.26
183,1437145185677,21.063,-32.449,-20.619
184,1437145185697,21.063,-32.147,-20.619
185,1437145185725,21.063,-32.147,-20.619
186,1437145185743,21.063,-32.147,-20.619
187,1437145185757,21.397,-31.614,-20.619
188,1437145185777,21.397,-31.614,-20.619
189,1437145185797,21.397,-31.614,-20.932
190,1437145185844,21.752,-31.278,-20.932
191,1437145185845,21.752,-31.278,-20.932
192,1437145185857,21.752,-30.964,-20.932
193,1437145185877,22.116,-30.964,-20.932
194,1437145185900,22.116,-30.615,-20.932
195,1437145185917,22.116,-30.615,-20.932
196,1437145186003,22.116,-30.287,-20.932
197,1437145186004,22.496,-30.287,-20.932
198,1437145186005,22.496,-30.287,-20.932
199,1437145186006,22.839,-29.917,-20.932
200,1437145186062,22.839,-29.917,-20.932
201,1437145186063,23.182,-29.917,-20.932
202,1437145186064,23.182,-29.917,-20.932
203,1437145186078,23.551,-29.583,-20.932
204,1437145186097,23.551,-29.583,-20.932
205,1437145186116,23.878,-29.583,-20.932
206,1437145186136,23.878,-29.583,-20.932
207,1437145186158,23.878,-29.222,-20.932
208,1437145186177,23.878,-29.222,-20.932
209,1437145186200,23.878,-29.222,-20.932
210,1437145186220,23.878,-29.222,-20.932
211,1437145186240,23.878,-28.855,-21.247
212,1437145186259,23.878,-28.855,-21.247
213,1437145186280,23.878,-28.855,-21.247
214,1437145186299,23.878,-28.855,-21.247
215,1437145186320,23.878,-28.855,-21.247
216,1437145186340,23.878,-28.855,-21.247
217,1437145186357,23.878,-28.855,-21.247
218,1437145186379,23.53,-29.22,-21.247
219,1437145186398,23.008,-29.763,-21.247
220,1437145186420,22.378,-30.455,-21.247
221,1437145186438,22.378,-30.897,-21.247
222,1437145186460,21.369,-31.204,-21.568
223,1437145186476,21.369,-31.611,-21.568
224,1437145186501,20.649,-32.081,-21.568
225,1437145186521,20.649,-32.081,-21.568
226,1437145186541,20.309,-32.081,-21.568
227,1437145186561,20.309,-32.081,-21.568
228,1437145186577,20.309,-32.435,-21.568
229,1437145186599,19.796,-32.435,-21.568
230,1437145186719,19.796,-32.435,-21.568
231,1437145186720,19.796,-32.435,-21.568
232,1437145186721,19.429,-32.435,-21.568
233,1437145186722,18.872,-32.435,-21.568
234,1437145186723,18.408,-32.435,-21.568
235,1437145186724,18.408,-32.435,-21.568
236,1437145186754,18.408,-32.435,-21.568
237,1437145186758,18.408,-32.751,-21.568
238,1437145186787,18.408,-32.751,-21.568
239,1437145186800,18.011,-32.751,-21.568
240,1437145186822,18.011,-32.751,-21.568
241,1437145186838,18.011,-32.751,-21.568
242,1437145186858,17.691,-32.751,-21.568
243,1437145186881,17.691,-32.751,-21.568
244,1437145186919,17.691,-32.751,-21.568
245,1437145186920,17.691,-32.751,-21.568
246,1437145186951,17.358,-33.097,-21.568
247,1437145186958,17.358,-33.097,-21.568
248,1437145186985,17.358,-33.097,-21.257
249,1437145186999,17.358,-33.097,-21.257
250,1437145187018,17.025,-33.097,-21.257
251,1437145187038,17.025,-33.444,-21.257
252,1437145187069,17.025,-33.444,-21.257
253,1437145187077,17.025,-33.444,-21.257
254,1437145187096,17.025,-33.787,-21.257
255,1437145187117,17.025,-33.787,-20.915
256,1437145187136,16.714,-33.787,-20.915
257,1437145187157,16.714,-34.179,-20.915
258,1437145187176,16.714,-34.179,-20.915
259,1437145187198,16.714,-34.179,-20.915
260,1437145187216,16.714,-34.538,-20.915
261,1437145187236,16.714,-34.538,-20.915
262,1437145187256,16.714,-34.538,-20.915
263,1437145187276,16.714,-34.861,-20.594
264,1437145187296,16.714,-34.861,-20.594
265,1437145187316,16.714,-34.861,-20.594
266,1437145187336,16.383,-34.861,-20.594
267,1437145187356,16.383,-34.861,-20.594
268,1437145187377,16.383,-34.861,-20.594
269,1437145187396,16.383,-34.861,-20.594
270,1437145187417,16.383,-34.861,-20.594
271,1437145187437,16.383,-34.861,-20.594
272,1437145187457,16.383,-34.861,-20.594
273,1437145187479,16.383,-34.861,-20.594
274,1437145187498,16.383,-34.861,-20.594
275,1437145187519,16.383,-34.861,-20.594
276,1437145187542,16.383,-34.861,-20.594
277,1437145187561,16.383,-34.861,-20.594
278,1437145187580,16.383,-34.861,-20.594
279,1437145187600,16.383,-34.861,-20.594
280,1437145187620,16.383,-34.861,-20.594
281,1437145187638,16.383,-34.861,-20.594
282,1437145187661,16.383,-34.861,-20.594
283,1437145187681,16.383,-34.861,-20.594
284,1437145187699,16.383,-34.861,-20.594
285,1437145187721,16.383,-34.861,-20.594
286,1437145187739,16.729,-34.861,-20.594
287,1437145187761,16.729,-34.861,-20.594
288,1437145187778,16.729,-34.553,-20.594
289,1437145187798,16.729,-34.553,-20.594
290,1437145187818,17.074,-34.553,-20.594
291,1437145187842,17.074,-34.553,-20.594
292,1437145187862,17.074,-34.553,-20.594
293,1437145187880,17.504,-34.553,-20.594
294,1437145187900,17.504,-34.553,-20.594
295,1437145187918,17.504,-34.553,-20.594
296,1437145187938,17.864,-34.553,-20.594
297,1437145187958,17.864,-34.553,-20.594
298,1437145187979,17.864,-34.22,-20.594
299,1437145188013,18.223,-34.22,-20.594
300,1437145188031,18.223,-34.22,-20.594
301,1437145188045,18.223,-34.22,-20.278
302,1437145188063,18.524,-34.22,-20.278
303,1437145188079,18.524,-34.22,-20.278
304,1437145188128,18.524,-34.22,-20.278
305,1437145188129,18.524,-34.22,-19.972
306,1437145188139,18.862,-34.22,-19.972
307,1437145188159,18.862,-34.22,-19.972
308,1437145188312,18.862,-34.22,-19.972
309,1437145188313,18.862,-34.22,-19.972
310,1437145188314,18.862,-34.22,-19.972
311,1437145188315,18.862,-34.22,-19.972
312,1437145188316,18.862,-34.22,-19.972
313,1437145188317,18.862,-34.22,-19.972
314,1437145188318,18.862,-34.22,-19.972
315,1437145188580,18.862,-34.22,-19.665
316,1437145188581,18.862,-34.22,-19.665
317,1437145188582,18.862,-34.22,-19.665
318,1437145188583,18.463,-34.22,-19.665
319,1437145188584,18.463,-34.22,-19.665
320,1437145188585,18.463,-34.22,-19.665
321,1437145188586,18.101,-34.594,-19.665
322,1437145188587,18.101,-34.594,-19.665
323,1437145188588,18.101,-34.594,-19.665
324,1437145188589,17.706,-34.898,-19.665
325,1437145188592,17.706,-34.898,-19.665
326,1437145188593,17.706,-34.898,-19.665
327,1437145188594,17.265,-34.898,-19.665
328,1437145188595,17.265,-35.328,-19.665
329,1437145188625,17.265,-35.328,-19.665
330,1437145188626,16.937,-35.328,-19.665
331,1437145188662,16.937,-35.719,-19.355
332,1437145188663,16.937,-35.719,-19.355
333,1437145188678,16.61,-35.719,-19.355
334,1437145188703,16.61,-36.048,-19.355
335,1437145188718,16.3,-36.048,-19.355
336,1437145188738,16.3,-36.048,-19.355
337,1437145188758,16.3,-36.048,-19.355
338,1437145188778,15.956,-36.048,-19.355
339,1437145188798,15.956,-36.048,-19.021
340,1437145188818,15.956,-36.048,-19.021
341,1437145188838,15.512,-36.048,-19.021
342,1437145188858,15.512,-36.048,-19.021
343,1437145188878,15.512,-36.048,-19.021
344,1437145188898,15.151,-36.048,-19.021
345,1437145188918,15.151,-36.048,-19.021
346,1437145188938,15.151,-36.048,-19.021
347,1437145188958,15.151,-36.048,-19.021
348,1437145188978,14.804,-36.048,-19.021
349,1437145188998,14.804,-36.048,-19.021
350,1437145189018,14.804,-36.048,-19.021
351,1437145189038,14.804,-36.048,-19.021
352,1437145189060,14.804,-36.048,-19.021
353,1437145189080,14.804,-36.048,-19.021
354,1437145189102,14.804,-36.048,-19.021
355,1437145189123,15.187,-36.048,-19.021
356,1437145189142,15.748,-36.048,-19.021
357,1437145189159,16.111,-36.048,-19.021
358,1437145189183,16.477,-36.048,-19.021
359,1437145189202,16.477,-36.048,-19.021
360,1437145189224,16.477,-36.048,-19.021
361,1437145189241,16.477,-36.048,-19.021
362,1437145189261,16.477,-36.048,-19.021
363,1437145189283,16.477,-36.413,-19.021
364,1437145189303,16.818,-36.413,-19.021
365,1437145189322,16.818,-36.413,-19.021
366,1437145189343,16.818,-36.413,-19.021
367,1437145189365,17.221,-36.413,-19.021
368,1437145189379,17.221,-36.735,-19.021
369,1437145189399,17.221,-36.735,-19.021
370,1437145189423,17.221,-36.735,-19.021
371,1437145189441,17.527,-36.735,-19.021
372,1437145189463,17.527,-36.735,-19.021
373,1437145189480,17.527,-36.735,-19.021
374,1437145189537,17.527,-36.735,-19.021
375,1437145189540,17.527,-36.735,-19.021
376,1437145189541,17.527,-36.735,-19.021
377,1437145189561,17.527,-36.735,-19.021
378,1437145189580,17.527,-36.735,-19.021
379,1437145189600,17.527,-36.735,-19.021
380,1437145189622,17.527,-36.735,-19.021
381,1437145189642,17.527,-36.735,-19.021
382,1437145189671,17.527,-36.735,-19.021
383,1437145189682,17.527,-36.735,-19.322
384,1437145189703,17.527,-36.735,-19.322
385,1437145189723,17.527,-36.735,-19.322
386,1437145189742,17.527,-36.735,-19.322
387,1437145189764,17.527,-36.735,-19.322
388,1437145189783,17.527,-36.735,-19.322
389,1437145189803,17.527,-36.735,-19.322
390,1437145189824,17.527,-36.735,-19.322
391,1437145189844,17.527,-36.735,-19.322
392,1437145189864,17.527,-36.735,-19.322
393,1437145189884,17.527,-36.735,-19.322
394,1437145189903,17.527,-36.735,-19.322
395,1437145189921,17.527,-36.735,-19.322
396,1437145189941,17.527,-36.735,-19.322
397,1437145189961,17.527,-36.735,-19.322
398,1437145189981,17.527,-36.735,-19.322
399,1437145190006,17.527,-36.735,-19.322
400,1437145190026,17.527,-36.735,-19.322
401,1437145190047,17.527,-36.735,-19.322
402,1437145190064,17.527,-36.735,-19.322
403,1437145190082,17.527,-36.735,-19.322
404,1437145190102,17.527,-36.735,-19.322
405,1437145190121,17.527,-36.735,-19.322
406,1437145190142,17.527,-36.735,-19.322
407,1437145190162,17.527,-36.735,-19.322
408,1437145190244,17.527,-36.735,-19.322
409,1437145190245,17.527,-36.735,-19.322
410,1437145190246,17.527,-36.735,-19.322
411,1437145190247,17.527,-36.735,-19.322
412,1437145190262,17.527,-36.735,-19.322
413,1437145190286,17.527,-36.735,-19.322
414,1437145190301,17.527,-36.735,-19.322
415,1437145190331,17.527,-36.735,-19.322
416,1437145190341,17.527,-36.735,-19.322
417,1437145190361,17.527,-36.735,-19.322
418,1437145190399,17.527,-36.735,-19.322
419,1437145190400,17.527,-36.401,-19.322
420,1437145190421,17.527,-36.401,-19.322
421,1437145190442,17.527,-36.401,-19.322
422,1437145190464,17.527,-36.401,-19.322
423,1437145190484,17.179,-36.051,-19.322
424,1437145190503,17.179,-36.051,-19.322
425,1437145190524,17.179,-36.051,-19.322
426,1437145190546,17.179,-36.051,-19.322
427,1437145190564,16.853,-35.729,-19.322
428,1437145190585,16.853,-35.729,-19.322
429,1437145190603,16.853,-35.729,-19.322
430,1437145190622,16.853,-35.729,-19.322
431,1437145190645,16.853,-35.729,-19.322
432,1437145190663,16.853,-35.729,-19.322
433,1437145190681,16.853,-35.729,-19.322
434,1437145190702,16.853,-35.729,-19.322
435,1437145190722,16.853,-35.729,-19.322
436,1437145190746,16.853,-35.729,-19.322
437,1437145190763,16.853,-35.729,-19.322
438,1437145190786,16.853,-35.729,-19.322
439,1437145190802,16.853,-35.729,-19.322
440,1437145190823,16.853,-35.729,-19.322
441,1437145190842,17.163,-35.729,-19.322
442,1437145190863,17.163,-35.729,-19.322
443,1437145190882,17.163,-35.729,-19.322
444,1437145190954,17.163,-35.729,-19.322
445,1437145190956,17.163,-35.729,-19.322
446,1437145190957,17.163,-36.056,-19.322
447,1437145190972,17.163,-36.056,-19.322
448,1437145190982,17.163,-36.056,-19.322
449,1437145191002,17.483,-36.056,-19.322
450,1437145191030,17.483,-36.056,-19.322
451,1437145191050,17.483,-36.056,-19.322
452,1437145191062,17.483,-36.056,-19.322
453,1437145191082,17.483,-36.056,-19.322
454,1437145191110,17.483,-36.056,-19.012
455,1437145191178,17.483,-36.056,-19.012
456,1437145191179,17.483,-36.056,-19.012
457,1437145191180,17.483,-36.373,-19.012
458,1437145191185,17.483,-36.373,-19.012
459,1437145191205,17.483,-36.373,-19.012
460,1437145191222,17.483,-36.373,-19.012
461,1437145191241,17.483,-36.373,-19.012
462,1437145191265,17.834,-36.373,-19.012
463,1437145191282,17.834,-36.373,-19.012
464,1437145191302,17.834,-36.683,-19.012
465,1437145191322,17.834,-36.683,-19.012
466,1437145191342,17.834,-36.683,-19.012
467,1437145191362,17.834,-36.683,-19.012
468,1437145191443,17.834,-36.683,-19.012
469,1437145191444,18.159,-36.683,-19.012
470,1437145191445,18.159,-36.683,-19.012
471,1437145191446,18.159,-36.683,-19.012
472,1437145191483,18.159,-36.683,-19.012
473,1437145191486,18.159,-36.683,-19.012
474,1437145191509,18.159,-36.683,-19.012
475,1437145191531,18.159,-36.683,-19.012
476,1437145191542,18.159,-36.683,-19.012
477,1437145191561,18.159,-36.683,-19.012
478,1437145191581,18.159,-36.683,-19.012
479,1437145191601,18.159,-36.683,-19.012
480,1437145191621,18.159,-36.683,-19.012
481,1437145191641,18.159,-36.683,-19.012
482,1437145191661,17.826,-36.683,-19.012
483,1437145191681,17.826,-36.683,-19.012
484,1437145191708,17.826,-36.383,-19.012
485,1437145191721,17.472,-36.383,-19.012
486,1437145191741,17.472,-36.383,-19.331
487,1437145191761,17.472,-36.383,-19.331
488,1437145191781,17.472,-36.383,-19.331
489,1437145191801,17.115,-35.983,-19.331
490,1437145191821,17.115,-35.983,-19.331
491,1437145191841,17.115,-35.983,-19.331
