id,attr_time,attr_x,attr_y,attr_z
1,1437145182030,-3.002,16.442,3.482
2,1437145182047,-3.002,16.442,3.482
3,1437145182070,-3.002,16.442,3.482
4,1437145182086,-3.002,16.442,3.482
5,1437145182106,-3.002,16.442,3.482
6,1437145182126,-3.002,16.442,3.482
7,1437145182148,-3.002,16.442,3.482
8,1437145182167,-3.002,16.442,3.482
9,1437145182199,-3.002,16.442,3.482
10,1437145182211,-3.002,16.761,3.482
11,1437145182235,-3.002,16.761,3.482
12,1437145182248,-3.002,16.761,3.482
13,1437145182268,-2.685,16.761,3.482
14,1437145182286,-2.685,16.761,3.482
15,1437145182309,-2.685,16.761,3.482
16,1437145182327,-2.685,16.761,3.817
17,1437145182347,-2.685,16.761,3.817
18,1437145182367,-2.685,16.761,3.817
19,1437145182391,-2.685,16.761,3.817
20,1437145182412,-2.685,16.761,3.817
21,1437145182433,-2.685,16.761,3.817
22,1437145182452,-2.685,16.761,3.817
23,1437145182470,-2.685,16.761,3.817
24,1437145182486,-2.685,16.761,3.817
25,1437145182506,-2.685,16.761,3.817
26,1437145182528,-2.685,16.761,3.817
27,1437145182553,-2.685,16.761,3.817
28,1437145182568,-2.685,16.761,4.122
29,1437145182593,-2.685,16.761,4.122
30,1437145182608,-2.685,16.761,4.122
31,1437145182634,-2.685,16.761,4.122
32,1437145182695,-2.685,16.761,4.122
33,1437145182696,-2.685,16.761,4.122
34,1437145182697,-2.685,16.761,4.122
35,1437145182716,-2.685,16.761,4.122
36,1437145182728,-2.685,16.761,4.122
37,1437145182769,-2.685,16.761,4.122
38,1437145182770,-2.685,16.761,4.122
39,1437145182793,-2.685,16.761,4.122
40,1437145182814,-2.685,16.761,4.122
41,1437145182833,-2.685,16.761,4.122
42,1437145182848,-2.685,16.761,4.122
43,1437145182869,-2.685,16.761,4.122
44,1437145182889,-2.685,16.761,4.122
45,1437145182908,-2.685,16.761,4.122
46,1437145182930,-2.685,16.761,4.122
47,1437145182950,-2.685,16.761,4.122
48,1437145182968,-2.685,16.761,4.122
49,1437145182990,-2.685,16.761,4.122
50,1437145183011,-2.685,16.761,4.122
51,1437145183031,-2.685,16.761,4.122
52,1437145183049,-2.685,16.761,4.122
53,1437145183069,-2.685,16.761,4.122
54,1437145183097,-2.685,16.761,4.122
55,1437145183159,-2.685,16.761,4.122
56,1437145183160,-2.685,16.761,4.122
57,1437145183161,-2.685,16.761,4.122
58,1437145183182,-2.685,16.761,4.122
59,1437145183193,-2.685,16.761,4.122
60,1437145183208,-2.685,16.761,4.122
61,1437145183236,-2.685,16.761,4.122
62,1437145183248,-2.685,16.761,4.122
63,1437145183269,-2.685,16.761,4.122
64,1437145183290,-2.685,16.761,4.122
65,1437145183309,-2.685,16.761,4.122
66,1437145183331,-2.685,16.761,4.122
67,1437145183352,-2.685,16.761,4.122
68,1437145183369,-2.685,17.073,4.122
69,1437145183388,-2.685,17.073,4.122
70,1437145183408,-2.685,17.073,4.122
71,1437145183428,-2.685,17.073,4.122
72,1437145183450,-2.685,17.073,4.122
73,1437145183470,-2.685,17.073,4.122
74,1437145183488,-2.685,17.073,4.122
75,1437145183509,-2.685,17.073,4.122
76,1437145183529,-2.685,17.073,4.122
77,1437145183548,-2.685,17.073,4.122
78,1437145183568,-2.685,17.073,4.122
79,1437145183635,-2.685,17.073,4.122
80,1437145183636,-2.685,17.073,4.122
81,1437145183637,-2.685,17.073,4.122
82,1437145183663,-2.685,17.073,3.811
83,1437145183669,-2.685,17.073,3.811
84,1437145183688,-2.685,17.073,3.811
85,1437145183716,-2.685,17.073,3.811
86,1437145183730,-2.685,17.073,3.811
87,1437145183757,-2.685,17.073,3.811
88,1437145183777,-2.685,17.073,3.811
89,1437145183791,-2.685,17.073,3.811
90,1437145183812,-2.685,17.073,3.811
91,1437145183834,-2.685,17.073,3.811
92,1437145183848,-2.685,17.073,3.811
93,1437145183870,-2.685,17.073,3.811
94,1437145183889,-2.685,17.073,3.811
95,1437145183909,-2.685,17.073,3.811
96,1437145183930,-2.685,17.073,3.811
97,1437145183953,-2.685,17.073,3.811
98,1437145183973,-2.685,17.073,3.811
99,1437145183993,-2.685,17.073,3.491
100,1437145184009,-2.685,17.073,3.491
101,1437145184034,-2.685,17.073,3.491
102,1437145184098,-2.685,17.073,3.491
103,1437145184099,-2.685,17.073,3.491
104,1437145184100,-2.685,17.073,3.491
105,1437145184127,-2.685,17.073,3.491
106,1437145184131,-2.685,17.073,3.491
107,1437145184148,-2.685,17.073,3.491
108,1437145184177,-2.685,17.073,3.491
109,1437145184189,-2.685,17.073,3.491
110,1437145184209,-2.685,17.073,3.491
111,1437145184230,-2.685,17.073,3.491
112,1437145184255,-2.685,17.073,3.491
113,1437145184270,-2.685,17.073,3.491
114,1437145184290,-2.685,17.073,3.491
115,1437145184308,-2.685,17.073,3.491
116,1437145184330,-2.685,17.073,3.491
117,1437145184352,-2.685,17.073,3.491
118,1437145184370,-2.685,17.073,3.491
119,1437145184390,-2.685,17.073,3.491
120,1437145184411,-2.685,17.073,3.491
121,1437145184430,-2.685,17.073,3.491
122,1437145184449,-2.685,17.073,3.491
123,1437145184469,-2.685,17.073,3.491
124,1437145184490,-2.685,17.073,3.491
125,1437145184517,-2.685,17.073,3.491
126,1437145184575,-2.685,17.073,3.491
127,1437145184584,-2.685,17.073,3.491
128,1437145184585,-2.685,17.073,3.491
129,1437145184590,-2.685,17.073,3.491
130,1437145184620,-2.685,17.073,3.491
131,1437145184657,-2.685,17.073,3.491
132,1437145184658,-2.685,17.073,3.491
133,1437145184669,-2.685,17.073,3.491
134,1437145184690,-2.685,17.073,3.491
135,1437145184710,-2.685,17.073,3.491
136,1437145184731,-2.685,17.073,3.491
137,1437145184749,-2.685,17.073,3.491
138,1437145184772,-2.685,17.073,3.491
139,1437145184794,-2.685,17.073,3.491
140,1437145184811,-2.685,17.073,3.491
141,1437145184829,-2.685,17.073,3.491
142,1437145184852,-2.685,17.073,3.491
143,1437145184873,-2.685,17.073,3.491
144,1437145184893,-2.685,17.073,3.491
145,1437145184910,-2.685,17.073,3.491
146,1437145184929,-2.685,17.073,3.491
147,1437145184949,-2.685,17.073,3.491
148,1437145184971,-2.685,17.073,3.491
149,1437145184992,-2.685,17.073,3.491
150,1437145185053,-2.685,17.073,3.491
151,1437145185054,-2.685,17.073,3.491
152,1437145185055,-2.685,17.073,3.491
153,1437145185080,-2.685,17.073,3.491
154,1437145185090,-2.685,17.073,3.878
155,1437145185121,-2.685,17.073,3.878
156,1437145185132,-2.685,17.073,3.878
157,1437145185152,-2.685,17.073,3.878
158,1437145185170,-2.685,17.073,3.878
159,1437145185196,-2.685,17.073,3.878
160,1437145185210,-2.685,17.073,3.878
161,1437145185233,-2.685,17.073,3.878
162,1437145185250,-2.685,17.073,3.878
163,1437145185270,-2.685,17.073,3.878
164,1437145185293,-2.685,17.073,3.878
165,1437145185311,-2.685,17.073,3.878
166,1437145185331,-2.685,17.073,3.878
167,1437145185350,-2.685,17.073,3.878
168,1437145185373,-2.685,17.073,4.223
169,1437145185393,-2.685,17.073,4.223
170,1437145185411,-2.685,17.073,4.223
171,1437145185430,-2.685,17.073,4.223
172,1437145185456,-2.685,17.073,4.223
173,1437145185520,-2.685,17.073,4.223
174,1437145185521,-2.685,17.073,4.223
175,1437145185522,-2.685,17.073,4.223
176,1437145185543,-2.685,17.073,4.223
177,1437145185556,-2.685,17.073,4.223
178,1437145185570,-2.372,17.073,4.223
179,1437145185597,-2.372,17.073,4.223
180,1437145185612,-2.372,17.073,4.223
181,1437145185632,-2.372,17.073,4.223
182,1437145185651,-2.372,17.073,4.223
183,1437145185676,-2.372,17.073,4.223
184,1437145185693,-2.372,17.073,4.223
185,1437145185710,-2.372,17.073,4.223
186,1437145185733,-2.372,17.073,4.223
187,1437145185750,-2.372,17.073,4.223
188,1437145185773,-2.372,17.073,4.223
189,1437145185797,-2.372,17.073,4.223
190,1437145185813,-2.372,17.073,4.223
191,1437145185830,-2.372,17.073,4.223
192,1437145185850,-2.372,17.073,4.223
193,1437145185871,-2.372,17.073,4.223
194,1437145185892,-2.372,17.073,4.223
195,1437145185912,-2.372,17.073,4.223
196,1437145185941,-2.372,17.073,4.223
197,1437145186007,-2.372,17.073,4.223
198,1437145186008,-2.372,17.073,4.223
199,1437145186009,-2.372,17.073,4.223
200,1437145186037,-2.372,17.073,4.223
201,1437145186038,-2.372,17.073,4.223
202,1437145186052,-2.372,17.073,4.223
203,1437145186084,-2.372,17.073,4.223
204,1437145186091,-2.372,17.073,4.223
205,1437145186116,-2.372,17.073,4.223
206,1437145186131,-2.372,17.073,4.223
207,1437145186153,-2.372,17.073,4.223
208,1437145186171,-2.372,17.073,4.223
209,1437145186192,-2.372,17.073,4.223
210,1437145186214,-2.372,17.073,4.223
211,1437145186233,-2.372,17.073,4.223
212,1437145186253,-2.372,17.073,4.223
213,1437145186273,-2.372,17.073,4.223
214,1437145186294,-2.372,17.073,4.223
215,1437145186314,-2.372,17.073,4.223
216,1437145186334,-2.372,17.073,4.223
217,1437145186352,-2.372,17.073,4.223
218,1437145186373,-2.372,17.073,4.223
219,1437145186392,-2.372,17.073,4.223
220,1437145186412,-2.372,17.073,4.223
221,1437145187954,-2.372,17.073,4.223
222,1437145187955,-2.372,17.073,4.223
223,1437145187956,-2.372,17.073,4.223
224,1437145187957,-2.372,17.073,4.223
225,1437145187958,-2.372,17.073,4.223
226,1437145187959,-2.372,17.073,4.223
227,1437145187960,-2.372,17.073,4.223
228,1437145187961,-2.372,17.073,4.223
229,1437145187962,-2.372,17.073,4.223
230,1437145187963,-2.372,16.766,4.223
231,1437145187964,-2.372,16.766,4.223
232,1437145187965,-2.372,16.766,4.223
233,1437145187966,-2.372,16.766,4.223
234,1437145187967,-2.372,16.766,4.223
235,1437145187968,-2.372,16.766,4.223
236,1437145187969,-2.372,16.766,4.223
237,1437145187970,-2.372,16.766,4.223
238,1437145187971,-2.372,16.766,4.223
239,1437145187972,-2.372,16.766,4.223
240,1437145187973,-2.372,16.766,4.223
241,1437145187974,-2.372,16.766,4.223
242,1437145187975,-2.372,16.766,4.223
243,1437145187976,-2.372,16.766,4.223
244,1437145187977,-2.372,16.766,4.223
245,1437145187978,-2.372,16.766,4.223
246,1437145187979,-2.372,16.766,4.223
247,1437145187980,-2.372,16.766,4.223
248,1437145187981,-2.372,16.766,4.223
249,1437145187982,-2.372,16.766,4.223
250,1437145187983,-2.372,16.766,4.223
251,1437145187984,-2.372,16.766,4.223
252,1437145187985,-2.372,16.766,4.223
253,1437145187986,-2.372,16.766,4.223
254,1437145187987,-2.372,16.766,4.223
255,1437145187988,-2.372,16.766,4.223
256,1437145187989,-2.372,16.766,4.223
257,1437145187990,-2.676,16.766,4.223
258,1437145187991,-2.676,16.766,4.223
259,1437145187992,-2.676,16.766,4.223
260,1437145187993,-2.676,16.766,4.223
261,1437145187994,-2.676,16.766,4.223
262,1437145187995,-2.676,16.766,4.223
263,1437145187996,-2.676,16.766,4.548
264,1437145187997,-2.676,16.766,4.548
265,1437145187998,-2.676,16.766,4.548
266,1437145187999,-2.676,16.766,4.548
267,1437145188000,-2.676,16.766,4.548
268,1437145188001,-2.676,16.766,4.548
269,1437145188002,-2.676,16.766,4.548
270,1437145188003,-2.981,16.766,4.548
271,1437145188004,-2.981,16.766,4.548
272,1437145188005,-2.981,16.766,4.548
273,1437145188006,-2.981,16.766,4.548
274,1437145188007,-2.981,16.766,4.548
275,1437145188008,-2.981,16.766,4.548
276,1437145188009,-2.981,16.766,4.548
277,1437145188010,-2.981,16.766,4.548
278,1437145188011,-2.981,16.766,4.548
279,1437145188012,-2.981,16.766,4.548
280,1437145188013,-2.981,16.766,4.548
281,1437145188014,-2.981,16.766,4.548
282,1437145188015,-2.981,16.766,4.548
283,1437145188016,-2.981,16.766,4.548
284,1437145188017,-2.981,16.766,4.548
285,1437145188018,-2.981,16.766,4.548
286,1437145188019,-2.981,16.766,4.548
287,1437145188020,-2.981,16.766,4.548
288,1437145188021,-2.981,16.766,4.548
289,1437145188022,-2.981,16.766,4.548
290,1437145188023,-2.981,16.766,4.548
291,1437145188024,-2.981,16.766,4.548
292,1437145188025,-2.981,16.766,4.548
293,1437145188026,-3.288,16.766,4.548
294,1437145188027,-3.288,16.766,4.548
295,1437145188028,-3.288,16.766,4.548
296,1437145188029,-3.288,16.766,4.548
297,1437145188030,-3.288,16.766,4.548
298,1437145188031,-3.288,16.766,4.548
299,1437145188032,-3.288,16.766,4.548
300,1437145188033,-3.288,16.766,4.237
301,1437145188034,-3.288,16.766,4.237
302,1437145188051,-3.288,16.766,4.237
303,1437145188072,-3.288,16.766,4.237
304,1437145188091,-3.288,16.766,4.237
305,1437145188111,-3.288,16.766,4.237
306,1437145188131,-3.288,16.766,4.237
307,1437145188151,-3.288,16.766,4.237
308,1437145188171,-3.288,16.766,4.237
309,1437145188191,-3.288,16.766,4.237
310,1437145188216,-3.288,16.766,4.237
311,1437145188235,-3.288,16.766,4.237
312,1437145188253,-3.288,16.766,4.237
313,1437145188275,-3.288,16.766,4.237
314,1437145188302,-3.288,16.766,4.237
315,1437145188313,-3.288,16.766,4.237
316,1437145188331,-3.288,16.766,4.237
317,1437145188353,-3.288,16.766,4.237
318,1437145188374,-3.288,16.766,4.237
319,1437145188392,-3.288,16.766,4.237
320,1437145188412,-3.288,16.766,4.237
321,1437145188432,-3.288,16.766,4.237
322,1437145188456,-3.288,16.766,4.237
323,1437145188473,-3.288,16.766,4.237
324,1437145188493,-3.288,16.766,4.237
325,1437145188515,-3.288,16.766,4.237
326,1437145188536,-3.288,16.766,4.237
327,1437145188553,-3.288,16.766,4.565
328,1437145188575,-3.288,16.766,4.565
329,1437145188595,-3.288,16.766,4.565
330,1437145188614,-3.288,16.766,4.565
331,1437145188636,-3.288,16.766,4.565
332,1437145188657,-3.288,16.766,4.565
333,1437145188675,-3.288,16.766,4.565
334,1437145188697,-3.288,16.766,4.884
335,1437145188748,-3.288,16.766,4.884
336,1437145188760,-3.288,16.766,4.884
337,1437145188761,-3.288,16.766,4.884
338,1437145188787,-3.288,16.766,4.884
339,1437145188802,-3.288,16.766,5.258
340,1437145188813,-3.288,16.766,5.258
341,1437145188833,-3.288,16.766,5.258
342,1437145188868,-3.288,16.766,5.258
343,1437145188874,-3.288,16.456,5.589
344,1437145188893,-3.288,16.456,5.589
345,1437145188913,-3.288,16.456,5.589
346,1437145188936,-3.288,16.456,5.589
347,1437145188953,-3.288,16.456,5.589
348,1437145188978,-3.288,16.456,5.589
349,1437145189000,-3.288,16.456,5.589
350,1437145189016,-3.288,16.456,5.929
351,1437145189034,-3.288,16.456,5.929
352,1437145189054,-3.288,16.456,5.929
353,1437145189075,-3.288,16.456,5.929
354,1437145189098,-3.288,16.456,5.929
355,1437145189118,-3.288,16.456,5.929
356,1437145189139,-3.288,16.456,5.929
357,1437145189156,-3.288,16.456,6.243
358,1437145189178,-3.288,16.456,6.243
359,1437145189240,-3.288,16.456,6.243
360,1437145189241,-3.288,16.456,6.243
361,1437145189242,-3.288,16.456,6.243
362,1437145189265,-3.288,16.456,6.243
363,1437145189273,-3.288,16.456,6.243
364,1437145189320,-3.288,16.456,6.243
365,1437145189321,-3.288,16.456,6.243
366,1437145189336,-3.288,16.456,6.243
367,1437145189360,-3.288,16.456,6.243
368,1437145189376,-3.288,16.456,6.243
369,1437145189395,-3.288,16.456,6.243
370,1437145189415,-3.288,16.78,5.923
371,1437145189434,-3.288,16.78,5.923
372,1437145189453,-3.288,16.78,5.923
373,1437145189473,-3.288,16.78,5.923
374,1437145189493,-3.288,16.78,5.923
375,1437145189515,-3.288,16.78,5.923
376,1437145189539,-3.288,16.78,5.923
377,1437145189556,-3.288,16.78,5.923
378,1437145189573,-3.288,16.78,5.923
379,1437145189593,-3.288,16.78,5.923
380,1437145189613,-3.288,16.78,5.616
381,1437145189635,-3.288,16.78,5.616
382,1437145189654,-3.288,16.78,5.616
383,1437145189701,-3.288,16.78,5.616
384,1437145189702,-3.288,16.78,5.616
385,1437145189722,-3.288,16.78,5.616
386,1437145189744,-2.984,16.78,5.616
387,1437145189754,-2.984,16.78,5.616
388,1437145189776,-2.984,17.094,5.616
389,1437145189822,-2.984,17.094,5.616
390,1437145189823,-2.984,17.094,5.616
391,1437145189836,-2.984,17.094,5.616
392,1437145189857,-2.984,17.094,5.616
393,1437145189876,-2.984,17.094,5.616
394,1437145189894,-2.984,17.094,5.616
395,1437145189914,-2.984,17.094,5.616
396,1437145189937,-2.984,17.094,5.616
397,1437145189957,-2.984,17.094,5.616
398,1437145189977,-2.984,17.094,5.616
399,1437145189997,-2.984,17.094,5.616
400,1437145190017,-2.984,17.094,5.616
401,1437145190037,-2.984,17.094,5.616
402,1437145190057,-2.984,17.094,5.616
403,1437145190076,-2.984,17.094,5.616
404,1437145190095,-2.984,17.094,5.616
405,1437145190123,-2.984,17.094,5.616
406,1437145190187,-2.984,17.094,5.616
407,1437145190188,-2.984,17.094,5.616
408,1437145190189,-2.984,17.094,5.616
409,1437145190208,-2.984,17.094,5.616
410,1437145190221,-2.984,17.094,5.616
411,1437145190242,-2.984,17.094,5.616
412,1437145190265,-2.984,17.094,5.616
413,1437145190275,-2.984,17.094,5.616
414,1437145190298,-2.984,17.094,5.616
415,1437145190315,-2.984,17.094,5.616
416,1437145190336,-2.984,17.094,5.616
417,1437145190358,-2.984,17.094,5.616
418,1437145190378,-2.984,16.784,5.616
419,1437145190397,-2.984,16.784,5.616
420,1437145190417,-2.984,16.784,5.616
421,1437145190436,-2.984,16.784,5.616
422,1437145190459,-2.984,16.784,5.274
423,1437145190478,-2.984,16.784,5.274
424,1437145190498,-2.984,16.784,5.274
425,1437145190517,-2.984,16.784,5.274
426,1437145190538,-2.984,16.784,5.274
427,1437145190557,-2.984,16.784,5.274
428,1437145190576,-2.984,16.784,5.274
429,1437145190596,-2.984,16.784,4.928
430,1437145190615,-2.984,16.784,4.928
431,1437145190663,-2.984,16.784,4.928
432,1437145190664,-2.984,16.784,4.928
433,1437145190674,-2.984,16.784,4.928
434,1437145190696,-2.984,16.784,4.928
435,1437145190715,-2.984,16.784,4.928
436,1437145190736,-2.984,16.784,4.928
437,1437145190756,-2.984,16.784,4.928
438,1437145190776,-2.984,16.784,4.928
439,1437145190795,-2.984,16.784,4.928
440,1437145190821,-2.984,16.784,4.928
441,1437145190836,-2.984,16.784,4.928
442,1437145190870,-2.984,16.784,4.928
443,1437145190876,-2.984,16.784,4.928
444,1437145190896,-2.984,16.784,4.928
445,1437145190916,-2.984,16.784,4.928
446,1437145190936,-2.984,16.784,4.928
447,1437145190959,-2.984,16.784,4.928
448,1437145190978,-2.984,16.784,4.928
449,1437145190998,-2.984,16.784,4.928
450,1437145191019,-2.984,16.784,4.928
451,1437145191038,-2.984,16.784,4.928
452,1437145191060,-2.984,16.784,4.928
453,1437145191076,-2.984,16.784,4.928
454,1437145191097,-2.984,16.784,4.928
455,1437145191116,-2.984,16.784,4.928
456,1437145191137,-2.984,16.784,4.928
457,1437145191182,-2.984,16.784,4.928
458,1437145191183,-2.984,16.784,4.928
459,1437145191199,-2.984,16.784,4.928
460,1437145191220,-2.984,16.784,4.928
461,1437145191235,-2.984,16.784,4.928
462,1437145191255,-2.984,16.784,4.928
463,1437145191285,-2.984,16.784,4.928
464,1437145191298,-2.984,16.784,4.928
465,1437145191317,-2.984,16.784,4.928
466,1437145191340,-2.984,16.784,4.928
467,1437145191358,-2.984,16.784,4.928
468,1437145191376,-2.984,16.784,4.928
469,1437145191395,-2.984,16.784,4.928
470,1437145191419,-2.984,16.784,4.928
471,1437145191439,-2.984,16.784,4.928
472,1437145191459,-2.984,16.784,4.928
473,1437145191475,-2.984,16.784,4.928
474,1437145191499,-2.984,16.784,4.627
475,1437145191517,-2.984,16.784,4.627
476,1437145191537,-2.984,16.784,4.627
477,1437145191559,-2.984,16.784,4.627
478,1437145191580,-2.984,16.784,4.627
479,1437145191599,-2.984,16.784,4.627
480,1437145191618,-2.984,16.784,4.627
481,1437145191636,-2.984,16.784,4.627
482,1437145191707,-2.673,16.784,4.627
483,1437145191708,-2.673,16.784,4.627
484,1437145191709,-2.673,16.784,4.627
485,1437145191737,-2.673,16.784,4.627
486,1437145191738,-2.673,16.784,4.627
487,1437145191757,-2.673,16.784,4.627
488,1437145191811,-2.673,16.784,4.933
489,1437145191812,-2.673,16.784,4.933
490,1437145191818,-2.673,16.784,4.933
491,1437145191843,-2.673,16.784,4.933
492,1437145191857,-2.673,16.784,4.933
493,1437145191878,-2.673,16.784,4.933
494,1437145191898,-2.673,16.784,4.933
495,1437145191916,-2.673,16.784,4.933
496,1437145191936,-2.673,16.784,4.933
497,1437145191957,-2.673,16.784,4.933
498,1437145191981,-2.673,16.784,4.933
499,1437145191996,-2.673,16.784,4.933
500,1437145192021,-2.673,16.784,4.933
501,1437145192039,-2.673,16.784,4.933
502,1437145192056,-2.673,16.784,4.933
503,1437145192078,-2.673,16.784,4.933
504,1437145192098,-2.673,16.784,4.933
505,1437145192117,-2.673,16.784,4.933
506,1437145192140,-2.673,16.784,4.933
507,1437145192186,-2.673,16.784,4.933
508,1437145192187,-2.673,16.784,4.933
509,1437145192197,-2.673,16.784,4.933
510,1437145192218,-2.673,16.784,4.933
511,1437145192236,-2.673,16.784,4.933
512,1437145192256,-2.673,16.784,4.933
513,1437145192276,-2.673,16.784,4.933
514,1437145192297,-2.673,16.784,4.933
515,1437145192317,-2.673,16.784,4.933
516,1437145192336,-2.673,16.784,4.933
517,1437145192357,-2.673,16.784,4.933
518,1437145192378,-2.673,16.784,4.933
519,1437145192397,-2.673,16.784,4.933
520,1437145192417,-2.673,16.784,4.933
521,1437145192436,-2.673,16.47,4.933
522,1437145192456,-2.673,16.47,4.933
523,1437145192482,-2.673,16.47,4.933
524,1437145192499,-2.673,16.47,4.933
525,1437145192519,-2.673,16.47,4.933
526,1437145192536,-2.673,16.47,4.933
527,1437145192556,-2.673,16.47,4.933
528,1437145192577,-2.673,16.47,4.933
