id,attr_time,attr_db
1,1436374238654,39.6201546424247
2,1436374239401,47.1051183105181
3,1436374240115,37.1607930329912
4,1436374240805,53.8026266096391
5,1436374241537,39.3015494099384
6,1436374242267,42.4936509765354
7,1436374242996,43.8501156224707
8,1436374243714,54.1118752517266
9,1436374244456,42.3825356606285
10,1436374245200,39.754257903982
11,1436374245982,43.4048973543808
12,1436374246615,55.2350247005648
13,1436374247290,69.3639082458986
14,1436374248030,69.5889261043796
15,1436374248761,68.0251848459165
16,1436374249492,47.8697268625648
17,1436374250173,42.6991163991422
18,1436374250854,42.7439059072308
19,1436374251566,62.0968656657591
20,1436374252287,48.3433559703681
21,1436374253008,70.803129475883
22,1436374253754,66.8818698065602
23,1436374254494,67.0695291283542
24,1436374255230,72.7032054729346
25,1436374255970,71.8412925991747
26,1436374256690,65.1483472968313
27,1436374257366,69.7299531736247
28,1436374258074,70.9785514844643
29,1436374258787,68.9198420195165
30,1436374259514,70.3596013660439
31,1436374260278,67.001926589554
32,1436374260987,68.8615585993386
33,1436374261705,68.0147921600624
34,1436374262447,74.3323299656618
35,1436374263080,72.9470458475967
36,1436374263762,70.5529893924983
37,1436374264502,73.02138875492
38,1436374265230,70.306198206259
39,1436374265969,69.7830594277573
40,1436374266706,70.9201004578606
41,1436374267366,70.0165697457354
42,1436374268105,64.9718506705915
43,1436374268813,71.0590705969433
44,1436374269522,72.1947032537673
45,1436374270201,73.0453092315005
46,1436374270865,68.5927044660403
47,1436374271589,73.0433329683907
48,1436374272305,72.5990256458811
49,1436374273028,71.7683328771594
50,1436374273749,70.2041677743401
51,1436374274473,69.3155988659014
52,1436374275206,69.0397041084276
53,1436374275924,66.4605920810345
54,1436374276632,66.0054295668339
55,1436374277312,65.5815278661461
56,1436374277986,64.635146277128
57,1436374278707,61.5868367553661
58,1436374279447,70.1973626070418
59,1436374280145,71.6130389032284
60,1436374280900,73.9610592145074
61,1436374281640,70.9203246083543
62,1436374282381,69.8891262342263
63,1436374283072,69.0453873999713
64,1436374283794,68.8063422147643
65,1436374284502,69.676038223284
66,1436374285230,69.9763594229798
67,1436374285962,72.0044088247083
68,1436374286673,69.6335129500054
69,1436374287406,69.9463059687502
70,1436374288038,69.044181702953
71,1436374288706,69.8496265877644
72,1436374289394,71.3914327968206
73,1436374290103,68.0330665786137
74,1436374290885,70.0499710615984
75,1436374291626,68.3273789950547
76,1436374292316,66.6071104025555
77,1436374293020,68.9094654105462
78,1436374293745,71.9990330084699
79,1436374294492,71.0959487068482
80,1436374295212,71.6466469512136
81,1436374295926,70.2543751715745
82,1436374296643,70.4621559605644
83,1436374297360,69.374509963016
84,1436374298055,69.8147432197861
85,1436374298781,66.6309273960856
86,1436374299506,67.6142846776804
87,1436374300203,68.024333123901
88,1436374300972,69.7788366411583
89,1436374301693,72.2060427713164
90,1436374302431,68.7064745397517
91,1436374303156,66.3450312488107
92,1436374303865,67.9956718881164
93,1436374304599,60.8529437510795
94,1436374305314,62.9853161084894
95,1436374306025,57.9091249263921
96,1436374306795,70.3247333342186
97,1436374307496,71.6345062249593
98,1436374308165,70.9830112615151
99,1436374308899,71.9479367895818
100,1436374309653,74.1456283065987
101,1436374310427,70.0004655081758
102,1436374311149,69.3530407768681
103,1436374311849,71.3641935259749
104,1436374312563,69.3306473070255
105,1436374313292,71.3886527479176
106,1436374314009,71.0850951340644
107,1436374314721,67.9067502203427
108,1436374315450,67.1439464487255
109,1436374316182,67.3425879776604
110,1436374316904,72.6150222683777
111,1436374317672,69.4451998306427
112,1436374318352,67.3066527430667
113,1436374319040,70.8965411024392
114,1436374319688,67.9625840419013
115,1436374320397,71.6806645197364
116,1436374321159,72.2925767621952
117,1436374321862,71.8001395928015
118,1436374322586,68.6787955535458
119,1436374323297,68.5951973031723
120,1436374323996,66.5393704567548
121,1436374324714,66.2857962209571
122,1436374325441,68.8798538200896
123,1436374326233,73.3472630830522
124,1436374326950,69.3148152922875
125,1436374327718,64.8621203610105
126,1436374328440,65.6938780318564
127,1436374329108,64.2298457220764
128,1436374329848,60.4985301394108
129,1436374330587,69.6114366954748
130,1436374331313,73.2092630959598
131,1436374332050,71.3297520275546
132,1436374332787,70.012073640064
133,1436374333586,70.0277893012532
134,1436374334314,70.9911409944687
135,1436374335032,71.5741077463551
136,1436374335751,70.072843702845
137,1436374336472,66.7206889559194
138,1436374337196,65.9357700500164
139,1436374337916,63.1326210917268
140,1436374338656,72.2452162560412
141,1436374339325,68.9711782908495
142,1436374340038,70.4134117533399
143,1436374340770,73.5247876085027
144,1436374341513,72.3074022876844
145,1436374342219,67.6889732038907
146,1436374342824,69.5794112189351
147,1436374343473,72.1914566023455
148,1436374344127,73.9237217731635
149,1436374344826,73.3446725736815
150,1436374345587,70.1784256891527
151,1436374347340,67.9132655564631
152,1436374348062,72.1389042084482
153,1436374348803,70.9776529425187
154,1436374349464,72.0556638121391
155,1436374350188,71.6777851965051
156,1436374350899,70.5154331433917
157,1436374351570,68.3606495188791
158,1436374352230,68.9455041143872
159,1436374352970,68.6481243926993
160,1436374353688,69.9741152293719
161,1436374354387,71.9651988159309
162,1436374355125,72.1981072997119
163,1436374355887,66.645198303425
164,1436374357743,72.6046029424685
165,1436374358397,72.3942369867991
166,1436374359067,70.6784332947071
167,1436374359800,72.0072344018647
168,1436374360544,68.9090379497021
169,1436374361325,70.0065516393313
170,1436374362048,70.251558432886
171,1436374362732,70.2946224527353
172,1436374363415,69.4710254286638
173,1436374364143,72.3093537921917
174,1436374364873,71.9381794686575
175,1436374365618,70.3409855628199
176,1436374366333,64.8692000347376
177,1436374367062,66.7745863589767
178,1436374367781,71.1086073699593
179,1436374368483,72.7881707986364
180,1436374369168,71.1167435367658
181,1436374369841,71.7030123495122
182,1436374370555,69.9264838530222
183,1436374371265,69.4372848298799
184,1436374372854,72.409465126058
185,1436374373569,76.1819223276348
186,1436374374247,73.2768931109853
187,1436374374965,73.1432181639386
188,1436374375664,71.3829490560464
189,1436374376368,68.5293538354147
190,1436374377070,67.8303214149642
191,1436374377747,70.7771414301942
192,1436374378442,71.1073573067519
193,1436374379164,68.4237858167655
194,1436374379865,73.0614543771701
195,1436374381365,71.2568675055129
196,1436374382103,68.0130963614253
197,1436374382799,71.5745562181478
198,1436374383424,66.3316107439848
199,1436374384115,64.4424718966513
200,1436374384826,65.4689090964146
201,1436374385536,62.1818498568083
202,1436374386256,71.8642140231621
203,1436374386967,72.7908917090796
204,1436374387627,72.3363990679249
205,1436374388368,70.477580085695
206,1436374389093,70.8368787218574
207,1436374389825,72.4441864589855
208,1436374390518,68.5419036855128
209,1436374391187,67.1276098971354
210,1436374391886,70.0304306382524
211,1436374392645,72.7062418436146
212,1436374393424,65.7453280183362
213,1436374394143,60.1881428794614
214,1436374394855,67.4367908546241
215,1436374395571,67.8840058541905
216,1436374396323,70.8568331011132
217,1436374397053,72.6437349928711
218,1436374397785,65.5140868915505
219,1436374398486,70.3945742326511
220,1436374399232,71.002994406187
221,1436374399965,70.7259263795888
222,1436374400691,67.2196337448485
223,1436374401414,64.9791502715035
224,1436374402140,64.6728228914375
225,1436374402856,71.7274036904973
226,1436374403424,63.2496822537186
227,1436374404086,63.7020146939588
228,1436374404779,59.3786189958062
229,1436374405474,59.8312933364551
230,1436374406069,65.0869000253994
231,1436374406723,66.4381489866297
232,1436374407430,66.2546136708552
233,1436374408152,62.7288056995517
234,1436374408894,60.7274716031444
235,1436374409619,70.7894550140917
236,1436374410316,69.4697980437291
237,1436374411077,71.1121113363134
238,1436374411786,72.8985067504046
239,1436374412497,73.473590953061
240,1436374413199,71.1814002857817
241,1436374413892,72.2091915969554
242,1436374414639,68.9765573672724
243,1436374415379,68.4204576215379
244,1436374416066,67.5124524165052
245,1436374416709,68.4517198391183
246,1436374417384,70.0965471858189
247,1436374418181,72.2868256281415
248,1436374418903,72.9344259841361
249,1436374419612,73.0737110715075
250,1436374420338,70.8076848751433
251,1436374421089,70.9690759128601
252,1436374421825,65.980043115817
253,1436374422544,67.3733144103442
254,1436374423255,56.5067356426704
255,1436374423854,70.7158462674081
256,1436374424526,72.0114603587855
257,1436374425227,70.9285868338442
258,1436374425981,71.4114652270889
259,1436374426669,64.2410868289742
260,1436374427351,68.4015295579243
261,1436374428035,68.0347439883888
262,1436374428749,67.1878290779236
263,1436374429462,64.7133773281599
264,1436374430173,66.1026706079762
265,1436374430909,70.115021414692
266,1436374431634,72.7690266004714
267,1436374432361,71.0216665113574
268,1436374433076,67.9083302759008
269,1436374433803,68.0189162309153
270,1436374434514,70.0302360625523
271,1436374435228,68.3371822194804
272,1436374435924,72.1469030209675
273,1436374436584,61.3149788679184
274,1436374437365,71.1441897741205
275,1436374438085,73.4952895662774
276,1436374438793,64.6189738906444
277,1436374439501,72.1907864094652
278,1436374440231,70.3029355780747
279,1436374441019,39.854391531182
280,1436374441754,64.2225608532564
281,1436374442487,28.6715052163058
282,1436374443215,30.0288239605678
283,1436374443862,29.6152815550243
284,1436374444547,34.956037088692
285,1436374445261,27.4561035567018
286,1436374446020,40.9766145096121
287,1436374446739,33.0889007234558
288,1436374447477,34.9400004594875
289,1436374448135,26.9489506815139
290,1436374448815,26.8489320379625
291,1436374449559,31.3404266541078
292,1436374450297,28.8669858513897
293,1436374450993,26.99252912555
294,1436374451697,62.2732533491563
295,1436374452354,41.9149912672731
296,1436374453076,29.6440529092515
297,1436374453794,40.5096599721384
298,1436374454453,34.036370941783
299,1436374455174,33.2505107692246
300,1436374455957,29.6195126931089
301,1436374456704,32.0321067793109
302,1436374457450,35.0793033211299
303,1436374458156,30.0724492301657
304,1436374458897,33.8989152724709
305,1436374459557,36.4801147461192
306,1436374460263,38.4532284712636
307,1436374460983,34.9685980238082
308,1436374461710,40.7706948509947
309,1436374462437,36.1841116350835
310,1436374463119,30.5871492850482
311,1436374463728,46.0402579503598
312,1436374464448,32.5119241177841
313,1436374465163,29.4441535716239
314,1436374465846,44.2514202434142
315,1436374466608,30.7342105075165
316,1436374467332,33.6192378537091
317,1436374468054,57.192524087593
318,1436374468775,35.9942964151119
319,1436374469487,29.2688260614116
320,1436374470210,29.0643969868769
321,1436374470974,35.0196845291582
322,1436374471695,38.5857363045744
323,1436374472434,53.193856922328
324,1436374473120,35.1681357521068
325,1436374473799,44.0131614877217
326,1436374474505,48.2041886533418
327,1436374475237,34.8598420801398
328,1436374476054,32.4170301070484
329,1436374476782,31.3502632697067
330,1436374477478,34.1008073703995
331,1436374478213,33.041234504881
332,1436374478939,59.3216988889842
333,1436374479660,52.0232147672885
334,1436374480392,69.1908191471323
335,1436374481116,70.3222504081142
336,1436374481804,69.5439517989704
337,1436374482462,70.607450543178
338,1436374483192,68.919260979659
339,1436374483906,72.9129608638982
340,1436374484607,69.7612408417376
341,1436374485291,72.3342346300468
342,1436374485975,69.0280116331297
343,1436374486779,72.0188363546813
344,1436374487515,73.4361522587497
345,1436374488234,71.7335502061642
346,1436374488962,71.8977690026422
347,1436374489693,71.728907629868
348,1436374490417,69.8748918507054
349,1436374491180,70.1122182426794
350,1436374491913,64.9267074021502
351,1436374492642,72.0715338448952
352,1436374493399,69.1029526621405
353,1436374494134,72.4002172353765
354,1436374494838,70.2187901029226
355,1436374495537,70.9551347792013
356,1436374496260,73.8064101467028
357,1436374496980,69.2225374235594
358,1436374497690,67.6349939926686
359,1436374498422,69.3035079008988
360,1436374499144,69.9405061113919
361,1436374499882,69.8183033019053
362,1436374500584,72.4294281283607
363,1436374501303,72.7325733919528
364,1436374502012,72.4019681387625
365,1436374502703,68.1392106668004
366,1436374503357,71.0760742554739
367,1436374504069,67.5896796875984
368,1436374504766,55.723019377026
369,1436374505472,71.964494822309
370,1436374506177,73.5966817654849
371,1436374506847,72.5744534013262
372,1436374507563,69.5537265678629
373,1436374508293,71.0618037297664
374,1436374509021,70.6733724922862
375,1436374509755,71.4002867703006
376,1436374510472,69.0079133528905
377,1436374511232,68.282532416227
378,1436374511962,71.3471760528476
379,1436374512663,72.4310229718005
380,1436374513389,68.9800012831257
381,1436374514178,72.9707417394862
382,1436374514870,72.394658244821
383,1436374515547,72.8215374603413
384,1436374516244,68.1762470031663
385,1436374516962,70.8203101793409
386,1436374517689,63.0215172438454
387,1436374518479,70.9967055377855
388,1436374519152,67.7847923594572
389,1436374519894,71.3007122116407
390,1436374520622,70.8055058634236
391,1436374521336,72.5069958701834
392,1436374522070,72.3726227078849
393,1436374522790,67.9053614798463
394,1436374523509,73.180279915739
395,1436374524233,70.9419253656019
396,1436374524948,72.7484671653159
397,1436374525604,70.6374826637835
398,1436374526376,72.6988829941924
399,1436374527054,71.7339373958518
400,1436374527751,72.0647462906574
401,1436374528458,66.1919862305965
402,1436374529167,71.5682625142314
403,1436374529895,73.1059555160839
404,1436374530629,69.0488294524296
405,1436374531319,69.9078061103065
406,1436374531978,70.0040332022765
407,1436374532694,72.0532939271507
408,1436374533413,69.8685105385618
409,1436374534144,68.8333867589612
410,1436374534870,67.2055069171748
411,1436374535584,72.7240030640238
412,1436374536375,71.5624730548308
413,1436374537089,71.5850481328267
414,1436374537793,71.5029716716015
415,1436374538452,70.7389600075837
416,1436374539183,70.6429297038978
417,1436374539893,69.3105434673172
418,1436374540693,71.7150618085222
419,1436374541503,70.5209799564545
420,1436374542230,72.4240264024948
421,1436374542958,70.1835185632886
422,1436374543685,66.667833915553
423,1436374544379,71.3342832707698
424,1436374545036,69.9949257141713
425,1436374545768,71.5616916408252
426,1436374546493,71.7359793035133
427,1436374547223,69.6493498708332
428,1436374547919,71.2433641489814
429,1436374548635,69.8000936204157
430,1436374549284,71.2318337514514
431,1436374549943,69.2280560764454
432,1436374551642,71.1754422557958
433,1436374552265,72.1289354486222
434,1436374552943,69.4038429244886
435,1436374553681,74.8953243689546
436,1436374554442,73.0796157686552
437,1436374555159,68.2799538640009
438,1436374555882,66.6726477954252
439,1436374556604,63.077440147313
440,1436374557329,72.2129966679126
441,1436374558077,72.5901572818542
442,1436374558786,70.2162167902571
443,1436374559502,70.6452785564881
444,1436374560184,74.051695909059
445,1436374560832,72.9966420415657
446,1436374561507,73.4973999622055
447,1436374562231,68.1072674903578
448,1436374562949,67.006679775562
449,1436374563684,65.1993994258195
450,1436374564374,71.8180550648618
451,1436374566172,72.8032137336413
452,1436374566874,63.0069284636029
453,1436374567606,70.8044880148927
454,1436374568342,71.8347968895905
455,1436374569069,70.3552240826418
456,1436374569746,70.0295881243643
457,1436374570479,69.238090076796
458,1436374571262,69.9915324183942
459,1436374571935,67.5436815382458
460,1436374572601,67.0523720782998
461,1436374573190,69.7722223013664
462,1436374573883,69.0604602079708
463,1436374574591,66.4315181733216
464,1436374575343,70.845638667195
465,1436374576075,70.8101008798125
466,1436374576795,72.2735188878019
467,1436374577569,71.6887362834216
468,1436374578319,71.7973662038079
469,1436374579050,68.5901589162732
470,1436374579777,63.4591096650638
471,1436374580549,70.3799369193257
472,1436374581329,71.6325666052247
473,1436374582011,70.1384470665445
474,1436374582694,70.8475588745225
475,1436374583342,73.2426339870777
476,1436374584050,70.7034542844414
477,1436374584774,70.1446477924659
478,1436374585592,69.0882496519879
479,1436374586432,72.3229643104059
480,1436374587144,73.5403002805156
481,1436374588873,64.906398631217
482,1436374589607,66.629401752466
483,1436374590348,62.2066747143796
484,1436374591093,68.247529960613
485,1436374591815,73.727133702425
486,1436374592490,73.0139217182283
487,1436374593150,71.4042829661086
488,1436374593848,70.1486832901678
489,1436374594575,68.8428608612313
490,1436374595298,68.2590007109218
491,1436374596003,68.8497694610681
492,1436374596713,70.8364805409659
493,1436374597423,69.3550979253781
494,1436374598119,72.1094969520507
495,1436374598766,70.3217849829331
496,1436374599497,71.9322723288913
497,1436374600147,72.0631187070463
498,1436374601347,70.2297547203519
499,1436374602063,68.1796354195783
500,1436374602773,70.700421166753
501,1436374603507,67.029994528544
502,1436374604222,68.6388396824228
503,1436374604946,70.7563542977253
504,1436374605625,72.0976144530169
505,1436374606344,68.5951716048318
506,1436374607065,66.5736053476911
507,1436374607772,62.9345340087567
508,1436374608517,58.5049953584092
509,1436374609257,67.8181174834082
510,1436374609981,71.4521134468
511,1436374610720,75.2289027991768
512,1436374611524,69.4437032641937
513,1436374612275,69.1624725505727
514,1436374612956,64.5420416468294
515,1436374613636,62.0812062519005
516,1436374614354,68.1079899873985
517,1436374615078,66.3880331029306
518,1436374615801,49.1212018616105
519,1436374616573,63.0362782338578
520,1436374617334,66.1674960846608
521,1436374618055,55.8151396737703
522,1436374618765,41.1028449455888
523,1436374619501,35.4281260929637
524,1436374620200,39.8777462813264
525,1436374620990,40.4175812479612
526,1436374621716,36.9272251178054
527,1436374622421,53.5983737284244
528,1436374623108,50.4174552511246
529,1436374623771,35.3998017621796
530,1436374624492,35.2532965692799
531,1436374625216,56.300875723438
532,1436374625925,36.2480324338192
533,1436374626542,34.5182663715005
534,1436374627303,66.3583480330875
535,1436374628008,39.5032722924343
536,1436374628701,63.3420483703636
537,1436374629380,42.4762716131873
538,1436374630120,62.1182535190189
539,1436374630883,38.4329468256692
540,1436374631680,37.7971938641078
541,1436374632407,37.2919196336436
542,1436374633132,37.9275527324454
543,1436374633855,61.0647701708382
544,1436374634575,41.5458529561964
545,1436374635323,64.3165168485718
546,1436374636038,68.8670519546206
547,1436374636738,40.8609963259748
548,1436374637515,51.9923062747458
549,1436374638235,39.4288807380446
550,1436374638966,42.2817318836197
551,1436374639696,36.1971421589577
552,1436374640416,61.312100270251
553,1436374641118,52.9561014345211
554,1436374641783,54.7922418252268
555,1436374642474,50.6926956542347
556,1436374643233,46.9745277741626
557,1436374643944,38.3539788734943
558,1436374644614,37.8206800415505
559,1436374645340,34.9898859159144
560,1436374646040,38.8836761733064
561,1436374646655,52.1803536214512
562,1436374647345,36.2300014285087
563,1436374647997,33.8722757142105
564,1436374648661,53.4264923388314
565,1436374649374,39.9393038350588
566,1436374650085,35.8771066200858
567,1436374650815,35.3225222416088
568,1436374651545,38.1121187185288
569,1436374652268,57.0979409142378
570,1436374652974,41.3793048108386
571,1436374653672,34.4638960291437
572,1436374654344,54.5215602243995
573,1436374655075,34.6181101319986
574,1436374655795,35.8330107378885
575,1436374656490,47.630847323913
