id,attr_time,attr_db
1,1436374238674,51.0916313032807
2,1436374239419,67.8927145263632
3,1436374240132,61.8928359326219
4,1436374240813,65.5667616280916
5,1436374241482,66.6074810230279
6,1436374242210,59.1002650915724
7,1436374242943,62.6330234815102
8,1436374243644,50.7929959570484
9,1436374244282,48.9305873892644
10,1436374245012,52.7025588917773
11,1436374245752,66.1684998876891
12,1436374246524,54.4804504289447
13,1436374247257,57.1581942314427
14,1436374247975,62.4144690584094
15,1436374248700,52.2388709421489
16,1436374249432,49.5867078690656
17,1436374250146,46.5475624615899
18,1436374250834,50.6147832292432
19,1436374251500,47.6566086431232
20,1436374252242,48.8006728160683
21,1436374253034,57.0577082153273
22,1436374253746,59.0869725919322
23,1436374254455,60.3698910249701
24,1436374255143,62.175835385612
25,1436374255936,57.5799588163676
26,1436374256693,62.2207505280636
27,1436374257434,64.6171950837773
28,1436374258167,63.3811860309855
29,1436374258908,69.2817496175342
30,1436374259649,72.9704728776231
31,1436374260378,61.4860468524063
32,1436374261081,59.7322382935424
33,1436374261817,63.5675010767822
34,1436374262544,66.3045318728608
35,1436374263206,66.5352198265729
36,1436374263940,61.9803581237986
37,1436374264802,66.4545381151369
38,1436374265410,59.1899221462966
39,1436374266182,56.0720473563625
40,1436374266931,58.8964290184885
41,1436374267678,60.8174609074602
42,1436374268356,49.54865815782
43,1436374269085,59.5396078825361
44,1436374269807,56.425012509869
45,1436374270609,54.5147778893952
46,1436374271445,57.5838764081621
47,1436374272123,58.7997186765368
48,1436374272888,56.4561814567246
49,1436374273606,50.7251825236013
50,1436374274338,45.0537826633182
51,1436374275069,40.6625037975075
52,1436374275794,55.6077958277685
53,1436374276530,53.1052003810144
54,1436374277255,46.8220345775226
55,1436374277992,53.7494949729688
56,1436374278729,46.2752528154698
57,1436374279453,43.4625605492258
58,1436374280177,42.7182418935432
59,1436374280895,46.9186082124224
60,1436374281644,53.6642402005834
61,1436374282337,54.1820467226609
62,1436374283049,54.3705850733896
63,1436374283770,55.5062483738217
64,1436374284439,49.7456836682568
65,1436374285171,54.4629785268564
66,1436374285905,45.8547469997454
67,1436374286633,39.3799837103832
68,1436374287355,44.1767657432635
69,1436374288076,50.0448725332726
70,1436374288799,48.1153358951249
71,1436374289536,56.8958758949593
72,1436374290260,54.527960992985
73,1436374291005,41.2016410458277
74,1436374291806,54.1637928849786
75,1436374292414,41.7342942930341
76,1436374293117,38.5586332257507
77,1436374293858,50.6556531876798
78,1436374294582,55.6869617238657
79,1436374295316,53.1886169030446
80,1436374296050,56.7788408728626
81,1436374296783,54.2706914377126
82,1436374297511,39.4567645040109
83,1436374298211,37.3601324511181
84,1436374298907,38.9079869296005
85,1436374299638,36.6516511989858
86,1436374300374,39.5644627807443
87,1436374301106,47.4625134704215
88,1436374301867,56.2587621871195
89,1436374302545,50.1909854226596
90,1436374303277,56.3162832004753
91,1436374304004,49.311795412908
92,1436374304750,46.0237409139346
93,1436374305469,39.5853177613058
94,1436374306188,37.5917378359381
95,1436374306942,48.6390589900961
96,1436374307683,51.7905233498889
97,1436374308411,57.432140726734
98,1436374309156,52.3435875576969
99,1436374309880,41.6792222399063
100,1436374310615,42.4549251035326
101,1436374311362,45.3161454349514
102,1436374312054,55.7846045459393
103,1436374312695,46.7236887705464
104,1436374313369,45.1814572381464
105,1436374314082,44.4575418392858
106,1436374314815,50.4686100366635
107,1436374315537,56.7423780127532
108,1436374316211,50.1301746316659
109,1436374317076,53.253698530209
110,1436374317794,50.2217489761772
111,1436374318534,57.1065454908389
112,1436374319261,57.3776155449409
113,1436374320006,60.3462618196587
114,1436374320726,60.3127890651355
115,1436374321455,54.7626087382307
116,1436374322168,53.7505090071085
117,1436374322848,55.5534503516777
118,1436374323508,50.7498672780889
119,1436374324264,48.8976172026284
120,1436374324995,56.2992627947856
121,1436374325730,54.3094909844542
122,1436374326542,55.737934023008
123,1436374327277,51.7964383412565
124,1436374327958,47.1126534054868
125,1436374328679,56.6332392227288
126,1436374329424,58.0324290132132
127,1436374330158,55.7980207269968
128,1436374330887,55.7014410231279
129,1436374331636,49.1666221972261
130,1436374332372,54.574356600858
131,1436374332957,49.083865641452
132,1436374333631,53.660465367261
133,1436374334356,49.61970491513
134,1436374335076,49.7291108243427
135,1436374335817,55.4859424120197
136,1436374336485,55.5744587368971
137,1436374337210,56.3847882149226
138,1436374337951,59.3304051668212
139,1436374338686,48.0037575543054
140,1436374339424,52.4967562396823
141,1436374340152,55.9486768314947
142,1436374340898,58.0054180344589
143,1436374341636,52.1282063003593
144,1436374342365,46.4805099376235
145,1436374343102,53.3437093359627
146,1436374343791,51.3952411027274
147,1436374344523,54.526225403826
148,1436374345251,57.5044700133063
149,1436374345982,55.4191004585902
150,1436374346595,61.6786652901484
151,1436374347279,60.2389443146083
152,1436374348023,63.0092407274171
153,1436374348762,57.0642951496191
154,1436374349507,55.2530707857144
155,1436374350219,55.3343232050285
156,1436374350964,58.9279555779396
157,1436374351690,53.0771422320942
158,1436374352449,51.5561408480877
159,1436374353158,56.5913541943848
160,1436374353819,54.716446800042
161,1436374354564,56.1975306020291
162,1436374355289,57.8893590583383
163,1436374355990,59.7398776166798
164,1436374356681,52.2420658966175
165,1436374357285,58.8204308300475
166,1436374357971,56.6975939787549
167,1436374358707,58.9605974261384
168,1436374359379,54.518831524193
169,1436374361103,58.4298405664371
170,1436374361797,57.0733598727647
171,1436374362509,58.1183793993998
172,1436374363235,56.9242708873717
173,1436374363953,59.1623411673446
174,1436374364702,58.7025865307262
175,1436374365413,60.0232995493426
176,1436374366143,63.1320635165913
177,1436374366869,58.1461592336015
178,1436374367613,59.7600656436143
179,1436374368382,59.0204447114935
180,1436374369118,53.6658699686457
181,1436374369832,55.0333535548607
182,1436374370557,53.9387009610872
183,1436374371296,54.5767455166494
184,1436374372034,54.2062589278888
185,1436374372731,59.1695758860641
186,1436374373352,57.2611732543319
187,1436374374855,47.3270961811058
188,1436374375535,45.5685474587297
189,1436374376261,46.0633844008376
190,1436374376988,52.8073605957194
191,1436374377738,56.2025228336925
192,1436374378467,54.9661912089918
193,1436374379223,57.0974737473084
194,1436374379957,52.9837042521074
195,1436374380694,48.5628915413827
196,1436374381427,49.2311167444784
197,1436374382170,55.4778444761304
198,1436374382903,50.4352131785764
199,1436374383644,44.5668736316703
200,1436374384371,54.9804438331443
201,1436374385032,48.210038619065
202,1436374385781,56.9247951127067
203,1436374386531,50.641903002733
204,1436374387261,43.2836911117245
205,1436374388155,53.4011542357653
206,1436374388858,54.8336262079235
207,1436374389590,56.5258246119076
208,1436374390333,45.8525770705758
209,1436374391070,51.04484931393
210,1436374391811,55.7169414324899
211,1436374392631,38.5882481290484
212,1436374393343,44.5396574109004
213,1436374393905,38.0791261333162
214,1436374394582,37.6598293175263
215,1436374395329,45.7262939985188
216,1436374396050,44.1394503871833
217,1436374396728,68.6321783419857
218,1436374398336,53.6923544034242
219,1436374399046,75.6784337365444
220,1436374399783,53.211203146726
221,1436374400514,47.3278036022266
222,1436374401250,39.8553866490199
223,1436374401986,60.7290519425224
224,1436374402708,71.0899898832913
225,1436374403427,54.7087286474409
226,1436374404145,54.6319581703982
227,1436374404864,62.7960902236512
228,1436374405544,44.974826474505
229,1436374406213,50.6955616986036
230,1436374407055,39.7382424624679
231,1436374407822,50.2794908204149
232,1436374408529,51.3349458473702
233,1436374409274,42.1190957484865
234,1436374409990,36.9044499045593
235,1436374411978,57.3859829984256
236,1436374412703,35.470171741535
237,1436374413434,40.8588630287869
238,1436374414150,38.4639330024916
239,1436374414883,45.8639226088125
240,1436374415598,47.1281495241405
241,1436374416247,47.2142095086679
242,1436374417079,46.2858972726593
243,1436374417830,43.722011143906
244,1436374418539,36.412026242824
245,1436374419281,37.2863595009719
246,1436374420013,36.4830387962554
247,1436374420731,46.602216920701
248,1436374421463,45.4799277595934
249,1436374422189,50.5548703362956
250,1436374422907,60.0930439394799
251,1436374423589,55.5102300069381
252,1436374424314,63.0455407118944
253,1436374425049,60.9834302328251
254,1436374425781,57.9359051244446
255,1436374426498,48.0511236294902
256,1436374427217,48.5911775686938
257,1436374427936,49.1557718746411
258,1436374428619,41.5369735942932
259,1436374429324,47.1759861226979
260,1436374430060,66.485611651743
261,1436374430804,62.3420518827432
262,1436374431543,42.291962480996
263,1436374432273,51.3051516837605
264,1436374433020,43.2887587490119
265,1436374433713,43.9674873800154
266,1436374434359,47.9023665318812
267,1436374435053,61.4175454340389
268,1436374435794,69.4572477286131
269,1436374436511,47.7306871653765
270,1436374437218,58.5878548586543
271,1436374437889,35.2903609307069
272,1436374438599,71.0870592618638
273,1436374439332,65.836001387249
274,1436374440101,56.6441724582677
275,1436374440841,52.084481756658
276,1436374441572,47.7735877080227
277,1436374442294,54.8157243142268
278,1436374443060,25.3003184090763
279,1436374443707,39.2046649870128
280,1436374444409,53.9479944080197
281,1436374445145,56.6970908210404
282,1436374445868,69.6260459583593
283,1436374446600,66.0966236682242
284,1436374447341,71.9467730403742
285,1436374448010,53.5448567789741
286,1436374448674,38.5772379953776
287,1436374449579,54.67008406335
288,1436374450180,56.526673670852
289,1436374450732,72.3233718602339
290,1436374451285,74.7205531469197
291,1436374451872,58.3522966037689
292,1436374452460,64.3650468904189
293,1436374453081,50.646216611916
294,1436374453735,51.6712468348528
295,1436374454380,58.3050411359085
296,1436374455139,59.2426447257331
297,1436374455858,55.5302939266976
298,1436374456593,57.9645138543118
299,1436374457315,54.9096792075026
300,1436374458042,40.8957769674528
301,1436374458748,45.4430049680139
302,1436374459331,45.4002680509605
303,1436374459913,46.4993395866246
304,1436374460536,49.4544156788056
305,1436374461199,37.0588096744436
306,1436374462027,64.5374096848517
307,1436374462784,61.5064282776827
308,1436374463514,61.6248726018132
309,1436374464263,54.3051647493856
310,1436374465030,39.5651559841443
311,1436374465776,44.0393427765519
312,1436374466496,33.3100063334888
313,1436374467231,41.4212487033087
314,1436374467950,46.0738286697798
315,1436374468679,33.2317164799939
316,1436374469321,32.8813766529654
317,1436374470040,34.1350444853783
318,1436374470807,28.8417304257063
319,1436374471545,39.5017553855891
320,1436374472339,36.300072902709
321,1436374473051,32.1749040776133
322,1436374473767,25.7726409006044
323,1436374474453,28.0574117283696
324,1436374475154,28.759859475737
325,1436374475870,27.6047463902341
326,1436374476602,35.0659392402687
327,1436374477330,32.8673326279951
328,1436374478060,34.8903071858296
329,1436374478793,34.234062758227
330,1436374479516,43.4420695651688
331,1436374480169,46.5903215464815
332,1436374480943,46.3076342131401
333,1436374481683,47.6135703474178
334,1436374482470,53.9478771818079
335,1436374483178,48.887627886295
336,1436374483953,71.1146557471898
337,1436374484654,47.2677834076144
338,1436374485404,56.2109607002257
339,1436374486140,45.5369984874429
340,1436374486876,63.2958969936581
341,1436374487684,52.5099481503165
342,1436374488425,50.4454496816393
343,1436374489158,53.1189866127168
344,1436374489894,50.5548130991913
345,1436374490645,46.6773820491299
346,1436374491327,43.4718676197378
347,1436374492122,45.710789423466
348,1436374492870,52.7004561234539
349,1436374493606,38.2253764326503
350,1436374494221,37.9308116270813
351,1436374494917,38.2574906865215
352,1436374495657,44.8625109718596
353,1436374496396,48.6575431611128
354,1436374497177,42.5152434964555
355,1436374497860,44.1748411994053
356,1436374498533,43.7804178530403
357,1436374499250,42.9768283606341
358,1436374499981,50.7716458433756
359,1436374500730,40.8790376210869
360,1436374501415,43.489671708067
361,1436374502197,46.895090763469
362,1436374502944,62.1336684952164
363,1436374503665,47.0063846671624
364,1436374504345,45.2839052978254
365,1436374505067,50.840698815863
366,1436374505801,39.9495858734776
367,1436374506526,41.4359504223414
368,1436374507276,43.7596855539972
369,1436374508001,47.6750448514192
370,1436374508797,45.1955782710103
371,1436374509522,45.9576984150401
372,1436374510247,53.3358091583228
373,1436374510970,37.8586839738408
374,1436374511733,50.9016513420794
375,1436374512506,48.2043154463167
376,1436374513229,41.7210735845659
377,1436374513902,44.2710639802529
378,1436374514484,41.8063887748939
379,1436374515148,42.4462113502659
380,1436374515857,38.0195349511753
381,1436374516592,45.6563333240573
382,1436374517387,52.6309497390848
383,1436374518166,65.023354680505
384,1436374518852,60.0905927499694
385,1436374519584,45.997043013642
386,1436374520339,48.5883343895308
387,1436374521087,53.63485298811
388,1436374521821,56.5092124692369
389,1436374522492,62.2222288372383
390,1436374523226,68.9065664551349
391,1436374523954,53.7003942499277
392,1436374524681,44.7164255610706
393,1436374525382,55.0720217265978
394,1436374526135,59.6820498804024
395,1436374526867,61.7328235540518
396,1436374527621,59.4070440224056
397,1436374528364,53.4899453919618
398,1436374529098,49.4153126477541
399,1436374529821,55.0883363176962
400,1436374530551,48.3446328631894
401,1436374531277,56.1383464858503
402,1436374532006,44.9967351763986
403,1436374532701,45.2099432611787
404,1436374533381,45.8098900232407
405,1436374534107,53.2844671201117
406,1436374534892,45.1906414964813
407,1436374535613,46.872521083922
408,1436374536349,55.4900797959877
409,1436374537079,42.1372139445372
410,1436374537805,43.5867444380981
411,1436374538552,44.6333781932771
412,1436374539269,53.5937635065276
413,1436374540014,44.6061827694607
414,1436374540741,47.348852633926
415,1436374541472,51.3444588674793
416,1436374542205,46.9159839747527
417,1436374542972,56.1501988526866
418,1436374543703,48.2640372187405
419,1436374544463,45.0676303513847
420,1436374545173,48.9036970262194
421,1436374545906,56.4794530396749
422,1436374546642,53.159111826352
423,1436374547381,49.4030297499521
424,1436374548158,57.5944041933601
425,1436374548882,55.1572449877182
426,1436374549628,56.3371452821758
427,1436374550371,53.1663890372315
428,1436374551125,50.8386287560289
429,1436374551859,50.650530723131
430,1436374552593,56.9346592304022
431,1436374553337,55.1462150543016
432,1436374554034,56.6355723798239
433,1436374554722,55.4966805970572
434,1436374555459,48.1393703274568
435,1436374556150,50.3807400150802
436,1436374556877,60.0442701144328
437,1436374557602,46.7950973397101
438,1436374558263,48.0330815868395
439,1436374558959,53.7364419348558
440,1436374559687,56.270404569165
441,1436374560436,63.247587658808
442,1436374561192,59.0163594991854
443,1436374561939,60.3860376623933
444,1436374562662,60.9720540025768
445,1436374563387,55.3006281842261
446,1436374564061,59.6453640464535
447,1436374565339,59.7337968021004
448,1436374565947,54.79151495772
449,1436374566631,58.5297291170566
450,1436374567224,58.0025950666685
451,1436374567887,55.6506149549025
452,1436374568608,51.4930230497519
453,1436374569346,53.3462828023836
454,1436374570077,56.8853130012651
455,1436374570823,51.2737008956028
456,1436374571535,42.9550883710095
457,1436374572264,58.7291327315403
458,1436374573001,69.7959154676979
459,1436374573737,49.8794887332152
460,1436374574464,67.4005303750295
461,1436374575104,48.3031632048602
462,1436374575870,69.9301027117896
463,1436374576594,49.2026041694898
464,1436374577321,64.6572209994402
465,1436374578002,74.9730405751973
466,1436374578679,59.0247882233917
467,1436374579408,57.8186486674213
468,1436374580155,47.7768241454118
469,1436374580887,53.7596749701769
470,1436374581604,50.1120658062989
471,1436374583551,44.9240451755459
472,1436374584286,60.3033205879633
473,1436374585023,45.7549292977504
474,1436374585734,44.2683454944427
475,1436374586332,40.7134474395131
476,1436374587035,43.7834436186456
477,1436374587764,58.9169173730209
478,1436374588419,41.6972426598617
479,1436374589144,45.696203921598
480,1436374589887,45.0290450493168
481,1436374590622,51.6450898079794
482,1436374591387,43.0091653888475
483,1436374592119,42.4647065446423
484,1436374592881,40.4928409294234
485,1436374593604,47.3620653343176
486,1436374594332,51.4543219896494
487,1436374595036,48.4133622409437
488,1436374595735,50.2207471049015
489,1436374596412,42.974773129587
490,1436374597155,58.2147646908765
491,1436374597914,46.1860980505493
492,1436374598573,60.4861458998781
493,1436374599311,43.9460311515902
494,1436374600046,58.8339481795333
495,1436374600799,60.8969126133102
496,1436374601553,43.2464756286351
497,1436374602280,50.8013907671271
498,1436374603012,39.7456821707514
499,1436374603735,63.7345746402899
500,1436374604440,50.6030510419867
501,1436374605085,42.9147520954524
502,1436374605819,49.3415957908235
503,1436374606474,54.0131007699276
504,1436374607098,48.6418445146856
505,1436374607789,54.3767760752824
506,1436374608595,39.6006755812244
507,1436374609347,48.2546084781366
508,1436374610040,40.1173361601239
509,1436374610766,34.6659649143761
510,1436374611464,34.4914665074009
511,1436374612076,54.2535554578714
512,1436374612756,39.1350026750237
513,1436374614546,49.5135409313546
514,1436374615223,39.2042695378422
515,1436374615883,28.0273977359317
516,1436374616598,36.8630881959596
517,1436374617279,30.4302021707484
518,1436374617917,53.1907531473668
519,1436374618722,35.1736306672067
520,1436374619445,35.5974885997179
521,1436374620171,40.9123368908498
522,1436374620941,32.8978239534734
523,1436374621663,32.7223250371264
524,1436374622396,41.761504640216
525,1436374623147,42.426051535999
526,1436374623871,35.2382942433508
527,1436374624585,47.5303843658831
528,1436374625345,33.6226191452673
529,1436374626071,35.0509052063179
530,1436374626798,45.5366241908356
531,1436374627526,34.352606327682
532,1436374628305,39.9424410083836
533,1436374629066,35.2955432150398
534,1436374629810,43.2671643669655
535,1436374630452,36.4557591072031
536,1436374632337,43.6783587989625
537,1436374633096,38.5903314000101
538,1436374633841,38.0806505914374
539,1436374634615,59.7295997684883
540,1436374635363,41.9744886122744
541,1436374635961,41.3256251688843
542,1436374636693,46.8138898871972
543,1436374637400,44.8533937304164
544,1436374638064,53.6858383313146
545,1436374638899,45.7044807935834
546,1436374639605,35.0254003740822
547,1436374640228,35.4317174883183
548,1436374640924,37.6806021604954
549,1436374641668,47.4502130422767
550,1436374642380,40.5923683590645
551,1436374643183,33.9914992393395
552,1436374643929,38.9318428577816
553,1436374644661,34.8481895873554
554,1436374645410,35.6155452179668
555,1436374646153,59.7657181475953
556,1436374646877,37.3685793063304
557,1436374647622,73.0707328981707
558,1436374648341,69.3745942495257
559,1436374649067,38.2913154682775
560,1436374649831,36.372410778887
561,1436374650495,35.1154984823451
562,1436374651247,60.3225863163641
563,1436374651983,59.5247385411704
564,1436374652701,37.4353495494045
565,1436374653429,33.8445130127134
566,1436374654153,55.9383043030594
567,1436374654880,64.7936160740035
568,1436374655621,62.3119562400955
569,1436374656373,48.98400545805
570,1436374657102,37.1793661717313
571,1436374657815,39.8557666326188
572,1436374658468,35.944778878194
573,1436374659207,37.4997913875881
574,1436374659929,39.9069129026453
575,1436374660652,36.8455613188733
