id,attr_time,attr_x,attr_y,attr_z
1,1435990454133,26.684,-37.559,-13.233
2,1435990454150,26.684,-37.245,-13.233
3,1435990454169,26.684,-37.245,-13.233
4,1435990454190,26.684,-37.245,-13.233
5,1435990454209,26.342,-37.245,-13.233
6,1435990454230,26.342,-37.245,-13.233
7,1435990454256,26.342,-37.245,-13.233
8,1435990454271,26.342,-37.245,-13.233
9,1435990454290,26.342,-37.245,-13.233
10,1435990454317,26.342,-37.245,-13.233
11,1435990454332,26.342,-37.245,-13.233
12,1435990454349,26.342,-37.245,-13.233
13,1435990454375,26.342,-37.245,-13.233
14,1435990454390,26.342,-37.245,-13.233
15,1435990454412,26.342,-37.245,-13.233
16,1435990454431,26.342,-37.245,-13.233
17,1435990454453,26.342,-37.245,-13.233
18,1435990454471,26.342,-37.245,-13.233
19,1435990454496,26.033,-37.245,-13.233
20,1435990454513,26.033,-37.245,-13.233
21,1435990454536,26.033,-37.245,-13.233
22,1435990454550,26.033,-37.245,-13.233
23,1435990454571,26.033,-37.245,-13.233
24,1435990454589,26.033,-37.245,-13.233
25,1435990454610,26.033,-37.245,-13.233
26,1435990454630,26.033,-37.245,-13.233
27,1435990454650,26.033,-37.245,-13.233
28,1435990454671,26.033,-37.245,-13.233
29,1435990454690,26.033,-37.245,-13.233
30,1435990454711,26.033,-37.245,-13.233
31,1435990454732,25.718,-37.245,-13.233
32,1435990454754,25.718,-37.245,-13.233
33,1435990454804,25.718,-37.245,-13.233
34,1435990454839,25.718,-37.245,-13.233
35,1435990454840,25.718,-37.245,-13.233
36,1435990454841,25.718,-37.245,-13.233
37,1435990454859,25.718,-37.245,-13.233
38,1435990454872,25.718,-37.245,-13.233
39,1435990454891,25.718,-37.245,-13.233
40,1435990454933,25.718,-37.245,-13.233
41,1435990454934,25.718,-37.245,-13.233
42,1435990454960,25.718,-37.245,-13.233
43,1435990454970,25.718,-37.245,-13.233
44,1435990454990,26.022,-37.245,-13.233
45,1435990455010,26.022,-37.245,-13.233
46,1435990455030,26.022,-37.245,-13.233
47,1435990455052,26.022,-37.245,-13.233
48,1435990455073,26.022,-37.245,-13.233
49,1435990455092,26.022,-37.245,-13.233
50,1435990455111,26.022,-37.55,-13.233
51,1435990455133,26.351,-37.55,-13.233
52,1435990455151,26.351,-37.55,-13.233
53,1435990455173,26.351,-37.55,-13.233
54,1435990455192,26.351,-37.55,-13.233
55,1435990455211,26.351,-37.55,-13.233
56,1435990455231,26.66,-37.55,-13.233
57,1435990455251,26.66,-37.55,-13.233
58,1435990455272,26.66,-37.55,-13.233
59,1435990455292,26.66,-37.55,-13.233
60,1435990455311,26.66,-37.55,-13.233
61,1435990455333,26.66,-37.55,-13.233
62,1435990455351,26.66,-37.55,-13.233
63,1435990455382,26.66,-37.55,-13.233
64,1435990455391,26.66,-37.55,-13.233
65,1435990455413,26.66,-37.55,-13.233
66,1435990455431,26.66,-37.55,-13.233
67,1435990455452,26.66,-37.55,-13.233
68,1435990455471,26.66,-37.55,-13.233
69,1435990455492,26.66,-37.55,-13.233
70,1435990455551,26.66,-37.55,-13.233
71,1435990455561,26.66,-37.55,-13.233
72,1435990455562,26.66,-37.55,-13.233
73,1435990455572,26.66,-37.55,-13.233
74,1435990455602,26.66,-37.55,-13.233
75,1435990455614,26.66,-37.55,-13.233
76,1435990455631,26.66,-37.55,-13.233
77,1435990455652,26.66,-37.55,-13.233
78,1435990455671,26.66,-37.55,-13.233
79,1435990455694,26.66,-37.55,-13.233
80,1435990455711,26.66,-37.55,-13.233
81,1435990455734,26.66,-37.55,-13.233
82,1435990455751,26.66,-37.55,-13.233
83,1435990455773,26.66,-37.55,-13.233
84,1435990455794,26.66,-37.55,-13.233
85,1435990455813,26.66,-37.55,-13.233
86,1435990455834,26.66,-37.55,-13.233
87,1435990455852,26.66,-37.55,-13.233
88,1435990455873,26.66,-37.55,-13.233
89,1435990455894,26.332,-37.55,-13.233
90,1435990455914,26.332,-37.55,-13.233
91,1435990455934,26.332,-37.55,-13.233
92,1435990455952,26.332,-37.55,-13.233
93,1435990455973,26.332,-37.55,-13.233
94,1435990455996,26.332,-37.55,-13.233
95,1435990456015,26.332,-37.55,-13.233
96,1435990456035,26.332,-37.55,-13.58
97,1435990456052,26.332,-37.55,-13.58
98,1435990456073,26.332,-37.55,-13.58
99,1435990456093,26.332,-37.24,-13.58
100,1435990456111,26.332,-37.24,-13.58
101,1435990456135,26.332,-37.24,-13.58
102,1435990456155,26.332,-37.24,-13.58
103,1435990456175,26.332,-37.24,-13.58
104,1435990456194,26.332,-37.24,-13.58
105,1435990456220,26.332,-37.24,-13.58
106,1435990456283,26.332,-37.24,-13.58
107,1435990456284,26.332,-37.24,-13.58
108,1435990456285,26.332,-37.24,-13.58
109,1435990456293,26.332,-37.24,-13.58
110,1435990456327,26.332,-37.562,-13.58
111,1435990456334,26.332,-37.562,-13.58
112,1435990456351,26.332,-37.562,-13.58
113,1435990456375,26.332,-37.562,-13.58
114,1435990457646,26.632,-37.562,-13.58
115,1435990457647,26.632,-37.562,-13.58
116,1435990457648,26.632,-37.562,-13.58
117,1435990457649,26.632,-37.562,-13.58
118,1435990457650,26.632,-37.562,-13.58
119,1435990457651,26.632,-37.562,-13.58
120,1435990457652,26.632,-37.562,-13.58
121,1435990457653,26.632,-37.562,-13.58
122,1435990457654,26.632,-37.562,-13.58
123,1435990457655,26.632,-37.562,-13.58
124,1435990457656,26.632,-37.562,-13.58
125,1435990457657,26.632,-37.562,-13.58
126,1435990457658,26.632,-37.562,-13.58
127,1435990457659,26.632,-37.562,-13.58
128,1435990457660,26.632,-37.562,-13.58
129,1435990457661,26.632,-37.562,-13.58
130,1435990457662,26.632,-37.562,-13.58
131,1435990457663,26.632,-37.562,-13.58
132,1435990457664,26.632,-37.562,-13.58
133,1435990457665,26.632,-37.562,-13.58
134,1435990457666,26.632,-37.562,-13.58
135,1435990457667,26.632,-37.562,-13.58
136,1435990457668,26.304,-37.562,-13.58
137,1435990457669,26.304,-37.562,-13.58
138,1435990457670,26.304,-37.562,-13.58
139,1435990457671,26.304,-37.562,-13.58
140,1435990457672,26.304,-37.562,-13.58
141,1435990457673,25.97,-37.562,-13.58
142,1435990457674,25.97,-37.257,-13.58
143,1435990457675,25.97,-37.257,-13.58
144,1435990457676,25.668,-37.257,-13.58
145,1435990457677,25.668,-37.257,-13.58
146,1435990457678,25.668,-37.257,-13.58
147,1435990457679,25.668,-37.257,-13.58
148,1435990457680,25.668,-37.257,-13.58
149,1435990457681,25.668,-37.257,-13.58
150,1435990457682,25.331,-36.933,-13.58
151,1435990457683,25.331,-36.933,-13.58
152,1435990457684,25.331,-36.933,-13.58
153,1435990457685,25.331,-36.933,-13.58
154,1435990457686,25.331,-36.933,-13.58
155,1435990457687,25.331,-36.933,-13.58
156,1435990457688,25.331,-36.933,-13.58
157,1435990457689,25.331,-36.933,-13.58
158,1435990457690,25.331,-36.933,-13.58
159,1435990457691,25.331,-36.933,-13.58
160,1435990457692,25.331,-36.933,-13.58
161,1435990457693,25.331,-36.933,-13.58
162,1435990457694,25.331,-36.933,-13.58
163,1435990457695,25.331,-36.933,-13.58
164,1435990457696,25.656,-36.933,-13.58
165,1435990457697,25.656,-37.28,-13.58
166,1435990457698,25.656,-37.28,-13.58
167,1435990457699,25.656,-37.28,-13.58
168,1435990457700,25.656,-37.28,-13.58
169,1435990457701,25.656,-37.28,-13.58
170,1435990457702,25.656,-37.28,-13.58
171,1435990457703,25.973,-37.28,-13.58
172,1435990457704,25.973,-37.28,-13.58
173,1435990457705,25.973,-37.28,-13.58
174,1435990457706,25.973,-37.28,-13.58
175,1435990457707,25.973,-37.28,-13.58
176,1435990457708,25.973,-37.28,-13.58
177,1435990457709,25.973,-37.28,-13.58
178,1435990457710,25.973,-37.28,-13.58
179,1435990457711,25.973,-37.28,-13.58
180,1435990457712,25.973,-37.28,-13.58
181,1435990457732,25.973,-37.28,-13.58
182,1435990457752,25.973,-37.28,-13.58
183,1435990457772,25.973,-37.28,-13.58
184,1435990457792,25.973,-37.28,-13.58
185,1435990457812,25.973,-37.28,-13.58
186,1435990457832,25.973,-37.28,-13.58
187,1435990457852,25.973,-37.28,-13.58
188,1435990457872,25.973,-37.28,-13.58
189,1435990457892,25.973,-37.28,-13.58
190,1435990457916,25.973,-37.28,-13.58
191,1435990457933,25.973,-37.28,-13.58
192,1435990457956,25.973,-37.28,-13.58
193,1435990457976,25.973,-37.28,-13.58
194,1435990457994,25.973,-37.28,-13.58
195,1435990458016,25.973,-37.28,-13.58
196,1435990458034,25.973,-37.28,-13.58
197,1435990458057,25.973,-37.28,-13.58
198,1435990458078,25.973,-37.28,-13.58
199,1435990458099,25.973,-37.28,-13.58
200,1435990458116,25.973,-37.28,-13.58
201,1435990458133,25.973,-37.28,-13.58
202,1435990458154,25.973,-37.28,-13.58
203,1435990458175,25.973,-37.28,-13.58
204,1435990458196,25.973,-37.28,-13.58
205,1435990458213,25.973,-37.28,-13.58
206,1435990458268,25.973,-37.28,-13.58
207,1435990458269,25.973,-37.28,-13.58
208,1435990458280,25.973,-37.28,-13.58
209,1435990458293,25.973,-37.28,-13.58
210,1435990458325,25.973,-37.28,-13.58
211,1435990458375,25.973,-37.28,-13.58
212,1435990458376,25.973,-37.28,-13.58
213,1435990458403,25.973,-37.28,-13.58
214,1435990458404,25.973,-37.28,-13.58
215,1435990458421,25.973,-37.28,-13.58
216,1435990458433,25.973,-37.28,-13.58
217,1435990458454,25.973,-37.28,-13.58
218,1435990458474,25.973,-37.28,-13.58
219,1435990458497,26.277,-37.28,-13.58
220,1435990458517,26.277,-37.28,-13.58
221,1435990458537,26.277,-37.28,-13.58
222,1435990458556,26.277,-37.28,-13.58
223,1435990458577,26.277,-37.28,-13.58
224,1435990458597,26.277,-37.28,-13.58
225,1435990458617,26.277,-37.28,-13.58
226,1435990458637,26.277,-37.28,-13.58
227,1435990458657,26.277,-37.28,-13.58
228,1435990458674,26.586,-37.591,-13.58
229,1435990458696,26.586,-37.591,-13.58
230,1435990458716,26.586,-37.591,-13.58
231,1435990458737,26.586,-37.591,-13.58
232,1435990458757,26.586,-37.591,-13.58
233,1435990458776,26.586,-37.591,-13.58
234,1435990458797,26.586,-37.591,-13.58
235,1435990458817,26.586,-37.591,-13.58
236,1435990458837,26.586,-37.591,-13.58
237,1435990458857,26.586,-37.591,-13.58
238,1435990458877,26.586,-37.591,-13.58
239,1435990458898,26.586,-37.591,-13.58
240,1435990458917,26.586,-37.591,-13.58
241,1435990459000,26.586,-37.591,-13.58
242,1435990459001,26.586,-37.591,-13.58
243,1435990459002,26.586,-37.591,-13.58
244,1435990459003,26.586,-37.591,-13.58
245,1435990459021,26.586,-37.591,-13.58
246,1435990459034,26.586,-37.591,-13.58
247,1435990459057,26.586,-37.591,-13.58
248,1435990459076,26.586,-37.591,-13.58
249,1435990459095,26.586,-37.591,-13.58
250,1435990459116,26.586,-37.591,-13.58
251,1435990459136,26.586,-37.591,-13.58
252,1435990459156,26.586,-37.591,-13.58
253,1435990459175,26.586,-37.591,-13.58
254,1435990459197,26.586,-37.591,-13.58
255,1435990459217,26.586,-37.591,-13.58
256,1435990459237,26.586,-37.591,-13.58
257,1435990459257,26.586,-37.591,-13.58
258,1435990459277,26.586,-37.591,-13.58
259,1435990459297,26.586,-37.591,-13.58
260,1435990459316,26.586,-37.591,-13.58
261,1435990459335,26.586,-37.591,-13.58
262,1435990459356,26.586,-37.591,-13.58
263,1435990459378,26.586,-37.591,-13.58
264,1435990459403,26.586,-37.591,-13.58
265,1435990459415,26.586,-37.591,-13.58
266,1435990459437,26.586,-37.591,-13.58
267,1435990459457,26.586,-37.591,-13.58
268,1435990459474,26.586,-37.591,-13.58
269,1435990459498,26.586,-37.591,-13.58
270,1435990459515,26.586,-37.591,-13.58
271,1435990459537,26.586,-37.591,-13.58
272,1435990459556,26.586,-37.591,-13.58
273,1435990459576,26.895,-37.591,-13.58
274,1435990459598,26.895,-37.591,-13.58
275,1435990459618,26.895,-37.591,-13.58
276,1435990459637,26.895,-37.591,-13.58
277,1435990459662,26.895,-37.591,-13.58
278,1435990459730,26.895,-37.28,-13.58
279,1435990459731,26.895,-37.28,-13.58
280,1435990459739,26.895,-37.28,-13.58
281,1435990459740,26.895,-37.28,-13.58
282,1435990459755,26.567,-37.28,-13.58
283,1435990459777,26.567,-37.28,-13.58
284,1435990459795,26.567,-37.28,-13.58
285,1435990459816,26.567,-37.28,-13.58
286,1435990459836,26.567,-37.28,-13.58
287,1435990459856,26.567,-37.28,-13.58
288,1435990459875,26.567,-37.28,-13.58
289,1435990459897,26.567,-37.28,-13.58
290,1435990459918,26.567,-37.28,-13.58
291,1435990459938,26.231,-36.959,-13.58
292,1435990459958,26.231,-36.959,-13.58
293,1435990459978,26.231,-36.959,-13.58
294,1435990459998,26.231,-36.959,-13.58
295,1435990460018,26.231,-36.959,-13.58
296,1435990460038,26.231,-36.959,-13.58
297,1435990460058,26.231,-36.959,-13.58
298,1435990460078,26.231,-36.959,-13.58
299,1435990460097,26.231,-36.959,-13.58
300,1435990460117,26.231,-36.959,-13.58
301,1435990460138,26.231,-36.959,-13.58
302,1435990460158,26.231,-36.959,-13.58
303,1435990460178,26.231,-36.959,-13.58
304,1435990460197,26.231,-36.959,-13.58
305,1435990460218,26.559,-36.959,-13.58
306,1435990460238,26.559,-36.959,-13.58
307,1435990460259,26.559,-36.959,-13.58
308,1435990460278,26.559,-36.959,-13.58
309,1435990460295,26.559,-36.959,-13.58
310,1435990460318,26.559,-36.959,-13.58
311,1435990460338,26.559,-37.284,-13.58
312,1435990460457,26.559,-37.284,-13.58
313,1435990460458,26.559,-37.284,-13.58
314,1435990460459,26.559,-37.284,-13.58
315,1435990460460,26.873,-37.284,-13.58
316,1435990460461,26.873,-37.284,-13.58
317,1435990460462,26.873,-37.284,-13.58
318,1435990460476,26.873,-37.284,-13.58
319,1435990460496,26.873,-37.284,-13.58
320,1435990460515,26.873,-37.284,-13.58
321,1435990460536,26.873,-37.284,-13.58
322,1435990460558,26.873,-37.284,-13.58
323,1435990460576,26.873,-37.284,-13.903
324,1435990460596,26.499,-37.284,-13.903
325,1435990460616,26.499,-37.284,-13.903
326,1435990460639,26.499,-37.284,-14.237
327,1435990460656,26.097,-37.284,-14.237
328,1435990460677,26.097,-37.284,-14.584
329,1435990460696,25.517,-37.284,-14.964
330,1435990460719,24.464,-37.284,-15.911
331,1435990460740,23.925,-37.284,-15.911
332,1435990460759,23.326,-37.284,-16.711
333,1435990460779,22.463,-37.619,-17.376
334,1435990460799,22.082,-37.619,-18.164
335,1435990460819,21.745,-37.619,-18.164
336,1435990460836,20.87,-37.619,-18.948
337,1435990460858,20.549,-37.619,-19.322
338,1435990460879,19.828,-37.969,-19.833
339,1435990460897,19.367,-37.969,-19.833
340,1435990460916,18.838,-37.969,-19.833
341,1435990460936,18.838,-37.969,-20.625
342,1435990460961,17.568,-38.291,-20.164
343,1435990460981,17.568,-38.291,-20.558
344,1435990461002,17.042,-38.291,-20.558
345,1435990461018,15.921,-38.291,-21.279
346,1435990461037,15.371,-38.291,-21.279
347,1435990461057,15.371,-38.639,-22.149
348,1435990461076,14.747,-38.639,-22.149
349,1435990461097,14.157,-38.639,-22.149
350,1435990461119,13.546,-38.639,-22.149
351,1435990461166,12.593,-38.639,-22.149
352,1435990461167,11.878,-38.978,-22.149
353,1435990461185,11.407,-38.978,-22.149
354,1435990461196,11.407,-38.978,-22.149
355,1435990461220,10.896,-38.978,-22.149
356,1435990461236,10.896,-38.978,-22.149
357,1435990461257,10.548,-39.352,-22.509
358,1435990461281,10.548,-39.352,-22.509
359,1435990461298,10.548,-39.352,-22.509
360,1435990461326,10.548,-39.352,-22.814
361,1435990461339,10.548,-39.715,-22.814
362,1435990461357,10.548,-39.715,-22.814
363,1435990461378,11.093,-39.715,-22.814
364,1435990461397,10.734,-39.715,-23.139
365,1435990461417,10.734,-40.061,-23.139
366,1435990461440,10.734,-40.061,-23.139
367,1435990461460,10.734,-40.061,-23.139
368,1435990461480,10.734,-40.061,-23.139
369,1435990461500,10.429,-40.061,-23.139
370,1435990461519,10.429,-40.061,-23.139
371,1435990461541,10.429,-40.386,-23.139
372,1435990461558,10.429,-40.386,-23.139
373,1435990461579,10.429,-40.386,-22.824
374,1435990461600,10.429,-40.386,-22.824
375,1435990461617,10.429,-40.386,-22.824
376,1435990461637,11.761,-40.386,-22.824
377,1435990461656,13.629,-40.386,-22.824
378,1435990461682,15.617,-40.386,-22.505
379,1435990461700,17.425,-40.386,-22.505
380,1435990461724,18.673,-40.386,-22.505
381,1435990461741,20.164,-39.993,-22.505
382,1435990461757,21.556,-39.993,-22.062
383,1435990461777,22.784,-39.659,-22.062
384,1435990461797,23.359,-39.089,-20.777
385,1435990461817,24.514,-38.153,-20.016
386,1435990461837,25.492,-37.356,-18.875
387,1435990461893,26.17,-36.688,-17.675
388,1435990461894,26.17,-35.556,-17.675
389,1435990461906,26.17,-34.675,-17.332
390,1435990461917,26.57,-34.103,-16.108
391,1435990461943,27.081,-33.744,-15.699
392,1435990461958,27.577,-33.744,-15.237
393,1435990461977,27.577,-32.752,-14.495
394,1435990461999,28.64,-33.288,-13.83
395,1435990462018,29.133,-33.288,-13.052
396,1435990462039,29.505,-32.954,-12.052
397,1435990462057,29.505,-32.954,-12.052
398,1435990462080,31.083,-32.954,-11.595
399,1435990462097,32.177,-32.954,-11.28
400,1435990462117,32.177,-32.954,-11.602
401,1435990462137,32.575,-32.395,-10.258
402,1435990462158,32.575,-32.395,-10.258
403,1435990462179,33.351,-32.736,-10.258
404,1435990462200,33.674,-32.736,-10.258
405,1435990462220,34.184,-32.736,-10.258
406,1435990462238,34.184,-32.736,-10.258
407,1435990462260,34.184,-32.337,-10.258
408,1435990462280,34.184,-32.337,-10.258
409,1435990462299,34.184,-32.337,-10.258
410,1435990462319,33.824,-32.337,-10.258
411,1435990462342,33.383,-32.337,-10.258
412,1435990462362,33.081,-32.337,-10.258
413,1435990462382,32.778,-32.337,-10.258
414,1435990462397,32.778,-32.337,-10.258
415,1435990462419,32.46,-32.337,-10.258
416,1435990462439,32.46,-32.337,-10.258
417,1435990462460,31.539,-32.337,-10.258
418,1435990462480,30.131,-33.372,-11.781
419,1435990462501,28.782,-34.323,-13.276
420,1435990462521,27.471,-34.948,-14.619
421,1435990462540,26.789,-35.614,-14.994
422,1435990462563,25.93,-35.614,-15.806
423,1435990462622,25.405,-36.222,-15.806
424,1435990462633,24.818,-36.222,-15.806
425,1435990462634,24.818,-36.79,-15.806
426,1435990462640,24.818,-36.79,-16.392
427,1435990462659,24.818,-36.79,-16.392
428,1435990462681,24.818,-36.79,-16.94
429,1435990462698,25.219,-36.79,-16.481
430,1435990462718,25.219,-36.79,-16.481
431,1435990462753,25.727,-36.79,-16.481
432,1435990462759,25.727,-36.79,-16.481
433,1435990462778,25.727,-36.79,-16.481
434,1435990462798,25.238,-36.79,-16.481
435,1435990462820,25.238,-36.79,-16.481
436,1435990462840,25.238,-36.79,-16.481
437,1435990462860,25.238,-36.79,-16.481
438,1435990462880,25.238,-36.79,-16.906
439,1435990462901,25.238,-36.79,-16.906
440,1435990462921,24.882,-36.79,-16.906
441,1435990462941,24.882,-36.79,-17.21
442,1435990462960,24.882,-36.79,-17.21
443,1435990462981,24.882,-36.79,-17.21
444,1435990463001,24.882,-36.79,-17.524
445,1435990463020,24.882,-36.79,-17.524
446,1435990463038,24.882,-36.79,-17.524
447,1435990463059,24.882,-36.79,-17.846
448,1435990463080,24.882,-36.79,-17.846
449,1435990463100,24.882,-36.79,-17.846
450,1435990463120,24.882,-36.79,-17.846
451,1435990463140,24.537,-36.79,-18.251
452,1435990463158,24.537,-36.79,-18.251
453,1435990463180,24.237,-36.79,-18.251
454,1435990463201,24.237,-36.79,-18.641
455,1435990463221,24.237,-36.79,-18.641
456,1435990463242,23.782,-36.79,-18.641
457,1435990463262,22.731,-37.152,-19.137
458,1435990463279,21.334,-37.152,-19.137
459,1435990463300,19.654,-37.152,-19.479
460,1435990463403,17.875,-37.643,-19.479
461,1435990463404,16.355,-37.643,-19.873
462,1435990463405,14.27,-37.992,-19.873
463,1435990463406,12.777,-37.992,-20.387
464,1435990463407,11.619,-38.316,-20.742
465,1435990463432,10.697,-38.316,-21.415
466,1435990463439,9.93,-38.316,-21.415
467,1435990463458,9.93,-38.726,-21.849
468,1435990463478,9.591,-38.726,-22.351
469,1435990463500,9.088,-38.726,-22.351
470,1435990463518,8.552,-39.033,-23.085
471,1435990463540,8.552,-39.033,-23.085
472,1435990463561,8.973,-39.033,-23.085
473,1435990463579,8.973,-39.033,-23.512
474,1435990463602,8.973,-39.033,-23.512
475,1435990463622,8.973,-39.367,-23.512
476,1435990463640,8.16,-39.367,-23.512
477,1435990463659,7.272,-39.367,-24.064
478,1435990463680,5.766,-39.367,-24.064
479,1435990463701,5.766,-39.367,-24.064
480,1435990463720,5.378,-39.367,-24.064
481,1435990463740,5.378,-39.367,-24.403
482,1435990463760,4.876,-39.367,-24.403
483,1435990463779,4.309,-39.367,-24.403
484,1435990463800,3.974,-39.367,-24.74
485,1435990463822,3.5,-39.367,-24.74
486,1435990463840,3.036,-39.367,-24.74
487,1435990463862,2.572,-39.367,-24.74
488,1435990463880,3.358,-39.367,-24.74
489,1435990463900,2.729,-39.367,-24.74
490,1435990463922,2.729,-39.736,-24.74
491,1435990463941,2.729,-39.736,-24.74
492,1435990463960,3.07,-39.736,-24.74
493,1435990463979,3.07,-40.037,-24.74
494,1435990464000,3.649,-40.037,-24.74
495,1435990464020,3.649,-40.037,-24.74
496,1435990464041,3.649,-40.457,-24.74
497,1435990464060,3.283,-40.457,-23.686
498,1435990464124,3.283,-40.892,-23.017
499,1435990464125,3.283,-40.892,-22.253
500,1435990464126,4.53,-41.377,-21.946
501,1435990464147,5.534,-41.377,-21.061
