id,attr_time,attr_x,attr_y,attr_z
1,1435990454124,-41.493,20.625,-14.259
2,1435990454144,-41.493,20.625,-14.259
3,1435990454164,-41.493,20.625,-14.259
4,1435990454184,-41.493,20.625,-14.259
5,1435990454205,-41.493,20.625,-14.259
6,1435990454225,-41.493,20.625,-14.259
7,1435990454244,-41.493,20.625,-14.259
8,1435990454265,-41.493,20.625,-14.259
9,1435990454285,-41.493,20.625,-14.259
10,1435990454307,-41.493,20.625,-14.259
11,1435990454331,-41.493,20.625,-14.259
12,1435990454345,-41.493,20.625,-14.259
13,1435990454363,-41.493,20.625,-14.259
14,1435990454383,-41.493,20.625,-14.259
15,1435990454404,-41.493,20.625,-14.259
16,1435990454424,-41.493,20.625,-14.259
17,1435990454443,-41.493,20.625,-14.259
18,1435990454463,-41.493,20.625,-14.259
19,1435990454483,-41.493,20.625,-14.259
20,1435990454503,-41.493,20.625,-14.259
21,1435990454523,-41.836,20.625,-14.259
22,1435990454543,-41.836,20.625,-14.259
23,1435990454565,-41.836,20.625,-13.954
24,1435990454584,-41.836,20.625,-13.954
25,1435990454603,-41.836,20.625,-13.954
26,1435990454623,-41.836,20.947,-13.954
27,1435990454643,-41.836,20.947,-13.954
28,1435990454663,-41.836,20.947,-13.954
29,1435990454683,-41.836,20.947,-13.954
30,1435990454703,-41.836,20.947,-13.954
31,1435990454723,-42.156,20.947,-13.954
32,1435990454743,-42.156,20.947,-13.954
33,1435990454763,-42.156,20.947,-13.954
34,1435990454783,-42.156,20.947,-13.954
35,1435990454804,-42.156,20.947,-13.954
36,1435990454823,-42.156,20.947,-13.954
37,1435990454843,-42.156,20.947,-13.954
38,1435990454865,-42.156,20.947,-13.954
39,1435990454885,-42.156,20.947,-13.954
40,1435990454905,-42.156,20.947,-13.954
41,1435990454926,-42.156,20.947,-13.954
42,1435990454945,-42.156,20.947,-13.954
43,1435990454965,-41.845,20.947,-13.954
44,1435990454985,-41.845,20.947,-13.954
45,1435990455004,-41.845,20.947,-13.954
46,1435990455026,-41.845,20.947,-13.954
47,1435990455044,-41.845,20.947,-13.954
48,1435990455118,-41.845,20.947,-13.954
49,1435990455119,-41.845,20.947,-13.954
50,1435990455120,-41.845,20.947,-13.954
51,1435990455128,-41.845,20.947,-13.954
52,1435990455147,-41.845,20.947,-13.954
53,1435990455168,-41.54,20.947,-13.954
54,1435990455185,-41.54,20.947,-13.954
55,1435990455205,-41.54,20.947,-13.954
56,1435990455227,-41.54,20.947,-13.954
57,1435990455247,-41.54,20.947,-13.954
58,1435990455267,-41.54,20.947,-13.954
59,1435990455286,-41.54,20.947,-13.954
60,1435990455306,-41.54,20.947,-13.954
61,1435990455352,-41.54,20.947,-13.954
62,1435990455353,-41.54,20.947,-13.954
63,1435990455390,-41.54,20.947,-13.954
64,1435990455391,-41.54,20.947,-13.954
65,1435990455406,-41.54,20.947,-13.954
66,1435990455425,-41.54,20.947,-13.954
67,1435990455445,-41.54,20.947,-13.954
68,1435990455465,-41.54,20.947,-13.954
69,1435990455485,-41.54,20.947,-13.954
70,1435990455506,-41.54,20.947,-13.954
71,1435990455526,-41.54,20.947,-13.954
72,1435990455547,-41.54,20.947,-13.954
73,1435990455568,-41.54,20.947,-13.954
74,1435990455588,-41.54,20.947,-13.954
75,1435990455606,-41.54,20.947,-13.954
76,1435990455627,-41.54,20.947,-13.954
77,1435990455648,-41.54,20.947,-13.954
78,1435990455668,-41.54,20.947,-13.954
79,1435990455689,-41.54,20.947,-13.954
80,1435990455707,-41.54,20.947,-13.954
81,1435990455726,-41.54,20.947,-13.954
82,1435990455747,-41.54,20.947,-13.954
83,1435990455766,-41.54,20.947,-13.954
84,1435990455786,-41.54,20.947,-13.954
85,1435990455810,-41.54,20.947,-13.954
86,1435990455827,-41.54,20.947,-13.954
87,1435990455848,-41.54,20.947,-13.954
88,1435990455865,-41.54,20.947,-13.954
89,1435990455888,-41.54,20.947,-13.954
90,1435990455907,-41.54,20.947,-13.954
91,1435990455930,-41.54,20.947,-13.954
92,1435990455945,-41.54,20.947,-13.954
93,1435990455967,-41.54,20.947,-13.954
94,1435990455987,-41.54,20.947,-13.954
95,1435990456009,-41.54,20.947,-13.954
96,1435990457433,-41.54,20.947,-13.954
97,1435990457434,-41.54,20.947,-13.954
98,1435990457435,-41.54,20.947,-13.954
99,1435990457436,-41.54,20.947,-13.954
100,1435990457437,-41.54,20.947,-13.954
101,1435990457438,-41.54,20.947,-13.954
102,1435990457439,-41.54,20.947,-13.954
103,1435990457440,-41.54,20.947,-13.954
104,1435990457441,-41.54,20.947,-13.954
105,1435990457442,-41.54,20.947,-13.954
106,1435990457443,-41.54,20.947,-13.954
107,1435990457444,-41.54,20.947,-13.954
108,1435990457445,-41.54,20.947,-13.954
109,1435990457446,-41.54,20.947,-13.954
110,1435990457447,-41.54,20.947,-13.954
111,1435990457448,-41.54,20.947,-13.954
112,1435990457449,-41.54,20.947,-13.954
113,1435990457450,-41.54,20.947,-13.954
114,1435990457451,-41.54,20.947,-13.954
115,1435990457452,-41.54,20.947,-13.954
116,1435990457453,-41.54,20.947,-13.954
117,1435990457454,-41.54,20.947,-13.954
118,1435990457455,-41.54,20.947,-13.954
119,1435990457456,-41.54,20.947,-13.954
120,1435990457457,-41.54,20.947,-13.954
121,1435990457458,-41.54,20.947,-13.954
122,1435990457459,-41.54,20.947,-13.954
123,1435990457460,-41.54,20.947,-13.954
124,1435990457461,-41.54,20.947,-13.954
125,1435990457462,-41.54,20.947,-13.954
126,1435990457463,-41.54,20.947,-13.954
127,1435990457464,-41.54,20.947,-13.954
128,1435990457465,-41.54,20.947,-13.954
129,1435990457466,-41.54,20.947,-13.954
130,1435990457467,-41.54,20.947,-13.954
131,1435990457468,-41.54,20.947,-14.254
132,1435990457469,-41.54,20.947,-14.254
133,1435990457470,-41.54,20.947,-14.254
134,1435990457471,-41.54,20.947,-14.254
135,1435990457472,-41.54,20.947,-14.254
136,1435990457473,-41.54,20.947,-14.254
137,1435990457474,-41.54,20.947,-14.254
138,1435990457475,-41.54,20.947,-14.254
139,1435990457476,-41.54,20.947,-14.254
140,1435990457477,-41.54,20.947,-14.254
141,1435990457478,-41.54,20.947,-14.254
142,1435990457479,-41.54,20.947,-14.254
143,1435990457480,-41.853,20.947,-14.254
144,1435990457481,-41.853,20.947,-14.254
145,1435990457482,-41.853,20.947,-14.254
146,1435990457483,-41.853,20.947,-14.254
147,1435990457484,-41.853,20.947,-14.254
148,1435990457485,-41.853,20.947,-14.254
149,1435990457486,-41.853,20.947,-14.254
150,1435990457487,-41.853,20.947,-14.254
151,1435990457488,-41.853,20.947,-14.254
152,1435990457489,-41.853,20.947,-14.254
153,1435990457490,-41.853,20.947,-14.254
154,1435990457491,-41.853,20.947,-14.254
155,1435990457492,-41.853,20.947,-14.254
156,1435990457493,-41.853,20.947,-14.254
157,1435990457494,-41.853,20.947,-14.254
158,1435990457495,-41.853,20.947,-14.254
159,1435990457496,-41.853,20.947,-14.254
160,1435990457497,-41.853,20.947,-14.254
161,1435990457498,-41.853,20.947,-14.254
162,1435990457499,-41.853,20.947,-14.254
163,1435990457500,-41.853,20.947,-14.254
164,1435990457501,-41.853,20.947,-13.954
165,1435990457502,-41.853,20.947,-13.954
166,1435990457503,-41.853,20.947,-13.954
167,1435990457504,-41.853,20.947,-13.954
168,1435990457505,-41.853,20.947,-13.954
169,1435990457506,-41.853,20.947,-13.954
170,1435990457507,-41.853,20.947,-13.954
171,1435990457526,-41.853,20.947,-13.954
172,1435990457546,-41.853,20.947,-13.954
173,1435990457566,-41.853,20.947,-13.954
174,1435990457586,-41.853,20.947,-13.954
175,1435990457606,-41.853,20.947,-13.954
176,1435990457626,-41.853,20.947,-13.954
177,1435990457646,-41.853,20.947,-13.954
178,1435990457667,-41.853,20.947,-13.954
179,1435990457691,-41.853,20.947,-13.954
180,1435990457709,-41.853,20.947,-13.954
181,1435990457728,-41.853,20.947,-13.954
182,1435990457749,-41.853,20.947,-13.954
183,1435990457768,-41.853,20.947,-13.954
184,1435990457788,-41.853,20.947,-13.954
185,1435990457808,-41.853,20.947,-13.954
186,1435990457827,-41.853,20.947,-13.954
187,1435990457851,-41.853,20.947,-13.954
188,1435990457871,-41.853,20.947,-13.954
189,1435990457888,-41.853,20.947,-13.954
190,1435990457911,-41.853,20.947,-13.954
191,1435990457928,-41.853,20.947,-13.954
192,1435990457951,-41.853,20.947,-13.954
193,1435990457969,-41.853,20.947,-13.954
194,1435990457997,-41.853,20.947,-13.954
195,1435990458011,-41.853,20.947,-13.954
196,1435990458036,-41.853,20.947,-13.954
197,1435990458047,-41.853,20.947,-13.954
198,1435990458069,-41.853,20.947,-13.954
199,1435990458088,-41.853,20.947,-13.954
200,1435990458111,-41.853,20.947,-13.954
201,1435990458133,-41.853,20.947,-13.954
202,1435990458149,-41.853,20.947,-13.954
203,1435990458172,-41.853,20.947,-13.954
204,1435990458190,-41.853,20.947,-13.954
205,1435990458214,-41.853,20.947,-13.954
206,1435990458231,-41.853,20.947,-13.954
207,1435990458250,-41.853,20.947,-13.639
208,1435990458272,-41.853,20.947,-13.639
209,1435990458292,-41.853,20.947,-13.639
210,1435990458311,-41.853,20.947,-13.639
211,1435990458333,-41.853,20.947,-13.639
212,1435990458350,-41.853,20.947,-13.639
213,1435990458372,-41.853,20.947,-13.639
214,1435990458392,-41.853,20.947,-13.639
215,1435990458413,-41.853,20.947,-13.639
216,1435990458435,-41.853,20.947,-13.639
217,1435990458449,-41.853,20.947,-13.639
218,1435990458472,-41.853,20.947,-13.639
219,1435990458488,-41.853,20.947,-13.639
220,1435990458508,-41.853,20.947,-13.639
221,1435990458529,-41.853,20.947,-13.639
222,1435990458549,-41.853,20.947,-13.639
223,1435990458575,-41.853,20.947,-13.639
224,1435990458595,-41.552,20.947,-13.639
225,1435990458610,-41.552,20.947,-13.639
226,1435990458631,-41.552,20.947,-13.639
227,1435990458700,-41.552,20.947,-13.639
228,1435990458701,-41.552,20.947,-13.639
229,1435990458702,-41.552,20.947,-13.639
230,1435990458709,-41.552,20.947,-13.639
231,1435990458738,-41.552,20.947,-13.639
232,1435990458751,-41.552,20.947,-13.639
233,1435990458768,-41.552,20.947,-13.639
234,1435990458790,-41.552,20.947,-13.639
235,1435990458809,-41.552,20.947,-13.639
236,1435990458834,-41.552,20.947,-13.963
237,1435990458850,-41.552,20.947,-13.963
238,1435990458872,-41.552,20.947,-13.963
239,1435990458890,-41.552,20.947,-13.963
240,1435990458912,-41.552,20.947,-13.963
241,1435990458937,-41.552,20.947,-13.963
242,1435990458949,-41.552,20.947,-13.963
243,1435990458972,-41.552,20.947,-13.963
244,1435990458992,-41.552,20.947,-13.963
245,1435990459012,-41.552,20.947,-13.963
246,1435990459032,-41.552,20.947,-13.963
247,1435990459053,-41.552,20.947,-13.963
248,1435990459074,-41.552,20.947,-13.963
249,1435990459091,-41.552,20.947,-13.963
250,1435990459111,-41.552,20.947,-13.963
251,1435990459130,-41.552,20.947,-13.963
252,1435990459152,-41.552,20.947,-13.963
253,1435990459170,-41.552,20.947,-13.963
254,1435990459193,-41.552,20.947,-13.963
255,1435990459213,-41.552,20.947,-13.963
256,1435990459234,-41.552,20.947,-13.963
257,1435990459254,-41.552,20.947,-13.963
258,1435990459271,-41.552,20.947,-13.963
259,1435990459290,-41.552,20.947,-13.963
260,1435990459309,-41.552,20.947,-13.963
261,1435990459332,-41.552,20.947,-13.963
262,1435990459358,-41.552,20.947,-13.963
263,1435990459561,-41.552,20.947,-13.963
264,1435990459562,-41.552,20.947,-14.273
265,1435990459563,-41.552,20.947,-14.273
266,1435990459564,-41.552,20.947,-14.273
267,1435990459565,-41.552,20.947,-14.273
268,1435990459566,-41.552,20.947,-14.273
269,1435990459567,-41.552,20.947,-14.273
270,1435990459568,-41.552,20.947,-14.273
271,1435990459569,-41.552,20.947,-14.573
272,1435990459570,-41.552,20.947,-14.573
273,1435990459607,-41.552,20.947,-14.573
274,1435990459609,-41.552,20.947,-14.573
275,1435990459610,-41.552,20.947,-14.573
276,1435990459629,-41.552,20.947,-14.573
277,1435990459649,-41.552,20.947,-14.573
278,1435990459670,-41.552,20.947,-14.573
279,1435990459690,-41.552,20.947,-14.573
280,1435990459709,-41.552,20.947,-14.573
281,1435990459729,-41.552,20.947,-14.573
282,1435990459752,-41.552,20.947,-14.573
283,1435990459772,-41.552,20.947,-14.573
284,1435990459793,-41.552,20.947,-14.573
285,1435990459812,-41.552,20.947,-14.573
286,1435990459833,-41.552,20.947,-14.573
287,1435990459853,-41.552,20.947,-14.573
288,1435990459873,-41.552,20.947,-14.573
289,1435990459891,-41.552,20.947,-14.573
290,1435990459914,-41.552,20.947,-14.573
291,1435990459940,-41.552,20.947,-14.573
292,1435990459952,-41.552,20.947,-14.573
293,1435990459987,-41.552,20.947,-14.573
294,1435990459989,-41.552,20.947,-14.573
295,1435990460013,-41.552,20.947,-14.573
296,1435990460033,-41.552,20.947,-14.573
297,1435990460053,-41.552,20.947,-14.239
298,1435990460073,-41.552,20.947,-14.239
299,1435990460092,-41.552,20.947,-14.239
300,1435990460113,-41.552,20.947,-14.239
301,1435990460133,-41.552,20.947,-14.239
302,1435990460153,-41.552,20.947,-13.937
303,1435990460173,-41.552,20.947,-13.937
304,1435990460193,-41.552,20.947,-13.937
305,1435990460214,-41.552,20.947,-13.937
306,1435990460357,-41.552,20.947,-13.937
307,1435990460360,-41.552,20.947,-13.609
308,1435990460361,-41.552,20.947,-13.609
309,1435990460362,-41.552,20.947,-13.609
310,1435990460363,-41.552,20.947,-13.609
311,1435990460364,-41.552,20.947,-13.247
312,1435990460365,-41.552,20.947,-13.247
313,1435990460387,-41.552,20.947,-13.247
314,1435990460413,-41.552,20.947,-13.247
315,1435990460414,-41.851,20.947,-13.247
316,1435990460430,-41.851,20.947,-12.873
317,1435990460455,-41.851,20.947,-12.873
318,1435990460482,-41.851,20.635,-12.873
319,1435990460494,-41.851,20.635,-12.873
320,1435990460516,-41.851,20.635,-12.873
321,1435990460531,-42.155,20.635,-12.507
322,1435990460555,-42.155,20.635,-12.507
323,1435990460573,-42.155,20.635,-12.507
324,1435990460595,-42.155,20.635,-12.507
325,1435990460614,-42.155,20.33,-12.17
326,1435990460633,-42.155,20.33,-12.17
327,1435990460653,-42.155,20.33,-12.17
328,1435990460674,-42.48,20.33,-12.17
329,1435990460693,-42.48,20.33,-12.17
330,1435990460714,-42.48,20.013,-12.17
331,1435990460736,-42.48,20.013,-12.17
332,1435990460750,-42.48,20.013,-11.824
333,1435990460775,-42.48,20.013,-11.824
334,1435990460793,-42.48,20.013,-11.824
335,1435990460814,-42.48,20.013,-11.824
336,1435990460833,-42.48,19.686,-11.824
337,1435990460854,-42.48,19.686,-11.824
338,1435990460874,-42.48,19.686,-11.824
339,1435990460893,-42.48,19.686,-11.824
340,1435990460914,-42.48,19.686,-11.824
341,1435990460944,-42.48,19.686,-11.824
342,1435990460955,-42.48,19.345,-11.824
343,1435990460978,-42.48,19.345,-11.824
344,1435990460993,-42.48,19.345,-11.824
345,1435990461012,-42.79,19.345,-11.824
346,1435990461084,-42.79,19.345,-11.824
347,1435990461085,-42.79,19.345,-11.824
348,1435990461086,-42.79,19.345,-11.824
349,1435990461091,-42.79,19.345,-11.824
350,1435990461113,-42.79,19.345,-11.824
351,1435990461134,-42.79,19.345,-11.824
352,1435990461151,-42.79,19.345,-11.824
353,1435990461173,-42.79,19.345,-11.824
354,1435990461191,-42.79,19.345,-11.824
355,1435990461212,-42.79,19.345,-11.824
356,1435990461233,-42.79,19.345,-11.824
357,1435990461252,-42.79,19.345,-11.824
358,1435990461271,-42.79,19.345,-11.824
359,1435990461297,-42.79,19.345,-12.145
360,1435990461315,-42.79,19.345,-12.145
361,1435990461334,-42.79,19.345,-12.145
362,1435990461354,-42.79,19.345,-12.145
363,1435990461374,-42.79,19.345,-12.145
364,1435990461394,-42.79,19.345,-12.145
365,1435990461414,-42.79,19.345,-12.145
366,1435990461434,-42.79,19.345,-12.145
367,1435990461453,-42.79,19.345,-12.145
368,1435990461473,-42.79,19.665,-12.145
369,1435990461494,-42.79,19.665,-12.145
370,1435990461513,-42.474,19.665,-12.145
371,1435990461534,-42.474,19.665,-12.145
372,1435990461554,-42.474,19.665,-12.145
373,1435990461575,-42.474,19.665,-12.145
374,1435990461595,-42.474,19.665,-12.145
375,1435990461615,-42.474,19.665,-12.145
376,1435990461635,-42.474,19.665,-12.145
377,1435990461653,-42.474,19.665,-12.503
378,1435990461673,-42.474,19.665,-12.503
379,1435990461693,-42.474,19.665,-12.503
380,1435990461712,-42.474,19.984,-12.503
381,1435990461792,-42.474,19.984,-12.503
382,1435990461793,-42.474,19.984,-12.503
383,1435990461794,-42.474,19.984,-12.806
384,1435990461795,-42.474,19.984,-12.806
385,1435990461813,-42.474,19.984,-12.806
386,1435990461833,-42.161,19.984,-12.806
387,1435990461851,-42.161,19.984,-12.806
388,1435990461872,-42.161,19.984,-12.806
389,1435990461892,-42.161,19.984,-13.121
390,1435990461916,-42.161,19.984,-13.121
391,1435990461939,-42.161,19.984,-13.121
392,1435990461959,-42.161,19.984,-13.121
393,1435990461978,-42.161,19.984,-13.121
394,1435990461993,-42.161,19.984,-13.121
395,1435990462015,-42.161,19.984,-13.121
396,1435990462035,-42.161,19.984,-13.121
397,1435990462052,-42.161,19.984,-13.121
398,1435990462075,-42.161,19.984,-13.121
399,1435990462095,-42.161,19.984,-13.435
400,1435990462115,-42.161,19.984,-13.435
401,1435990462135,-42.161,19.984,-13.435
402,1435990462155,-42.161,19.984,-13.435
403,1435990462175,-42.161,19.984,-13.435
404,1435990462195,-42.161,19.984,-13.435
405,1435990462215,-42.161,19.984,-13.435
406,1435990462233,-42.161,19.984,-13.435
407,1435990462254,-42.161,19.984,-13.435
408,1435990462272,-42.161,19.984,-13.435
409,1435990462297,-42.161,19.984,-13.435
410,1435990462317,-42.161,19.984,-13.435
411,1435990462332,-42.161,19.984,-13.099
412,1435990462353,-42.161,19.984,-13.099
413,1435990462372,-42.161,19.984,-13.099
414,1435990462392,-42.161,19.984,-12.783
415,1435990462415,-42.161,19.984,-12.783
416,1435990462432,-42.161,19.984,-12.457
417,1435990462502,-42.501,19.984,-12.457
418,1435990462503,-42.501,19.984,-11.293
419,1435990462504,-42.501,19.984,-10.469
420,1435990462524,-42.855,19.984,-10.012
421,1435990462532,-42.855,19.984,-9.132
422,1435990462552,-42.855,19.63,-8.418
423,1435990462574,-43.286,19.63,-7.821
424,1435990462592,-43.286,19.63,-7.438
425,1435990462616,-43.589,19.63,-7.029
426,1435990462632,-43.589,19.252,-6.488
427,1435990462653,-43.589,19.252,-6.488
428,1435990462673,-44.012,19.252,-5.728
429,1435990462693,-44.012,18.858,-5.728
430,1435990462742,-44.322,18.858,-5.249
431,1435990462743,-44.322,18.858,-4.94
432,1435990462753,-44.631,18.452,-4.31
433,1435990462774,-44.631,18.452,-3.498
434,1435990462796,-44.631,18.452,-3.498
435,1435990462816,-45.048,17.997,-2.577
436,1435990462836,-45.048,17.997,-1.992
437,1435990462856,-45.048,17.68,-1.992
438,1435990462874,-45.402,17.68,-1.992
439,1435990462893,-45.402,17.372,-1.565
440,1435990462923,-45.402,17.372,-1.565
441,1435990462938,-45.402,17.372,-1.246
442,1435990462954,-45.776,16.983,-1.246
443,1435990462976,-45.776,16.983,-0.939
444,1435990462995,-45.776,16.983,-0.939
445,1435990463016,-45.776,16.983,-0.509
446,1435990463035,-45.776,16.613,-0.509
447,1435990463056,-46.112,16.613,-0.169
448,1435990463077,-46.112,16.613,0.372
449,1435990463096,-46.112,16.613,0.968
450,1435990463115,-46.112,16.613,1.904
451,1435990463135,-46.112,16.613,3.392
452,1435990463154,-46.112,16.613,4.948
453,1435990463173,-46.112,16.613,6.17
454,1435990463263,-46.112,16.613,6.921
455,1435990463264,-46.112,16.613,7.49
456,1435990463265,-46.112,16.613,8.032
457,1435990463266,-46.112,16.613,8.032
458,1435990463273,-46.112,16.613,8.032
459,1435990463296,-46.112,16.94,7.695
460,1435990463313,-46.112,16.94,7.695
461,1435990463336,-46.112,18.29,7.197
462,1435990463355,-46.112,19.465,7.507
463,1435990463378,-45.787,20.204,6.97
464,1435990463404,-45.787,20.925,6.97
465,1435990463415,-45.787,21.275,6.97
466,1435990463439,-45.458,21.614,6.97
467,1435990463454,-45.458,21.614,6.97
468,1435990463475,-45.458,21.614,7.496
469,1435990463494,-45.104,21.948,7.496
470,1435990463516,-45.104,22.402,7.496
471,1435990463535,-45.104,22.064,7.496
472,1435990463555,-44.708,22.447,7.833
473,1435990463575,-44.708,22.447,7.833
474,1435990463595,-44.708,22.767,7.833
475,1435990463616,-44.326,22.767,7.833
476,1435990463636,-44.326,22.767,7.833
477,1435990463657,-44.326,22.767,7.833
478,1435990463674,-43.992,22.767,7.833
479,1435990463697,-43.992,22.767,7.47
480,1435990463717,-43.992,22.767,7.47
481,1435990463736,-43.992,23.071,7.47
482,1435990463757,-43.992,23.071,7.47
483,1435990463777,-43.992,23.071,7.47
484,1435990463798,-43.682,23.071,7.47
485,1435990463817,-43.682,23.071,7.47
486,1435990463837,-43.682,23.071,7.47
487,1435990463856,-43.682,23.071,7.47
488,1435990463880,-43.682,23.071,7.47
489,1435990463900,-43.682,23.071,7.47
490,1435990463915,-43.682,22.073,7.783
491,1435990464022,-43.682,20.529,7.783
492,1435990464023,-44.061,19.429,7.783
493,1435990464024,-44.061,18.923,7.783
494,1435990464025,-44.061,18.247,8.128
495,1435990464026,-44.502,17.707,8.128
496,1435990464038,-44.856,17.289,8.128
