id,attr_time,attr_x,attr_y,attr_z
1,1437230989528,-23.255,-2.622,26.702
2,1437230989535,-23.255,-2.622,26.702
3,1437230989605,-23.255,-2.622,26.702
4,1437230989606,-23.255,-2.622,26.702
5,1437230989607,-23.255,-2.622,26.702
6,1437230989614,-23.255,-2.622,26.702
7,1437230989635,-23.255,-2.622,26.702
8,1437230989654,-23.255,-2.622,26.702
9,1437230989676,-23.255,-2.622,26.702
10,1437230989696,-23.255,-2.622,26.702
11,1437230989714,-23.255,-2.622,26.702
12,1437230989739,-23.255,-2.622,26.702
13,1437230989757,-23.255,-2.622,26.702
14,1437230989774,-23.255,-2.622,26.702
15,1437230989799,-23.255,-2.622,26.702
16,1437230989815,-23.255,-2.622,26.702
17,1437230989837,-23.255,-2.622,26.702
18,1437230989855,-23.255,-2.622,26.702
19,1437230989875,-23.255,-2.622,26.702
20,1437230989894,-23.255,-2.622,26.702
21,1437230989913,-23.255,-2.622,26.702
22,1437230989934,-23.255,-2.622,26.702
23,1437230989956,-23.255,-2.622,26.702
24,1437230989977,-23.255,-2.622,26.702
25,1437230989994,-23.255,-2.622,26.702
26,1437230990017,-23.255,-2.622,26.702
27,1437230990035,-23.255,-2.622,26.702
28,1437230990055,-23.255,-2.622,26.702
29,1437230990075,-23.255,-2.622,26.702
30,1437230990096,-23.255,-2.622,26.702
31,1437230990117,-23.255,-2.622,26.702
32,1437230990137,-23.255,-2.622,26.702
33,1437230990157,-23.255,-2.622,26.702
34,1437230990175,-23.255,-2.622,26.702
35,1437230990193,-23.255,-2.622,26.702
36,1437230990213,-23.255,-2.622,26.702
37,1437230990236,-23.255,-2.622,26.702
38,1437230990255,-23.255,-2.622,26.702
39,1437230990282,-23.255,-2.622,26.702
40,1437230990302,-23.255,-2.622,26.702
41,1437230990319,-23.255,-2.622,26.374
42,1437230990333,-23.255,-2.622,26.374
43,1437230990357,-23.255,-2.622,26.374
44,1437230990377,-23.255,-2.622,26.374
45,1437230990396,-23.255,-2.622,26.374
46,1437230990414,-23.255,-2.622,26.374
47,1437230990438,-23.255,-2.622,26.374
48,1437230990458,-23.255,-2.622,26.374
49,1437230990477,-23.255,-2.622,26.374
50,1437230990495,-23.255,-2.622,26.374
51,1437230990518,-23.255,-2.622,26.374
52,1437230990537,-23.255,-2.622,26.057
53,1437230990558,-23.255,-2.622,26.057
54,1437230990578,-23.255,-2.622,26.057
55,1437230990597,-23.255,-2.622,26.057
56,1437230990618,-23.255,-2.622,26.057
57,1437230990636,-23.255,-2.622,26.057
58,1437230990655,-23.255,-2.622,26.057
59,1437230990678,-23.255,-2.622,26.057
60,1437230990695,-23.255,-2.622,26.057
61,1437230990715,-23.255,-2.622,26.057
62,1437230990736,-23.255,-2.622,26.057
63,1437230990757,-23.255,-2.622,26.057
64,1437230990775,-23.255,-2.622,26.057
65,1437230990797,-23.255,-2.622,26.057
66,1437230990816,-23.255,-2.622,26.057
67,1437230990838,-23.255,-2.622,26.057
68,1437230990863,-23.255,-2.622,26.057
69,1437230990886,-23.255,-2.622,26.057
70,1437230990894,-23.255,-2.622,26.057
71,1437230990914,-23.255,-2.622,26.057
72,1437230990948,-23.255,-2.622,26.057
73,1437230990959,-23.255,-2.622,26.057
74,1437230990975,-23.255,-2.622,26.057
75,1437230990995,-23.255,-2.622,26.057
76,1437230991015,-23.255,-2.622,26.057
77,1437230991035,-23.255,-2.622,26.057
78,1437230991055,-23.255,-2.622,26.057
79,1437230991075,-23.255,-2.622,26.057
80,1437230991097,-23.255,-2.622,26.057
81,1437230991121,-23.255,-2.622,26.057
82,1437230991136,-23.255,-2.622,26.057
83,1437230991158,-23.255,-2.622,26.057
84,1437230991175,-23.255,-2.622,26.057
85,1437230991198,-23.255,-2.622,26.057
86,1437230991218,-23.255,-2.622,26.057
87,1437230991238,-23.255,-2.622,26.057
88,1437230991258,-23.255,-2.622,26.057
89,1437230991279,-23.255,-2.622,26.057
90,1437230991298,-23.255,-2.622,26.057
91,1437230991318,-23.255,-2.622,26.057
92,1437230991339,-23.255,-2.622,26.057
93,1437230991355,-23.255,-2.622,26.057
94,1437230991378,-23.255,-2.622,26.057
95,1437230991398,-23.255,-2.622,26.057
96,1437230991418,-23.255,-2.622,26.057
97,1437230991438,-23.255,-2.622,26.057
98,1437230991459,-23.255,-2.622,26.387
99,1437230991478,-23.255,-2.622,26.387
100,1437230991498,-23.255,-2.622,26.387
101,1437230991518,-23.255,-2.622,26.387
102,1437230991538,-23.255,-2.622,26.387
103,1437230991559,-23.255,-2.622,26.387
104,1437230991579,-23.255,-2.622,26.387
105,1437230991598,-23.255,-2.622,26.387
106,1437230991618,-23.255,-2.622,26.387
107,1437230991689,-23.255,-2.622,26.387
108,1437230991690,-23.255,-2.622,26.387
109,1437230991691,-23.255,-2.622,26.387
110,1437230991699,-23.255,-2.622,26.387
111,1437230991726,-23.568,-2.622,26.387
112,1437230991739,-23.568,-2.622,26.387
113,1437230991755,-23.568,-2.622,26.387
114,1437230991777,-23.568,-2.622,26.387
115,1437230991804,-23.568,-2.622,26.387
116,1437230991819,-23.568,-2.622,26.387
117,1437230991840,-23.568,-2.622,26.387
118,1437230991856,-23.568,-2.622,26.387
119,1437230991883,-23.568,-2.622,26.387
120,1437230991895,-23.568,-2.622,26.387
121,1437230991923,-23.568,-2.622,26.387
122,1437230991935,-23.568,-2.622,26.387
123,1437230991955,-23.568,-2.622,26.387
124,1437230991976,-23.568,-2.622,26.387
125,1437230991999,-23.568,-2.622,26.387
126,1437230992019,-23.568,-2.622,26.387
127,1437230992047,-23.568,-2.622,26.387
128,1437230992056,-23.568,-2.622,26.387
129,1437230992076,-23.568,-2.622,26.387
130,1437230992096,-23.568,-2.622,26.387
131,1437230992116,-23.568,-2.622,26.387
132,1437230992136,-23.568,-2.622,26.387
133,1437230992156,-23.568,-2.622,26.387
134,1437230992179,-23.568,-2.622,26.387
135,1437230992201,-23.568,-2.622,26.068
136,1437230992221,-23.568,-2.622,26.068
137,1437230992239,-23.568,-2.622,26.068
138,1437230992258,-23.568,-2.622,26.068
139,1437230992276,-23.568,-2.622,26.068
140,1437230992298,-23.568,-2.622,25.709
141,1437230992316,-23.568,-2.622,25.709
142,1437230992338,-23.568,-2.622,25.709
143,1437230992394,-23.568,-2.622,25.366
144,1437230992397,-23.568,-2.622,25.366
145,1437230992398,-23.568,-2.276,25.366
146,1437230992418,-23.878,-2.276,24.932
147,1437230992439,-23.878,-2.276,24.932
148,1437230992460,-23.878,-2.276,24.583
149,1437230992476,-23.878,-2.276,24.583
150,1437230992502,-24.291,-1.902,24.259
151,1437230992518,-24.291,-1.902,24.259
152,1437230992538,-24.291,-1.902,23.883
153,1437230992557,-24.626,-1.902,23.883
154,1437230992577,-24.626,-1.553,23.434
155,1437230992599,-24.626,-1.553,23.434
156,1437230992619,-25.048,-1.553,22.935
157,1437230992642,-25.048,-1.171,22.18
158,1437230992659,-25.048,-1.171,21.501
159,1437230992678,-25.48,-1.171,20.875
160,1437230992696,-25.48,-0.819,20.283
161,1437230992717,-25.48,-0.819,20.283
162,1437230992737,-25.801,-0.819,19.691
163,1437230992758,-25.801,-0.422,19.313
164,1437230992779,-25.801,-0.422,18.598
165,1437230992797,-25.801,-0.422,18.049
166,1437230992816,-25.801,-0.007,17.42
167,1437230992837,-25.801,-0.007,16.685
168,1437230992859,-25.801,0.3,16.685
169,1437230992876,-26.142,0.3,15.792
170,1437230992897,-26.142,0.645,15.792
171,1437230992917,-26.142,0.645,15.792
172,1437230992936,-26.142,1.033,15.368
173,1437230992958,-26.142,1.033,15.368
174,1437230992977,-26.502,1.422,15.368
175,1437230992998,-26.502,1.422,15.368
176,1437230993017,-26.502,1.794,15.368
177,1437230993038,-26.502,1.794,14.988
178,1437230993065,-26.919,2.119,14.988
179,1437230993110,-26.919,2.119,15.451
180,1437230993111,-26.919,2.119,15.451
181,1437230993121,-27.261,2.513,15.451
182,1437230993140,-27.261,2.513,15.451
183,1437230993158,-27.261,2.513,15.451
184,1437230993177,-27.261,2.513,15.451
185,1437230993197,-27.59,2.513,15.451
186,1437230993217,-27.59,2.513,15.451
187,1437230993237,-27.59,2.513,15.451
188,1437230993259,-27.59,2.513,15.451
189,1437230993277,-27.59,2.513,15.451
190,1437230993298,-27.59,2.513,15.451
191,1437230993317,-27.59,2.513,15.451
192,1437230993340,-27.59,2.513,15.451
193,1437230993359,-27.288,2.513,15.451
194,1437230993377,-27.288,2.513,15.451
195,1437230993398,-27.288,2.513,15.451
196,1437230993417,-27.288,2.513,15.451
197,1437230993438,-28.599,2.513,15.451
198,1437230993459,-30.148,4.251,15.011
199,1437230993476,-31.915,5.838,14.572
200,1437230993497,-32.733,6.98,13.702
201,1437230993517,-33.277,7.955,13.293
202,1437230993537,-33.277,8.505,12.84
203,1437230993557,-33.277,9.367,11.282
204,1437230993577,-32.841,11.39,9.124
205,1437230993597,-32.841,13.937,6.546
206,1437230993617,-32.841,16.546,3.381
207,1437230993637,-31.857,18.792,1.065
208,1437230993657,-30.278,21.16,-1.623
209,1437230993677,-28.567,23.329,-4.408
210,1437230993697,-26.971,24.581,-5.867
211,1437230993717,-25.465,25.607,-7.174
212,1437230993738,-24.627,26.373,-7.592
213,1437230993757,-24.165,25.846,-7.592
214,1437230993779,-24.165,25.17,-7.197
215,1437230993798,-25.05,23.397,-6.285
216,1437230993818,-26.147,21.696,-4.936
217,1437230993837,-26.614,20.23,-3.933
218,1437230993858,-26.614,17.732,-2.667
219,1437230993877,-25.796,15.303,-0.915
220,1437230993897,-24.659,12.509,1.0
221,1437230993917,-22.393,7.626,3.558
222,1437230993938,-19.619,4.269,6.953
223,1437230993958,-17.877,2.088,8.926
224,1437230993977,-15.347,0.34,9.941
225,1437230993997,-11.286,-1.159,11.988
226,1437230994018,-7.548,-2.261,13.198
227,1437230994037,-5.647,-3.039,14.84
228,1437230994057,-4.948,-3.46,16.058
229,1437230994078,-5.25,-3.46,16.737
230,1437230994113,-6.095,-3.46,16.035
231,1437230994117,-7.71,-2.845,15.686
232,1437230994139,-10.447,-2.845,14.402
233,1437230994158,-13.436,-2.31,15.138
234,1437230994178,-17.616,-1.893,14.559
235,1437230994198,-21.533,-0.325,14.559
236,1437230994220,-24.108,0.41,15.473
237,1437230994240,-25.808,1.649,15.473
238,1437230994258,-26.379,2.452,14.102
239,1437230994278,-25.906,2.452,13.417
240,1437230994297,-24.656,2.452,12.057
241,1437230994317,-23.785,3.814,9.204
242,1437230994338,-23.078,6.34,5.514
243,1437230994359,-23.078,9.286,3.903
244,1437230994380,-23.078,11.141,1.939
245,1437230994399,-22.586,12.519,-0.051
246,1437230994417,-22.586,14.286,-0.955
247,1437230994437,-23.866,16.098,-2.349
248,1437230994460,-23.866,17.344,-3.292
249,1437230994480,-23.866,18.205,-4.249
250,1437230994498,-23.243,18.67,-4.83
251,1437230994518,-23.243,19.183,-5.136
252,1437230994538,-23.243,18.714,-4.573
253,1437230994558,-23.577,18.336,-3.904
254,1437230994578,-23.937,17.192,-3.904
255,1437230994598,-23.937,14.942,-1.945
256,1437230994618,-23.937,12.464,0.531
257,1437230994638,-23.937,9.088,3.03
258,1437230994658,-23.614,6.356,5.551
259,1437230994681,-23.614,4.78,8.435
260,1437230994698,-23.614,2.957,10.397
261,1437230994718,-23.252,1.847,11.077
262,1437230994738,-22.85,0.805,11.396
263,1437230994758,-18.536,0.445,11.396
264,1437230994778,-15.365,0.445,10.981
265,1437230994798,-13.671,0.445,10.542
266,1437230994818,-13.349,0.445,10.542
267,1437230994838,-14.215,0.445,10.542
268,1437230994858,-16.371,0.973,9.88
269,1437230994878,-18.904,1.324,10.194
270,1437230994899,-21.597,2.348,10.194
271,1437230994918,-24.009,3.855,10.194
272,1437230994938,-26.048,4.51,10.194
273,1437230994958,-27.096,5.465,10.194
274,1437230994978,-27.096,5.465,10.194
275,1437230994998,-26.544,4.373,11.279
276,1437230995018,-24.516,5.087,8.358
277,1437230995039,-23.545,6.564,7.267
278,1437230995058,-23.545,8.525,5.143
279,1437230995079,-23.03,9.695,2.784
280,1437230995098,-22.624,10.888,1.651
281,1437230995118,-22.624,12.301,0.723
282,1437230995139,-22.624,13.481,-0.474
283,1437230995158,-22.624,14.353,-1.556
284,1437230995178,-22.624,15.403,-2.441
285,1437230995199,-22.624,16.043,-2.807
286,1437230995218,-23.081,16.043,-3.149
287,1437230995239,-23.721,16.043,-2.659
288,1437230995259,-24.214,16.043,-2.659
289,1437230995280,-24.546,14.836,-1.091
290,1437230995299,-24.546,13.238,0.244
291,1437230995319,-24.546,11.222,2.763
292,1437230995340,-23.951,7.722,4.907
293,1437230995359,-23.294,4.527,8.34
294,1437230995379,-23.635,3.001,10.961
295,1437230995399,-23.635,1.669,13.124
296,1437230995419,-23.219,0.308,13.888
297,1437230995439,-20.773,-0.83,13.888
298,1437230995459,-16.773,-1.367,13.337
299,1437230995479,-14.117,-1.367,13.337
300,1437230995501,-12.074,-1.367,11.279
301,1437230995519,-12.074,-0.761,11.279
302,1437230995540,-12.684,-0.129,10.418
303,1437230995559,-14.575,0.932,9.605
304,1437230995580,-17.175,1.589,8.839
305,1437230995600,-20.404,2.976,8.43
306,1437230995619,-23.628,4.142,9.1
307,1437230995640,-25.955,5.538,8.447
308,1437230995660,-27.175,6.455,8.447
309,1437230995680,-27.563,6.788,9.063
310,1437230995699,-27.563,5.839,9.5
311,1437230995720,-25.918,6.759,7.441
312,1437230995740,-24.723,9.603,4.339
313,1437230995824,-24.311,11.341,2.729
314,1437230995829,-23.818,12.702,1.074
315,1437230995830,-22.85,13.844,-0.515
316,1437230995831,-22.85,14.642,-1.339
317,1437230995863,-22.424,16.172,-2.412
318,1437230995864,-22.424,16.824,-3.182
319,1437230995882,-22.424,17.63,-3.182
320,1437230995899,-22.424,17.63,-3.781
321,1437230995920,-22.842,17.968,-3.781
322,1437230996009,-23.62,17.373,-3.475
323,1437230996010,-24.017,16.685,-2.409
324,1437230996011,-24.464,15.336,-1.438
325,1437230996012,-24.464,13.739,-0.205
326,1437230996019,-24.769,11.985,1.858
327,1437230996039,-24.052,8.857,4.261
328,1437230996060,-24.052,5.59,7.608
329,1437230996079,-24.052,3.811,10.691
330,1437230996100,-24.052,2.008,15.055
331,1437230996119,-24.052,0.201,16.702
332,1437230996139,-23.663,-0.7,17.744
333,1437230996159,-21.685,-2.029,17.744
334,1437230996179,-18.905,-2.029,17.744
335,1437230996199,-16.931,-2.676,17.256
336,1437230996220,-16.412,-2.294,15.779
337,1437230996240,-16.412,-1.94,15.235
338,1437230996263,-17.564,-1.023,14.344
339,1437230996282,-19.004,-0.131,13.989
340,1437230996302,-21.546,0.711,13.519
341,1437230996321,-23.649,1.855,12.82
342,1437230996341,-25.422,2.919,12.495
343,1437230996361,-26.797,3.576,12.825
344,1437230996381,-27.287,3.576,13.563
345,1437230996402,-27.287,4.203,12.86
346,1437230996423,-28.175,6.225,9.965
347,1437230996443,-27.171,8.163,7.087
348,1437230996461,-26.708,9.722,5.082
349,1437230996480,-25.209,11.161,2.751
350,1437230996511,-23.696,12.565,0.654
351,1437230996573,-22.633,14.295,-1.136
352,1437230996574,-22.633,15.762,-2.711
353,1437230996575,-22.111,17.117,-3.018
354,1437230996584,-22.111,17.117,-3.646
355,1437230996602,-23.252,17.648,-3.021
356,1437230996622,-24.351,18.013,-3.021
357,1437230996640,-25.579,17.672,-2.191
358,1437230996661,-26.141,17.068,-1.368
359,1437230996682,-26.141,15.364,-0.83
360,1437230996702,-26.141,13.352,0.811
361,1437230996721,-25.376,10.665,2.735
362,1437230996743,-24.108,6.333,6.224
363,1437230996762,-22.778,3.938,8.75
364,1437230996783,-22.778,2.523,11.643
365,1437230996804,-22.778,1.298,13.485
366,1437230996822,-21.679,0.021,14.518
367,1437230996840,-19.34,-1.007,14.013
368,1437230996869,-17.637,-1.712,14.962
369,1437230996883,-15.803,-1.712,14.505
370,1437230996902,-15.803,-1.712,13.174
371,1437230996922,-15.803,-0.987,13.174
372,1437230996942,-17.158,0.21,11.575
373,1437230996965,-18.363,1.408,11.006
374,1437230996980,-19.99,2.226,9.179
375,1437230997000,-22.393,3.652,8.518
376,1437230997023,-23.794,5.406,7.408
377,1437230997043,-25.004,6.637,7.408
378,1437230997063,-25.784,7.275,7.78
379,1437230997083,-26.46,6.205,8.554
380,1437230997104,-25.724,6.66,7.53
381,1437230997124,-25.399,9.057,5.496
382,1437230997144,-25.399,10.592,3.956
383,1437230997162,-24.884,11.372,2.481
384,1437230997183,-22.964,12.071,1.017
385,1437230997210,-21.955,12.698,-0.34
386,1437230997279,-21.472,14.03,-1.53
387,1437230997282,-21.02,14.405,-1.835
388,1437230997283,-21.02,14.405,-1.835
389,1437230997284,-21.02,13.813,-2.143
390,1437230997301,-21.02,13.813,-1.663
391,1437230997322,-21.559,13.215,-1.269
392,1437230997341,-22.079,12.528,-0.105
393,1437230997361,-22.079,11.462,-0.105
394,1437230997381,-22.079,10.064,1.974
395,1437230997401,-22.079,8.537,3.828
396,1437230997421,-20.256,6.44,4.919
397,1437230997441,-19.279,3.819,7.479
398,1437230997461,-20.231,2.578,9.776
399,1437230997481,-20.837,1.501,11.744
400,1437230997502,-20.837,0.579,13.835
401,1437230997523,-19.647,-0.341,13.835
402,1437230997544,-18.769,-0.955,14.448
403,1437230997562,-18.049,-1.365,14.448
404,1437230997583,-17.121,-0.81,13.862
405,1437230997604,-17.121,-0.363,13.127
406,1437230997624,-17.431,0.079,11.831
407,1437230997644,-18.185,0.785,11.346
408,1437230997663,-19.155,1.567,11.346
409,1437230997681,-21.244,2.091,11.346
410,1437230997704,-23.254,2.911,11.346
411,1437230997721,-25.241,3.804,11.662
412,1437230997744,-26.783,4.382,11.965
413,1437230997764,-27.578,4.382,11.965
414,1437230997782,-28.028,3.918,12.815
415,1437230997807,-28.028,4.37,11.535
416,1437230997821,-27.632,6.172,9.976
417,1437230997846,-27.285,7.746,8.226
418,1437230997862,-26.745,8.879,6.294
419,1437230997881,-25.544,9.611,4.618
420,1437230997906,-24.226,10.955,2.416
421,1437230997929,-23.919,12.411,1.301
422,1437230997941,-23.919,13.198,0.16
423,1437230997971,-23.919,13.551,0.16
424,1437230997981,-23.919,13.551,-0.505
425,1437230998002,-23.919,14.097,-0.505
426,1437230998022,-24.868,14.097,-0.057
427,1437230998042,-24.443,13.673,-0.057
428,1437230998062,-24.836,12.565,0.497
429,1437230998082,-24.53,11.485,2.168
430,1437230998107,-23.933,9.301,3.024
431,1437230998122,-22.077,6.494,4.815
432,1437230998146,-20.401,4.579,6.341
433,1437230998163,-21.014,3.442,8.79
434,1437230998181,-21.014,2.584,10.705
435,1437230998205,-20.269,1.692,10.705
436,1437230998225,-19.029,1.153,10.705
437,1437230998245,-18.482,0.785,11.233
438,1437230998265,-17.942,0.785,11.233
439,1437230998285,-17.942,0.785,10.179
440,1437230998303,-18.678,1.657,10.179
441,1437230998325,-19.766,2.436,9.771
442,1437230998345,-21.493,3.375,9.771
443,1437230998365,-23.411,3.927,9.771
444,1437230998383,-24.984,5.519,9.35
445,1437230998404,-26.492,5.519,9.35
446,1437230998425,-27.206,6.814,9.35
447,1437230998443,-27.519,7.44,8.065
448,1437230998463,-27.519,6.253,8.976
449,1437230998483,-25.888,6.253,8.094
450,1437230998506,-24.684,8.062,7.029
451,1437230998526,-23.33,9.671,4.234
452,1437230998546,-21.525,10.54,2.354
453,1437230998563,-19.897,11.262,0.442
454,1437230998584,-18.963,12.187,-1.062
455,1437230998603,-18.545,13.716,-2.146
456,1437230998623,-19.001,14.263,-2.828
457,1437230998644,-19.366,14.877,-3.178
458,1437230998665,-19.844,14.877,-2.622
459,1437230998729,-20.423,14.877,-2.622
460,1437230998730,-20.78,15.359,-2.622
461,1437230998731,-20.78,14.476,-2.973
462,1437230998743,-20.475,13.554,-1.264
463,1437230998764,-20.068,11.898,-1.264
464,1437230998782,-19.197,10.041,0.66
465,1437230998802,-17.999,7.44,2.964
466,1437230998823,-15.899,4.75,5.627
467,1437230998844,-16.65,2.935,7.629
468,1437230998867,-17.66,2.052,9.225
469,1437230998883,-17.66,0.955,10.545
470,1437230998903,-16.51,0.122,11.622
471,1437230998925,-15.49,-0.677,11.622
472,1437230998942,-14.72,-0.677,12.171
473,1437230998962,-14.72,-0.209,11.27
474,1437230998982,-15.441,-0.209,10.902
475,1437230999003,-16.816,1.167,9.599
476,1437230999023,-18.504,2.014,9.599
477,1437230999046,-20.695,3.216,10.208
478,1437230999063,-22.807,4.173,9.027
479,1437230999086,-25.569,5.354,9.346
480,1437230999105,-27.226,6.184,9.346
481,1437230999123,-27.986,6.73,8.966
482,1437230999146,-27.986,6.071,9.609
483,1437230999163,-26.229,6.071,8.509
484,1437230999185,-24.822,8.018,5.484
485,1437230999206,-23.184,10.241,3.182
486,1437230999224,-21.679,11.303,0.874
487,1437230999245,-20.542,12.387,-0.848
488,1437230999263,-20.127,13.952,-1.789
489,1437230999285,-20.127,15.8,-3.48
490,1437230999306,-20.742,16.735,-3.843
491,1437230999326,-20.31,17.126,-5.039
492,1437230999346,-20.719,17.126,-5.039
493,1437230999363,-20.719,17.549,-4.603
494,1437230999420,-21.197,17.549,-4.603
495,1437230999547,-21.197,16.415,-3.66
496,1437230999548,-21.803,15.086,-2.984
497,1437230999549,-21.17,13.441,-2.095
498,1437230999550,-20.179,11.201,-1.152
499,1437230999551,-19.253,8.79,0.842
500,1437230999552,-17.485,5.807,3.688
501,1437230999553,-17.485,3.474,5.964
502,1437230999554,-17.919,2.284,7.365
503,1437230999615,-17.919,1.49,9.587
504,1437230999616,-17.205,0.172,10.533
505,1437230999617,-15.957,0.172,10.958
506,1437230999623,-14.276,-0.439,10.958
507,1437230999643,-14.276,-0.439,10.958
508,1437230999663,-14.791,-0.439,10.534
509,1437230999690,-16.046,0.312,10.534
510,1437230999703,-17.967,1.162,10.534
511,1437230999726,-20.233,1.504,11.402
512,1437230999747,-22.726,2.522,11.73
