id,attr_time,attr_x,attr_y,attr_z
1,1437230989519,-10.623,-41.232,18.464
2,1437230989538,-10.623,-41.232,18.464
3,1437230989560,-10.623,-41.232,18.464
4,1437230989582,-10.623,-41.232,18.464
5,1437230989603,-10.623,-41.232,18.464
6,1437230989621,-10.623,-41.232,18.464
7,1437230989641,-10.623,-41.232,18.464
8,1437230989661,-10.623,-41.232,18.464
9,1437230989682,-10.623,-41.232,18.464
10,1437230989700,-10.623,-41.232,18.464
11,1437230989719,-10.623,-41.232,18.464
12,1437230989739,-10.623,-41.232,18.464
13,1437230989759,-10.623,-41.232,18.464
14,1437230989779,-10.623,-41.232,18.464
15,1437230989803,-10.623,-41.232,18.464
16,1437230989823,-10.623,-41.232,18.464
17,1437230989843,-10.623,-41.232,18.782
18,1437230989862,-10.623,-41.232,18.782
19,1437230989882,-10.623,-41.232,18.782
20,1437230989901,-10.623,-41.232,18.782
21,1437230989919,-10.623,-41.232,18.782
22,1437230990028,-10.945,-41.232,18.782
23,1437230990029,-10.945,-41.232,18.782
24,1437230990030,-10.945,-41.232,18.782
25,1437230990031,-10.945,-41.232,18.782
26,1437230990032,-10.945,-41.232,18.782
27,1437230990050,-10.945,-41.232,18.782
28,1437230990061,-10.945,-41.232,18.782
29,1437230990087,-10.945,-41.232,18.782
30,1437230990099,-10.945,-41.232,18.782
31,1437230990119,-10.945,-41.232,18.782
32,1437230990142,-10.945,-41.232,19.085
33,1437230990159,-10.945,-41.232,19.085
34,1437230990179,-10.945,-41.232,19.085
35,1437230990200,-10.945,-41.232,19.085
36,1437230990219,-10.945,-41.232,19.085
37,1437230990242,-10.945,-41.232,19.085
38,1437230990262,-10.945,-41.232,19.085
39,1437230990282,-10.945,-41.232,19.085
40,1437230990299,-10.945,-41.232,18.769
41,1437230990320,-10.945,-41.232,18.769
42,1437230990340,-10.945,-41.232,18.769
43,1437230990361,-10.945,-41.232,18.769
44,1437230990384,-10.945,-41.232,18.769
45,1437230990403,-10.945,-41.232,18.769
46,1437230990421,-10.945,-41.232,18.769
47,1437230990441,-10.945,-41.232,18.769
48,1437230990459,-10.945,-41.232,18.769
49,1437230990479,-10.945,-41.232,18.769
50,1437230990499,-10.945,-41.232,18.769
51,1437230990519,-10.945,-41.232,18.769
52,1437230990544,-10.945,-41.232,18.769
53,1437230990565,-10.945,-41.232,18.769
54,1437230990586,-10.945,-41.232,18.769
55,1437230990669,-10.945,-41.232,18.769
56,1437230990670,-10.945,-41.232,18.769
57,1437230990671,-10.945,-41.232,18.769
58,1437230990672,-10.945,-41.232,18.769
59,1437230990680,-10.945,-41.232,18.769
60,1437230990763,-10.945,-41.232,18.769
61,1437230990764,-10.945,-41.232,18.769
62,1437230990765,-10.945,-41.232,18.769
63,1437230990766,-10.945,-41.232,18.769
64,1437230990800,-10.945,-41.232,18.769
65,1437230990801,-10.945,-41.232,18.769
66,1437230990827,-10.945,-41.232,18.769
67,1437230990840,-10.945,-41.232,18.769
68,1437230990881,-10.945,-41.232,18.769
69,1437230990884,-10.945,-41.232,18.769
70,1437230990907,-10.945,-41.232,18.769
71,1437230990925,-10.945,-41.232,18.769
72,1437230990940,-10.945,-41.232,18.769
73,1437230990960,-10.945,-41.232,18.769
74,1437230990980,-10.945,-41.232,18.769
75,1437230991000,-10.945,-41.232,18.769
76,1437230991021,-10.945,-41.232,18.769
77,1437230991040,-10.945,-41.232,18.769
78,1437230991060,-10.945,-41.232,18.769
79,1437230991082,-10.945,-41.232,18.769
80,1437230991101,-10.945,-41.232,18.769
81,1437230991119,-10.945,-41.232,18.769
82,1437230991144,-10.945,-41.232,18.769
83,1437230991164,-10.945,-41.232,18.769
84,1437230991180,-10.945,-41.232,18.769
85,1437230991203,-10.945,-41.232,18.769
86,1437230991219,-10.945,-41.232,18.769
87,1437230991239,-10.945,-41.232,18.769
88,1437230991260,-10.945,-41.232,18.769
89,1437230991281,-10.945,-41.232,18.769
90,1437230991299,-10.945,-41.232,18.769
91,1437230991323,-10.945,-41.232,18.769
92,1437230991340,-10.945,-41.232,18.769
93,1437230991359,-10.945,-41.232,18.769
94,1437230991380,-10.945,-41.232,18.769
95,1437230991399,-10.945,-41.232,18.769
96,1437230991420,-10.945,-41.232,18.769
97,1437230991445,-10.945,-41.232,18.769
98,1437230991459,-10.945,-41.232,18.769
99,1437230991480,-10.945,-41.232,18.769
100,1437230991499,-10.945,-41.232,18.769
101,1437230991519,-10.945,-41.232,18.769
102,1437230991544,-10.945,-41.232,18.769
103,1437230991563,-10.945,-41.232,18.769
104,1437230991580,-10.945,-41.232,18.769
105,1437230991602,-10.945,-41.232,18.769
106,1437230991621,-10.945,-41.232,18.769
107,1437230991643,-10.945,-41.232,18.769
108,1437230991660,-11.257,-41.232,18.769
109,1437230991683,-11.257,-41.232,18.769
110,1437230991703,-11.257,-41.232,18.769
111,1437230991723,-11.257,-41.232,18.769
112,1437230991743,-11.257,-41.232,18.769
113,1437230991762,-11.257,-41.232,18.769
114,1437230991780,-11.576,-41.232,18.769
115,1437230991803,-11.576,-40.898,18.769
116,1437230991824,-11.576,-40.898,19.151
117,1437230991844,-11.576,-40.898,19.151
118,1437230991864,-11.938,-40.898,19.151
119,1437230991884,-11.938,-40.898,19.151
120,1437230991902,-11.938,-40.541,19.531
121,1437230991921,-12.329,-40.541,19.531
122,1437230991943,-12.329,-40.541,19.531
123,1437230991963,-12.651,-40.541,19.961
124,1437230991984,-12.651,-40.193,19.961
125,1437230992004,-13.006,-40.193,19.961
126,1437230992023,-13.006,-40.193,20.265
127,1437230992041,-13.427,-39.871,20.265
128,1437230992067,-13.835,-39.871,20.265
129,1437230992130,-14.14,-39.871,20.265
130,1437230992131,-14.762,-39.549,20.573
131,1437230992132,-15.231,-39.549,20.573
132,1437230992141,-15.582,-39.549,20.573
133,1437230992161,-16.049,-39.227,20.573
134,1437230992183,-16.531,-39.227,20.573
135,1437230992205,-16.856,-39.227,20.573
136,1437230992222,-16.856,-38.919,20.573
137,1437230992244,-17.23,-38.919,20.573
138,1437230992266,-17.23,-38.919,20.573
139,1437230992292,-17.57,-38.919,20.573
140,1437230992308,-17.57,-38.919,20.573
141,1437230992327,-17.57,-38.572,20.573
142,1437230992344,-17.57,-38.572,20.573
143,1437230992362,-17.57,-38.572,20.573
144,1437230992386,-17.57,-38.572,20.573
145,1437230992404,-17.57,-38.227,20.573
146,1437230993540,-17.945,-38.227,20.573
147,1437230993541,-17.945,-38.227,20.573
148,1437230993542,-18.266,-37.919,20.945
149,1437230993543,-18.266,-37.919,20.945
150,1437230993544,-18.266,-37.919,20.945
151,1437230993545,-18.266,-37.57,21.394
152,1437230993546,-18.266,-37.57,22.103
153,1437230993547,-18.266,-37.57,22.702
154,1437230993548,-18.266,-37.178,23.286
155,1437230993549,-18.266,-37.178,24.028
156,1437230993550,-18.266,-37.178,24.49
157,1437230993551,-18.266,-36.749,24.49
158,1437230993552,-18.266,-36.749,24.887
159,1437230993553,-18.266,-36.347,25.39
160,1437230993554,-18.266,-36.347,25.982
161,1437230993555,-18.266,-35.91,26.417
162,1437230993556,-18.266,-35.91,26.417
163,1437230993557,-18.266,-35.348,26.725
164,1437230993558,-18.266,-34.921,26.725
165,1437230993559,-18.266,-34.921,27.474
166,1437230993560,-18.266,-34.274,27.149
167,1437230993561,-18.266,-33.926,27.149
168,1437230993562,-18.266,-33.926,27.149
169,1437230993563,-18.266,-33.926,27.149
170,1437230993564,-18.266,-33.926,26.753
171,1437230993565,-18.571,-33.926,26.753
172,1437230993566,-19.255,-33.926,26.753
173,1437230993567,-20.137,-33.508,26.753
174,1437230993568,-21.054,-33.508,26.753
175,1437230993569,-21.968,-33.14,26.753
176,1437230993570,-22.721,-33.14,26.753
177,1437230993571,-22.721,-32.832,26.753
178,1437230993572,-23.092,-32.832,26.753
179,1437230993573,-23.092,-32.832,26.753
180,1437230993574,-23.092,-32.832,26.753
181,1437230993575,-23.092,-32.455,26.753
182,1437230993576,-23.957,-32.455,26.753
183,1437230993577,-23.957,-32.455,26.298
184,1437230993578,-24.624,-32.455,25.453
185,1437230993579,-25.013,-32.455,25.453
186,1437230993580,-25.013,-32.455,24.56
187,1437230993581,-25.013,-32.455,24.56
188,1437230993582,-24.65,-32.455,24.56
189,1437230993583,-24.33,-32.455,24.043
190,1437230993584,-23.948,-32.455,24.043
191,1437230993585,-23.948,-32.455,24.043
192,1437230993586,-22.712,-32.795,24.043
193,1437230993587,-20.501,-33.824,24.043
194,1437230993588,-18.843,-35.116,24.043
195,1437230993589,-17.955,-36.019,24.043
196,1437230993590,-17.494,-36.393,23.707
197,1437230993591,-17.864,-36.393,23.707
198,1437230993592,-17.864,-36.393,23.707
199,1437230993593,-16.802,-35.131,23.707
200,1437230993594,-15.412,-35.131,23.707
201,1437230993595,-13.824,-35.469,23.707
202,1437230993596,-13.165,-35.469,24.458
203,1437230993597,-13.165,-35.469,25.164
204,1437230993598,-12.649,-35.469,25.611
205,1437230993601,-12.995,-35.469,25.978
206,1437230993621,-13.363,-35.469,25.978
207,1437230993641,-13.363,-35.797,26.335
208,1437230993661,-13.792,-35.797,26.335
209,1437230993681,-13.792,-35.797,26.335
210,1437230993701,-14.541,-36.103,26.335
211,1437230993721,-14.541,-36.103,25.563
212,1437230993741,-14.541,-36.103,24.862
213,1437230993762,-14.541,-36.103,24.02
214,1437230993784,-14.541,-36.424,22.232
215,1437230993803,-15.074,-37.242,20.623
216,1437230993822,-15.074,-37.242,21.179
217,1437230993845,-15.074,-36.776,23.921
218,1437230993866,-14.59,-36.776,23.921
219,1437230993883,-14.897,-36.776,23.153
220,1437230993902,-15.791,-37.167,22.142
221,1437230993924,-16.793,-37.167,20.982
222,1437230993944,-17.605,-37.167,19.844
223,1437230993963,-18.269,-37.167,19.844
224,1437230993982,-18.6,-37.167,20.69
225,1437230994006,-18.6,-37.472,21.069
226,1437230994026,-17.793,-37.472,21.069
227,1437230994045,-16.954,-37.472,21.069
228,1437230994064,-15.872,-37.818,21.549
229,1437230994084,-15.179,-37.818,21.549
230,1437230994157,-14.453,-38.162,22.048
231,1437230994158,-13.763,-38.162,21.568
232,1437230994159,-13.763,-38.162,21.186
233,1437230994169,-13.763,-38.479,21.186
234,1437230994183,-14.193,-38.479,21.527
235,1437230994204,-13.717,-38.479,22.779
236,1437230994223,-12.962,-38.479,23.854
237,1437230994266,-12.182,-38.479,24.337
238,1437230994267,-11.474,-38.479,24.337
239,1437230994286,-10.928,-38.479,24.337
240,1437230994305,-10.928,-38.479,24.961
241,1437230994326,-10.586,-38.479,24.961
242,1437230994349,-10.586,-38.479,24.961
243,1437230994366,-11.279,-38.479,25.541
244,1437230994386,-11.773,-38.16,26.045
245,1437230994404,-12.159,-38.16,26.045
246,1437230994424,-12.6,-38.16,25.106
247,1437230994443,-12.6,-38.16,24.371
248,1437230994463,-12.6,-38.16,23.231
249,1437230994485,-12.6,-38.16,21.707
250,1437230994505,-13.264,-38.16,19.943
251,1437230994529,-13.822,-38.16,19.097
252,1437230994547,-13.822,-38.16,21.363
253,1437230994564,-13.497,-38.16,24.168
254,1437230994589,-14.019,-38.16,23.478
255,1437230994610,-14.828,-38.16,21.162
256,1437230994628,-15.528,-38.16,19.349
257,1437230994644,-16.212,-38.16,18.435
258,1437230994664,-17.025,-38.601,18.435
259,1437230994684,-17.025,-38.601,18.435
260,1437230994704,-17.025,-38.601,18.76
261,1437230994725,-16.601,-38.601,18.76
262,1437230994748,-15.957,-38.601,18.76
263,1437230994765,-14.642,-38.989,20.549
264,1437230994784,-13.973,-38.989,20.549
265,1437230994866,-13.973,-39.335,20.957
266,1437230994867,-13.417,-39.335,20.957
267,1437230994868,-13.417,-39.335,20.526
268,1437230994869,-13.417,-39.675,20.526
269,1437230994884,-13.417,-39.675,20.971
270,1437230994907,-13.417,-39.675,22.628
271,1437230994924,-12.251,-39.675,24.552
272,1437230994956,-11.051,-39.312,24.552
273,1437230994964,-10.456,-39.312,24.552
274,1437230994986,-9.426,-39.312,24.552
275,1437230995011,-9.426,-39.312,24.552
276,1437230995024,-9.426,-39.312,24.552
277,1437230995049,-9.426,-39.312,24.552
278,1437230995068,-9.893,-39.312,24.552
279,1437230995087,-10.241,-38.943,24.552
280,1437230995106,-10.58,-38.943,24.238
281,1437230995124,-11.262,-38.943,24.238
282,1437230995144,-11.262,-38.943,23.11
283,1437230995164,-11.262,-38.943,22.12
284,1437230995185,-11.262,-38.943,21.597
285,1437230995207,-11.788,-38.943,19.538
286,1437230995228,-12.44,-38.943,18.188
287,1437230995247,-12.44,-38.943,20.312
288,1437230995266,-12.44,-38.943,23.35
289,1437230995286,-12.44,-38.943,22.262
290,1437230995306,-13.331,-38.943,20.506
291,1437230995325,-14.12,-38.943,18.557
292,1437230995344,-14.83,-38.943,18.022
293,1437230995365,-15.507,-39.331,17.323
294,1437230995388,-15.507,-39.331,17.323
295,1437230995409,-15.859,-39.331,17.323
296,1437230995428,-15.266,-39.331,17.7
297,1437230995447,-14.466,-39.75,18.214
298,1437230995465,-13.487,-39.75,18.707
299,1437230995486,-12.936,-40.061,19.274
300,1437230995513,-12.57,-40.061,19.627
301,1437230995594,-12.161,-40.061,19.627
302,1437230995595,-12.161,-40.422,19.627
303,1437230995596,-12.161,-40.422,19.627
304,1437230995597,-12.161,-40.422,20.574
305,1437230995605,-12.161,-40.422,22.547
306,1437230995624,-11.106,-40.422,23.403
307,1437230995653,-10.398,-40.049,23.403
308,1437230995666,-9.915,-40.049,23.403
309,1437230995684,-9.596,-40.049,24.053
310,1437230995704,-9.147,-40.049,24.053
311,1437230995742,-9.147,-40.049,24.053
312,1437230995747,-9.147,-39.744,24.409
313,1437230995775,-9.765,-39.364,24.862
314,1437230995784,-10.148,-39.364,25.555
315,1437230995805,-10.762,-38.89,24.678
316,1437230995824,-11.094,-38.89,24.063
317,1437230995847,-11.094,-38.89,22.798
318,1437230995866,-11.094,-38.89,22.375
319,1437230995886,-12.065,-38.89,20.945
320,1437230995905,-13.067,-38.89,19.758
321,1437230995925,-13.488,-38.89,20.97
322,1437230995945,-13.113,-38.89,24.647
323,1437230995965,-13.427,-38.493,25.129
324,1437230995986,-14.328,-38.493,23.564
325,1437230996005,-15.487,-38.493,21.965
326,1437230996027,-16.239,-38.493,20.471
327,1437230996045,-17.019,-38.493,19.642
328,1437230996064,-17.387,-38.493,19.642
329,1437230996085,-17.387,-38.493,19.956
330,1437230996110,-16.534,-38.493,19.956
331,1437230996131,-15.541,-38.493,19.956
332,1437230996151,-13.966,-38.493,20.875
333,1437230996168,-13.098,-38.943,21.488
334,1437230996186,-12.292,-38.943,20.903
335,1437230996206,-11.856,-38.943,21.331
336,1437230996225,-11.856,-39.373,21.331
337,1437230996247,-11.436,-39.373,21.02
338,1437230996265,-11.871,-39.373,21.02
339,1437230996338,-12.442,-39.373,22.611
340,1437230996339,-11.549,-39.373,24.714
341,1437230996340,-10.36,-38.87,24.714
342,1437230996347,-9.228,-38.87,24.714
343,1437230996366,-8.41,-39.225,24.714
344,1437230996385,-8.41,-39.225,24.714
345,1437230996405,-8.41,-39.225,24.714
346,1437230996438,-9.094,-39.225,24.714
347,1437230996445,-9.945,-39.225,24.714
348,1437230996466,-10.684,-39.225,24.714
349,1437230996486,-10.684,-39.225,24.137
350,1437230996506,-11.524,-39.225,23.767
351,1437230996529,-11.524,-39.225,22.93
352,1437230996547,-11.524,-39.225,22.253
353,1437230996567,-10.862,-39.225,21.38
354,1437230996586,-11.274,-39.225,19.964
355,1437230996605,-12.063,-39.225,18.887
356,1437230996625,-13.02,-39.225,19.618
357,1437230996646,-13.02,-39.225,23.31
358,1437230996666,-13.02,-39.225,22.698
359,1437230996687,-13.636,-39.225,21.304
360,1437230996707,-14.582,-39.225,19.165
361,1437230996733,-15.19,-39.225,18.466
362,1437230996748,-15.568,-39.225,17.75
363,1437230996771,-15.568,-39.225,18.109
364,1437230996791,-15.568,-39.593,18.582
365,1437230996811,-15.066,-39.593,18.582
366,1437230996829,-14.091,-39.593,18.582
367,1437230996847,-13.076,-39.927,19.424
368,1437230996866,-12.42,-39.927,19.424
369,1437230996886,-11.672,-39.927,19.424
370,1437230996907,-11.125,-40.339,19.056
371,1437230997080,-10.473,-40.339,19.496
372,1437230997081,-10.877,-40.339,19.496
373,1437230997082,-11.256,-40.339,19.825
374,1437230997088,-11.256,-40.339,22.286
375,1437230997089,-10.122,-40.339,24.072
376,1437230997090,-8.843,-40.339,24.072
377,1437230997091,-7.565,-40.339,24.072
378,1437230997092,-6.43,-40.339,23.582
379,1437230997093,-6.018,-40.339,23.582
380,1437230997129,-6.382,-40.339,24.305
381,1437230997130,-7.043,-39.961,24.305
382,1437230997146,-7.829,-39.961,24.8
383,1437230997173,-8.314,-39.961,24.8
384,1437230997192,-9.437,-39.559,25.102
385,1437230997207,-10.255,-39.559,24.6
386,1437230997226,-10.557,-39.559,23.197
387,1437230997246,-11.074,-39.559,23.197
388,1437230997266,-11.074,-39.559,22.209
389,1437230997286,-12.051,-39.559,21.209
390,1437230997306,-13.012,-39.224,20.361
391,1437230997328,-13.012,-39.224,22.926
392,1437230997346,-13.012,-38.909,25.038
393,1437230997366,-14.083,-38.909,24.241
394,1437230997386,-15.272,-38.909,22.703
395,1437230997406,-15.997,-38.909,21.664
396,1437230997426,-16.716,-38.909,20.31
397,1437230997446,-17.147,-38.909,20.31
398,1437230997466,-17.147,-38.909,20.31
399,1437230997486,-16.712,-38.909,20.707
400,1437230997506,-16.27,-38.909,20.707
401,1437230997528,-15.397,-38.909,21.458
402,1437230997548,-14.349,-38.909,21.458
403,1437230997565,-13.51,-38.909,21.887
404,1437230997586,-13.51,-38.909,21.456
405,1437230997607,-13.51,-38.909,21.456
406,1437230997626,-13.169,-38.909,21.92
407,1437230997645,-13.169,-38.909,21.92
408,1437230997667,-13.661,-38.909,22.436
409,1437230997687,-13.073,-38.909,24.659
410,1437230997705,-12.133,-38.909,25.845
411,1437230997728,-11.152,-38.473,25.52
412,1437230997747,-10.02,-38.473,25.52
413,1437230997766,-9.042,-38.473,24.61
414,1437230997786,-8.422,-38.473,24.98
415,1437230997807,-8.422,-38.473,24.98
416,1437230997826,-9.201,-38.473,24.98
417,1437230997846,-10.285,-38.473,24.98
418,1437230997867,-11.1,-38.473,24.98
419,1437230997887,-11.622,-38.473,24.98
420,1437230997907,-12.066,-38.473,23.892
421,1437230997926,-12.066,-38.473,23.344
422,1437230997947,-12.403,-38.473,22.926
423,1437230997967,-12.403,-38.473,21.569
424,1437230997987,-13.354,-38.473,19.419
425,1437230998007,-13.354,-38.473,19.956
426,1437230998026,-12.876,-38.473,23.199
427,1437230998047,-13.58,-38.473,23.199
428,1437230998067,-14.286,-38.473,21.565
429,1437230998088,-15.24,-38.473,19.204
430,1437230998107,-15.24,-38.801,18.537
431,1437230998128,-16.148,-38.801,18.006
432,1437230998158,-16.148,-39.16,18.006
433,1437230998167,-15.829,-39.16,18.6
434,1437230998187,-15.422,-39.16,18.6
435,1437230998207,-14.329,-39.469,18.933
436,1437230998228,-13.514,-39.469,18.933
437,1437230998248,-12.939,-39.775,19.309
438,1437230998267,-12.38,-39.775,19.309
439,1437230998287,-12.38,-40.106,19.309
440,1437230998309,-12.045,-40.106,19.309
441,1437230998412,-12.045,-40.106,19.309
442,1437230998413,-12.689,-40.106,20.08
443,1437230998414,-12.249,-40.106,22.213
444,1437230998415,-10.977,-40.106,23.213
445,1437230998416,-10.089,-40.106,23.835
446,1437230998437,-8.81,-40.106,23.469
447,1437230998447,-7.833,-40.106,23.469
448,1437230998467,-7.432,-40.106,22.981
449,1437230998487,-7.432,-40.106,23.492
450,1437230998516,-8.226,-40.106,23.492
451,1437230998527,-8.981,-40.106,23.492
452,1437230998547,-9.88,-40.106,24.066
453,1437230998568,-10.549,-40.106,23.498
454,1437230998587,-11.497,-39.739,23.498
455,1437230998607,-11.912,-39.739,22.691
456,1437230998629,-11.912,-39.739,21.649
457,1437230998649,-11.912,-39.739,20.796
458,1437230998668,-12.747,-39.739,20.195
459,1437230998687,-13.464,-39.739,20.195
460,1437230998707,-13.006,-39.439,23.081
461,1437230998727,-13.612,-39.439,23.548
462,1437230998747,-14.033,-39.439,22.261
463,1437230998768,-15.597,-39.439,20.265
464,1437230998788,-16.215,-39.439,19.56
465,1437230998809,-16.708,-39.439,18.884
466,1437230998828,-16.708,-39.439,19.207
467,1437230998850,-16.708,-39.439,19.207
468,1437230998869,-16.181,-39.439,19.207
469,1437230998888,-15.745,-39.439,19.726
470,1437230998909,-14.62,-39.439,19.726
471,1437230998929,-13.69,-39.439,20.04
472,1437230998948,-13.203,-39.75,20.426
473,1437230998968,-12.617,-39.75,20.123
474,1437230998989,-12.617,-39.75,20.123
475,1437230999008,-12.617,-39.75,20.536
476,1437230999027,-12.617,-39.75,20.536
477,1437230999049,-12.617,-39.75,21.569
478,1437230999140,-11.981,-39.75,24.482
479,1437230999141,-11.347,-39.75,25.984
480,1437230999142,-10.365,-39.442,25.399
481,1437230999143,-9.072,-39.442,25.399
482,1437230999156,-8.114,-39.442,25.399
483,1437230999168,-7.369,-39.442,25.009
484,1437230999188,-7.823,-39.442,24.473
485,1437230999208,-8.805,-39.442,25.469
486,1437230999236,-9.729,-39.076,26.022
487,1437230999248,-11.09,-39.076,26.022
488,1437230999269,-11.958,-38.775,25.228
489,1437231000508,-12.335,-38.775,24.291
490,1437231000509,-12.335,-38.775,23.715
491,1437231000510,-12.899,-38.775,22.56
492,1437231000511,-13.357,-38.775,21.942
493,1437231000512,-13.998,-38.775,19.998
494,1437231000513,-13.998,-38.775,22.038
