id,attr_time,attr_db
1,1436289167921,53.115384487981
2,1436289168574,52.4926160356909
3,1436289169269,53.8398152196131
4,1436289169946,53.4057658428513
5,1436289170620,54.6649109487688
6,1436289171290,52.8880097934141
7,1436289171947,54.5612899387586
8,1436289172612,51.138995486815
9,1436289173280,49.1807692744643
10,1436289173938,50.2654563024401
11,1436289174608,60.0127527439508
12,1436289175253,59.2326468250753
13,1436289175907,57.9019858454615
14,1436289176538,59.1782953352251
15,1436289177221,56.1308273489765
16,1436289177835,63.1260019787289
17,1436289178485,60.95094649179
18,1436289179140,60.7602056945721
19,1436289179776,57.9801684585721
20,1436289180412,58.6265554633169
21,1436289181068,62.1375937626483
22,1436289181725,63.5944358568008
23,1436289182388,66.6793121414618
24,1436289183061,63.0637880182135
25,1436289183726,57.5257375988318
26,1436289184350,57.2479607533654
27,1436289185015,61.187213025373
28,1436289185681,62.1302288589303
29,1436289186302,56.3376521941208
30,1436289186975,60.9096598513611
31,1436289187596,59.6715106604432
32,1436289188218,66.9246635583902
33,1436289188846,52.2961138746203
34,1436289189503,62.8971418605384
35,1436289190169,57.8419459778685
36,1436289190833,65.6103707385016
37,1436289191496,54.6589493530047
38,1436289192147,49.5524443776837
39,1436289192800,55.8108200256379
40,1436289193450,63.0812112011283
41,1436289194077,66.2431233494325
42,1436289194702,55.9167268249315
43,1436289195367,61.3309638108965
44,1436289196005,61.3000062379233
45,1436289196660,62.0046229305792
46,1436289197294,56.3032196245867
47,1436289197925,55.7074971790536
48,1436289198563,68.6424649305173
49,1436289199239,50.8217398377507
50,1436289199889,53.2774975155441
51,1436289200511,61.1808729841159
52,1436289201165,59.4938549587502
53,1436289201825,49.0879376756447
54,1436289202499,56.6608836209805
55,1436289203147,55.543390925152
56,1436289203819,65.9420132265943
57,1436289204501,57.7289310441853
58,1436289205165,45.5916828770305
59,1436289205796,54.2653323640368
60,1436289206429,57.8166670419943
61,1436289207163,62.390331928277
62,1436289207816,55.5121081059877
63,1436289208455,54.6768780639694
64,1436289209126,56.2963625012145
65,1436289209832,60.5496691776925
66,1436289210503,65.5939931107516
67,1436289211147,56.8880638541828
68,1436289211812,59.1103310465764
69,1436289212457,58.0039587691244
70,1436289213112,63.6693863683098
71,1436289213760,45.9155483628092
72,1436289214431,55.8450386117307
73,1436289215064,63.6432839521855
74,1436289215697,54.6103421551984
75,1436289216329,48.8770326862622
76,1436289216987,58.0276847647969
77,1436289217624,60.3588112067285
78,1436289218290,51.388043497912
79,1436289218892,58.8529363462408
80,1436289219492,61.8385210115393
81,1436289220163,48.8562593342045
82,1436289220810,61.7374531894544
83,1436289221492,61.1045833968211
84,1436289222174,63.4264845761596
85,1436289222927,59.4291194495005
86,1436289223537,49.8687566308677
87,1436289224158,60.2931566028783
88,1436289224827,60.1034405067501
89,1436289225518,50.6183441559983
90,1436289226127,57.5845250562908
91,1436289226750,56.6740785097458
92,1436289227360,54.6703236799066
93,1436289228005,57.6249962064893
94,1436289228617,54.4664264829766
95,1436289229290,61.794134323446
96,1436289229884,62.7846225551705
97,1436289230534,52.4564994015423
98,1436289231174,58.0729972437382
99,1436289231850,65.2376287191181
100,1436289232480,67.7314039996645
101,1436289233161,48.5407001557817
102,1436289233818,58.5387188944875
103,1436289234465,61.0835517364106
104,1436289235094,56.5759155029516
105,1436289235774,56.8026417698871
106,1436289236401,54.8536396943034
107,1436289237046,67.779035537718
108,1436289237710,56.4878353420848
109,1436289238334,58.5056587893991
110,1436289238984,62.1053908528395
111,1436289239650,60.5533239213936
112,1436289240239,61.9747328353952
113,1436289240860,70.2420333495001
114,1436289241496,58.0724067080221
115,1436289242141,61.4037153833952
116,1436289242809,63.5536068366942
117,1436289243477,63.5634867724723
118,1436289244122,61.2425659354511
119,1436289244800,61.708179407021
120,1436289245412,70.4394718478793
121,1436289246012,60.8439840918242
122,1436289246660,59.1696419208239
123,1436289247320,59.239055496783
124,1436289247948,58.7031474773799
125,1436289248608,61.9803984358889
126,1436289249272,65.2072076592605
127,1436289249898,59.4774267512048
128,1436289250569,67.9282600265038
129,1436289251210,62.8996727290752
130,1436289251866,61.8339638531075
131,1436289252503,63.2339672777913
132,1436289253180,63.8117300640157
133,1436289253840,66.7579852355843
134,1436289254485,62.6803239023707
135,1436289255153,65.5161748197921
136,1436289255828,65.5777532852771
137,1436289256479,64.2376522190682
138,1436289257144,65.3378553632063
139,1436289257798,67.6395415972695
140,1436289258475,70.8375000651049
141,1436289259100,64.8672038804591
142,1436289259726,69.3571338364243
143,1436289260305,68.1396574629958
144,1436289260887,68.0856808788406
145,1436289261546,69.4935749754275
146,1436289262196,69.7072958591361
147,1436289262835,66.4305297790527
148,1436289263447,66.9951916536005
149,1436289264581,65.5508004223272
150,1436289265240,62.7225722739311
151,1436289265847,62.3879888254124
152,1436289266495,65.9781508152733
153,1436289267125,62.3127137232422
154,1436289267753,60.658381572009
155,1436289268356,60.5582168722478
156,1436289268964,63.6073312570702
157,1436289269610,63.0149197464257
158,1436289270237,58.0610020338458
159,1436289270864,61.7346935659055
160,1436289271516,68.0885423734941
161,1436289272161,59.0746006977908
162,1436289272805,60.0305365089893
163,1436289273465,61.8056396915681
164,1436289274081,57.1685069123468
165,1436289274745,60.2016617490469
166,1436289275339,62.9966167972442
167,1436289276570,60.935415337495
168,1436289277195,59.4930298339575
169,1436289277848,60.4158056149296
170,1436289278501,65.4192148872909
171,1436289279132,61.9706972315819
172,1436289279752,61.0641959354128
173,1436289280347,57.866735853155
174,1436289280926,60.4685811716625
175,1436289281568,61.015203561568
176,1436289282177,57.2861446775148
177,1436289282834,58.8393774955505
178,1436289283465,57.887017379869
179,1436289284126,57.7101129496346
180,1436289284787,59.4150147776163
181,1436289285386,61.8147278342855
182,1436289286028,59.9678252262035
183,1436289286673,53.9465098226191
184,1436289287275,52.7932417978482
185,1436289287895,48.9469997040391
186,1436289288539,55.9346165657487
187,1436289290167,55.2150439329798
188,1436289290808,47.6689868242591
189,1436289291446,52.8626183636192
190,1436289292090,56.1862264526159
191,1436289292751,62.6565552503968
192,1436289293402,46.9123688549405
193,1436289294091,47.8883212314618
194,1436289294744,46.1644539904777
195,1436289295370,49.6308809162314
196,1436289296044,61.5932422434142
197,1436289296692,49.9339974405308
198,1436289297301,54.0840612345989
199,1436289297884,47.8824349870979
200,1436289298966,52.4603807639834
201,1436289299611,58.9341728107545
202,1436289300216,52.4446443057811
203,1436289300831,56.7949151225885
204,1436289301465,52.2690530395816
205,1436289302139,50.7572514510638
206,1436289302802,56.7125576847537
207,1436289303430,53.2902905349127
208,1436289304027,57.1779319565315
209,1436289304632,50.0597485081649
210,1436289305247,59.0293356588062
211,1436289305904,52.1658892127432
212,1436289306574,52.7511158754972
213,1436289307278,50.2791944221843
214,1436289307959,56.1148934521586
215,1436289308593,49.228036032296
216,1436289309195,60.4685169063813
217,1436289309832,48.2263734611693
218,1436289310490,52.8172147015367
219,1436289311114,61.7160799157278
220,1436289311757,56.4381017946842
221,1436289312427,53.8122982818692
222,1436289313101,58.2540078079412
223,1436289313759,46.8797533688059
224,1436289314406,61.4949873091566
225,1436289315063,48.4901907204195
226,1436289315721,52.1968170895163
227,1436289316402,53.0462088077687
228,1436289317057,56.8261097035672
229,1436289317722,53.5116842046346
230,1436289318365,50.1395916680058
231,1436289319040,56.4667577332361
232,1436289319676,48.8986769779203
233,1436289320284,49.7843681545375
234,1436289320932,48.7802358008818
235,1436289321592,52.3136820958372
236,1436289322241,56.3297107285071
237,1436289322893,51.2745939501392
238,1436289323530,50.9992589977722
239,1436289324206,50.6777136562827
240,1436289324855,46.2153571283364
241,1436289325554,48.071361698099
242,1436289326216,52.5328542479484
243,1436289326877,45.6341044316984
244,1436289327536,46.6433372129811
245,1436289328169,44.6421962733531
246,1436289328794,53.7137636910813
247,1436289329468,47.9531322303544
248,1436289330125,47.7901490152074
249,1436289330795,56.3997553119705
250,1436289331416,49.1354495815511
251,1436289332019,53.2788043553112
252,1436289332609,58.5513438438725
253,1436289333267,54.5490303006729
254,1436289333928,56.0937836651674
255,1436289334637,54.8909794397734
256,1436289335302,60.8038962064278
257,1436289335945,48.2633419892233
258,1436289336599,48.3729746657951
259,1436289337251,46.4409226517007
260,1436289337924,55.2763880535061
261,1436289338554,46.5971245551141
262,1436289339221,47.0049765757653
263,1436289339865,48.917450432502
264,1436289340519,48.4582899748759
265,1436289341193,52.0322952535732
266,1436289341820,50.4623172416754
267,1436289342459,48.4968868009247
268,1436289343041,47.9672215132524
269,1436289343636,48.8534224355925
270,1436289344338,49.5942734403634
271,1436289344951,49.1268163555263
272,1436289345622,47.7036324140543
273,1436289346236,52.8130300349233
274,1436289346889,52.654910466889
275,1436289347520,53.5016495289893
276,1436289348141,50.1522285743049
277,1436289348773,48.2058020420666
278,1436289349372,46.7210270446749
279,1436289350007,46.3973747464354
280,1436289350662,45.4638681687467
281,1436289351307,44.5339158279283
282,1436289351974,47.7710045904287
283,1436289352628,45.0730554386344
284,1436289353289,47.0258618881282
285,1436289353964,47.0773143010914
286,1436289354599,53.0394245643826
287,1436289355265,47.3751176100312
288,1436289355940,66.4978497179103
289,1436289356620,47.7914150386297
290,1436289357264,53.7873673411569
291,1436289357912,48.9573708673438
292,1436289358573,64.8719821151503
293,1436289359183,48.5212235910315
294,1436289359790,67.2575559988951
295,1436289360381,55.1788049261
296,1436289361035,48.592034861758
297,1436289361696,47.521114773327
298,1436289362308,43.8528896791138
299,1436289362905,46.1879622586401
300,1436289363489,49.1939496589875
301,1436289364126,57.8736403151837
302,1436289364776,51.4146317319915
303,1436289365457,55.3593892530031
304,1436289366132,62.6828821516655
305,1436289366793,58.7202102687672
306,1436289367421,48.8381718635923
307,1436289368079,52.7858777988107
308,1436289368702,54.6958480184076
309,1436289369340,52.6860918968315
310,1436289369966,56.9469927057145
311,1436289370591,52.5257519655119
312,1436289371248,48.9561829855744
313,1436289371915,61.0228260137803
314,1436289372543,61.5557121018496
315,1436289373169,65.4736185050487
316,1436289373804,45.4948872025432
317,1436289374465,52.3116159671913
318,1436289375120,45.684982319974
319,1436289375775,48.587257596475
320,1436289376426,49.0725136153381
321,1436289377086,48.3871842572492
322,1436289377741,47.8354642454367
323,1436289378408,54.4200546915746
324,1436289379094,54.8837256276101
325,1436289379752,50.962926961916
326,1436289380345,56.2513435736901
327,1436289380987,57.0408350853818
328,1436289381634,60.717505085728
329,1436289382307,63.5054687454612
330,1436289382938,55.2795041887046
331,1436289383571,46.5643511754975
332,1436289384257,46.7187745360666
333,1436289384890,46.9790363923729
334,1436289385535,70.6582044181664
335,1436289386222,45.5792784069608
336,1436289386856,53.7546086283874
337,1436289387521,56.4848956017706
338,1436289388210,45.4426332815227
339,1436289388859,45.9344714911564
340,1436289389490,45.4501621651654
341,1436289390140,47.4173005257847
342,1436289390755,49.2136380341618
343,1436289391410,48.166650203076
344,1436289392063,49.7005290228918
345,1436289392697,47.7833873555242
346,1436289393284,52.8116354422002
347,1436289393915,52.0216226590726
348,1436289394557,56.0450366038485
349,1436289395213,55.8633751445375
350,1436289395869,54.3142445114264
351,1436289396545,57.9919433412392
352,1436289397221,61.7286502742404
353,1436289397866,55.0689813797011
354,1436289398519,48.5051657908871
355,1436289399191,46.733675881061
356,1436289399870,45.7137966902765
357,1436289400506,44.4646151712822
358,1436289401149,49.1142399634531
359,1436289401729,49.4881168511201
360,1436289402297,44.6135555833558
361,1436289402899,48.3331342249124
362,1436289403554,49.2419828672194
363,1436289404200,55.4696075785332
364,1436289404862,60.2239948710507
365,1436289405493,62.9021300589734
366,1436289406137,58.0929836262934
367,1436289406799,62.883453409616
368,1436289407424,46.0089672954948
369,1436289408076,45.9672417994867
370,1436289408737,45.3228091643472
371,1436289409426,43.2644323197905
372,1436289410087,42.3525830116172
373,1436289410738,41.2696749903758
374,1436289411353,42.5459463341756
375,1436289412015,43.3604988258419
376,1436289412682,44.5207666615162
377,1436289413364,45.4276927122846
378,1436289413966,46.3634379776642
379,1436289414591,54.6747816167483
380,1436289415255,47.2073830072164
381,1436289415862,49.2142464205744
382,1436289416508,54.6477738534966
383,1436289417168,51.7106442842069
384,1436289417827,55.1026030295838
385,1436289418487,55.441425776481
386,1436289419146,59.0107174089054
387,1436289419803,62.7063216465094
388,1436289420415,67.5145465153846
389,1436289421024,71.7397412299105
390,1436289421684,65.3360393161516
391,1436289422333,61.5881550229809
392,1436289422960,58.7564063906915
393,1436289423584,56.1427922325569
394,1436289424249,55.0884632398401
395,1436289424881,54.103167408382
396,1436289425537,54.9818859558772
397,1436289426179,52.7795621014985
398,1436289426853,56.2273837967165
399,1436289427514,53.0417721499851
400,1436289428189,56.0793986726764
401,1436289428869,57.4082099435346
402,1436289429526,50.8656210108693
403,1436289430152,63.9313114570399
404,1436289430796,53.6984456371131
405,1436289431408,53.0313393926719
406,1436289432071,51.8584010291771
407,1436289432719,52.1063462387933
408,1436289433343,50.2914635590679
409,1436289434032,56.2474825216783
410,1436289434681,49.2680387826501
411,1436289435321,52.0995465761174
412,1436289436013,54.6376356214661
413,1436289436681,56.3770034906512
414,1436289437313,49.8479025879504
415,1436289437981,55.1353323333731
416,1436289438638,46.9457993112826
417,1436289439341,54.5189015322069
418,1436289439978,48.6418788082133
419,1436289440674,49.143033734387
420,1436289441311,49.999695844361
421,1436289441991,50.2538094377325
422,1436289442625,53.2244554323574
423,1436289443254,60.6904681098315
424,1436289443910,50.0986868206257
425,1436289444569,66.6045959819655
426,1436289445173,55.6058030806812
427,1436289445820,53.5507915135607
428,1436289446467,63.6283241321971
429,1436289447091,64.7771632001608
430,1436289447757,51.5418158418934
431,1436289448419,46.8155172207085
432,1436289449075,58.1194594553218
433,1436289449740,45.6933193305623
434,1436289450392,46.9884384533326
435,1436289451044,65.9755215421327
436,1436289451709,63.3144691456805
437,1436289452306,55.6773905337917
438,1436289452929,46.3866386993989
439,1436289453560,61.5958513096214
440,1436289454228,46.8874730630413
441,1436289454830,46.4226908891642
442,1436289455521,48.4745216450709
443,1436289456166,46.5981636316192
444,1436289456810,46.5246340280848
445,1436289457467,45.9793976466961
446,1436289458133,47.4523194979239
447,1436289458804,46.0850557233471
448,1436289459482,53.5442383784595
449,1436289460134,50.8960953850784
450,1436289460794,51.2755230481787
451,1436289461438,48.4989266767788
452,1436289462092,50.1695576297448
453,1436289462731,52.2868628554932
454,1436289463347,50.5257683123152
455,1436289463970,52.1373968755422
456,1436289464590,48.712710637738
457,1436289465291,51.3253250544958
458,1436289465931,56.0818214246298
459,1436289466594,59.2856419314408
460,1436289467262,60.4016665818656
461,1436289468774,57.251995066088
462,1436289469440,56.5543002496623
463,1436289470104,56.8034375758283
464,1436289470757,49.5746106399863
465,1436289471427,48.5783889635618
466,1436289472057,46.670000597986
467,1436289472664,47.3748053367132
468,1436289473250,45.4950831989447
469,1436289473819,45.1026818890292
470,1436289474406,43.8824300856836
471,1436289474975,43.9157751880011
472,1436289475570,45.7838157168251
473,1436289476210,46.0072497402954
474,1436289476996,47.1324747955862
475,1436289477588,47.8692884469295
476,1436289478246,43.7217348232773
477,1436289478895,43.8538270911399
478,1436289479535,44.8591655814933
479,1436289480277,44.7125070016787
480,1436289480999,45.4096261569556
481,1436289481751,47.0141863998106
482,1436289482463,46.3638103917142
483,1436289483198,46.3123375624183
484,1436289483882,45.321009723514
485,1436289485284,46.3343908687282
486,1436289486010,47.1901631895928
487,1436289486708,43.6188318095573
488,1436289487375,46.1125881899245
489,1436289488093,45.9534196987689
490,1436289488829,45.1799034095799
491,1436289489675,45.346561131083
492,1436289490256,47.6302921846336
493,1436289490941,46.8207821066479
494,1436289491669,48.8295789135358
495,1436289492401,48.9844448180677
496,1436289493054,48.4614918286759
497,1436289493739,48.5856415229479
498,1436289494506,48.1765730856018
499,1436289495268,47.7558381488435
500,1436289496028,50.9827506207897
501,1436289496730,50.4908222013422
502,1436289497414,49.4793936335462
503,1436289498138,52.7800899068761
504,1436289498825,50.4609070655932
505,1436289499480,46.0241776617704
506,1436289500179,47.0004056774634
507,1436289500927,47.2251379600718
508,1436289501654,46.9135181302841
509,1436289502340,48.2229605940581
510,1436289502990,48.5545825532636
511,1436289503714,47.2132765397044
512,1436289504465,45.8979030567846
513,1436289505009,46.464003242685
514,1436289506305,48.9289046181182
515,1436289507003,48.1502241559255
516,1436289507732,47.3627494712215
517,1436289508506,48.0899940318378
518,1436289509241,48.8464059173027
519,1436289509981,46.5238699430609
520,1436289510704,46.3693538441584
521,1436289511420,46.8450023471418
522,1436289512128,46.1769251914079
523,1436289512822,46.8013596949277
524,1436289513534,46.085553976083
525,1436289514309,46.8959790670764
526,1436289515033,48.5963841762779
527,1436289515758,49.171576604982
528,1436289516452,49.0217443884215
529,1436289517117,54.0110577803982
530,1436289517857,55.2913417487177
531,1436289518562,56.4308401018074
532,1436289519796,60.6497678685842
533,1436289520472,57.8158288676147
534,1436289521210,56.2630690203198
535,1436289521928,54.5326535816083
536,1436289522651,51.1056557266591
537,1436289523378,54.7726418040554
538,1436289524119,48.6045069459465
539,1436289524752,49.1116665856321
540,1436289525436,47.3884653611799
541,1436289526154,48.4931139473835
542,1436289526899,46.4880844989672
543,1436289527618,47.0623278128885
544,1436289528209,47.1576761286899
545,1436289528866,46.0562383530377
546,1436289529614,46.0255957779173
547,1436289530339,45.8251785216253
548,1436289531074,44.4661590050447
549,1436289531791,46.0322263734007
550,1436289532544,49.5552604211875
551,1436289533252,47.3024489095433
552,1436289533952,46.8163791056716
553,1436289534694,45.2250761932291
554,1436289535453,46.4738395778265
555,1436289536181,50.8068661081956
556,1436289536932,46.3475794829484
557,1436289537692,47.9424340693698
558,1436289538364,49.3583495209293
559,1436289539092,47.7324800969994
560,1436289539811,47.2154355248027
561,1436289540537,48.2210469536592
562,1436289541280,48.082118850297
563,1436289542010,49.3882468001176
564,1436289542746,49.2785169615076
565,1436289543464,51.5488416248019
566,1436289544142,48.6150713351217
567,1436289544915,47.8565401945542
568,1436289545598,48.9340044396749
569,1436289546321,48.0779080202124
570,1436289547063,50.4708577362476
571,1436289547962,46.7296969196649
572,1436289548595,47.4723853625761
573,1436289549171,45.3216767159904
574,1436289549851,47.580447440669
575,1436289550647,47.3015943386775
