id,attr_time,attr_db
1,1436289167697,48.5538273511376
2,1436289168375,50.6286168833551
3,1436289169085,53.2854926417734
4,1436289169825,49.3810861063469
5,1436289170558,48.8756892544171
6,1436289171303,53.852057328223
7,1436289172056,50.4454176870106
8,1436289172787,49.5134616345052
9,1436289173508,46.9221839114565
10,1436289174212,49.3708750663974
11,1436289175893,57.5242189321404
12,1436289176566,55.2977104495973
13,1436289177244,55.3086347979867
14,1436289178039,58.7790367333468
15,1436289178823,57.661463044375
16,1436289179547,54.5062207049412
17,1436289180276,50.0423842449438
18,1436289181006,50.4699557997571
19,1436289181734,49.6418715453922
20,1436289182464,50.4966739229318
21,1436289183257,54.3993721758987
22,1436289184007,53.3732990572946
23,1436289184733,48.770044235157
24,1436289185463,54.1975928733399
25,1436289186204,53.2992766143381
26,1436289186908,54.3777565065564
27,1436289187646,55.3781170117179
28,1436289188408,49.5873351912988
29,1436289189103,51.3114641779921
30,1436289189839,48.0318693145087
31,1436289190578,51.3119913150928
32,1436289191320,47.9100083686648
33,1436289192065,51.4334464966626
34,1436289192791,49.1425285530598
35,1436289193510,52.0329834930233
36,1436289194263,55.1880118295799
37,1436289194978,52.2241584206868
38,1436289195610,44.629788588408
39,1436289196314,47.5866744949587
40,1436289197043,47.7359214591353
41,1436289197766,48.835448150617
42,1436289198491,50.7213206187413
43,1436289199183,43.047210708627
44,1436289199877,48.2491470534898
45,1436289200608,49.6250961123171
46,1436289201350,51.7063127769509
47,1436289202087,51.9692431446292
48,1436289202798,50.2041112191641
49,1436289203527,50.9926581920939
50,1436289204264,51.0976330742404
51,1436289205003,48.6661388818468
52,1436289205734,48.6098716814907
53,1436289206427,46.5178559052528
54,1436289207084,50.5939614453527
55,1436289207812,44.8744132182154
56,1436289208525,46.3079741765673
57,1436289209195,53.7666058362475
58,1436289209914,53.3761961667704
59,1436289210651,55.0832209949976
60,1436289211396,56.0895061172271
61,1436289212128,52.5393291977348
62,1436289212858,47.8155412872175
63,1436289213590,44.0786757729297
64,1436289214329,46.691127251994
65,1436289215050,40.8718695870397
66,1436289215776,43.3094478003099
67,1436289216512,46.3047034998617
68,1436289217236,47.7286636164023
69,1436289217867,45.3034444676749
70,1436289218461,46.9832625630275
71,1436289219148,50.6759469801789
72,1436289219905,52.5156481274899
73,1436289220592,48.7780100064821
74,1436289221318,47.1432498750859
75,1436289222150,46.1344082386229
76,1436289222815,50.7357418888654
77,1436289223444,53.7569768158288
78,1436289224049,50.8252677536121
79,1436289224720,47.6130134776281
80,1436289225479,47.1659681891537
81,1436289226208,51.4496331791939
82,1436289226974,53.7127487447371
83,1436289227834,50.0502146128954
84,1436289228438,56.6013363549066
85,1436289229124,48.8826600353029
86,1436289229795,53.6645906366334
87,1436289230515,51.3172310160252
88,1436289231178,50.8393369377309
89,1436289231855,48.5303874762116
90,1436289232596,51.4509270087316
91,1436289233380,55.2042121126806
92,1436289233943,52.8704322588487
93,1436289234620,58.4384736349135
94,1436289235405,52.6333088502236
95,1436289235991,54.5589251587671
96,1436289236676,55.8696316397452
97,1436289237259,53.0827475337267
98,1436289237826,55.0272879019915
99,1436289238433,58.727746054743
100,1436289239255,55.9492100368087
101,1436289240040,57.9079981453051
102,1436289240643,58.2076386249316
103,1436289241342,58.3477080822272
104,1436289241912,61.1407215163367
105,1436289242545,62.7460988798725
106,1436289243312,59.610636820461
107,1436289244097,59.2592169273738
108,1436289244811,58.1032138903514
109,1436289245573,56.5046593470292
110,1436289246273,56.4726246757891
111,1436289246969,56.2009373447294
112,1436289247581,57.0572982237393
113,1436289248384,56.8654313789784
114,1436289249133,56.3484649764243
115,1436289249893,58.9295315965776
116,1436289250609,55.8169383749675
117,1436289251357,59.9854142062949
118,1436289252792,60.5157817342495
119,1436289253380,59.3085234649187
120,1436289254047,61.7745596036247
121,1436289254655,59.2993642591739
122,1436289255266,60.9452228526908
123,1436289255990,63.3846634979466
124,1436289256707,62.630918394151
125,1436289257383,63.3389538604819
126,1436289257958,63.3585237261658
127,1436289258561,62.7564841042165
128,1436289259241,65.8146683643169
129,1436289259963,67.1557361195239
130,1436289260650,68.9787137066582
131,1436289261365,65.9574524919065
132,1436289262148,67.1438010239452
133,1436289262988,65.8157693328552
134,1436289263740,63.8148461344043
135,1436289264468,64.8173869297324
136,1436289265209,58.8027696678019
137,1436289265947,73.1561030210815
138,1436289266702,62.20694372603
139,1436289267415,61.5652581024167
140,1436289268067,59.8819506777857
141,1436289268751,58.275724267897
142,1436289269478,59.5437559116639
143,1436289270153,56.1566234802131
144,1436289270839,61.3889423726671
145,1436289271431,55.4738408892143
146,1436289272162,55.4202866301013
147,1436289272836,56.8284520663027
148,1436289273626,59.2808671168448
149,1436289274283,56.185002730725
150,1436289274961,58.2393600275803
151,1436289275646,59.8842895393487
152,1436289276354,58.6924368346073
153,1436289277079,57.433506292744
154,1436289277828,62.4804800922573
155,1436289278649,64.1243129326296
156,1436289279313,58.8606016150636
157,1436289280052,57.073947530585
158,1436289280806,54.3589097315296
159,1436289281552,57.3270785226468
160,1436289282230,56.8920414254149
161,1436289282864,53.8517251527532
162,1436289283654,60.8184720706757
163,1436289284366,56.6388237861521
164,1436289285111,55.277070487863
165,1436289285847,51.5365732186527
166,1436289286569,51.3445192710225
167,1436289287453,48.2166192098568
168,1436289288200,51.5201114650553
169,1436289288883,48.1591341076169
170,1436289289639,47.1589349255568
171,1436289290277,57.3664358494695
172,1436289290953,48.9215357624245
173,1436289291698,45.9492962183374
174,1436289292659,46.1552841356496
175,1436289293339,44.6146423670716
176,1436289293955,43.1011441541984
177,1436289294549,46.4013804294959
178,1436289295232,42.4306845618525
179,1436289295915,43.0630092750501
180,1436289296574,46.6209220215995
181,1436289297310,56.0223634209827
182,1436289298083,46.7467018874544
183,1436289298765,49.5101050803784
184,1436289299464,47.9888617572016
185,1436289300185,49.4626609067241
186,1436289300914,46.5307701593918
187,1436289301636,45.7365053284372
188,1436289302380,58.4884531414724
189,1436289303079,52.7197542931819
190,1436289303781,45.7320478198721
191,1436289304506,45.5907434561466
192,1436289305222,45.9872732018795
193,1436289305937,46.0577796504216
194,1436289306680,44.7154049297139
195,1436289307424,48.3491331467446
196,1436289308182,46.0604946306435
197,1436289308868,46.5330197609809
198,1436289309637,49.2288411225949
199,1436289310301,47.3872644052921
200,1436289311061,48.1073672239944
201,1436289311809,53.167229690694
202,1436289312675,55.2174143061144
203,1436289313331,47.04601852148
204,1436289313954,42.6225721275527
205,1436289314641,46.6628389150689
206,1436289315371,47.2866327457186
207,1436289316089,51.3815008929552
208,1436289316831,52.5196989646198
209,1436289317553,55.6277371947523
210,1436289318285,52.3754192466539
211,1436289318936,46.1612554295405
212,1436289319555,48.5920654972628
213,1436289320206,47.3329306842623
214,1436289320929,49.5400141708262
215,1436289321699,54.4923408843281
216,1436289322407,54.7812263821017
217,1436289323018,54.2692621879591
218,1436289323806,51.4618012173675
219,1436289324556,46.5370961895059
220,1436289325237,45.1335884886547
221,1436289325961,44.6694269088851
222,1436289326724,44.7933309720226
223,1436289327529,41.3232770620674
224,1436289328178,51.0026228194072
225,1436289328893,43.6888659840757
226,1436289329630,48.1486782147239
227,1436289330372,46.3520646442976
228,1436289331086,46.3681676876239
229,1436289331759,54.052193784159
230,1436289332483,56.3926821881023
231,1436289333219,56.6873908935454
232,1436289333957,57.898016045417
233,1436289334691,57.8715787714407
234,1436289335464,55.206911324027
235,1436289336223,55.6753669547835
236,1436289336878,48.1874015120987
237,1436289337613,46.7344036046068
238,1436289338445,45.2370813387232
239,1436289339097,46.7714057368
240,1436289339833,46.7522050028725
241,1436289340573,49.0919874061306
242,1436289341241,51.1051108547452
243,1436289341991,52.320445120706
244,1436289342735,47.1478000679861
245,1436289343356,48.8847160348355
246,1436289345313,48.9313648628561
247,1436289346047,49.7946393559435
248,1436289346787,50.9310560232094
249,1436289347530,55.359020368449
250,1436289348277,62.7260622759768
251,1436289348999,50.3538945182579
252,1436289349733,48.7904003031804
253,1436289350443,48.1711701892595
254,1436289351050,54.6622910377653
255,1436289351733,47.8275196361957
256,1436289352453,49.6602958820532
257,1436289353164,49.8044829078739
258,1436289353994,46.9743744579967
259,1436289354847,52.1442590261934
260,1436289355737,49.0912107923668
261,1436289356586,53.739165714706
262,1436289357313,73.6416832370083
263,1436289357994,56.0994567883925
264,1436289359398,52.4877101657207
265,1436289360125,62.8278441206952
266,1436289360831,47.5270155561123
267,1436289361406,45.1468535014811
268,1436289362011,47.2003734639423
269,1436289362617,45.6167624262061
270,1436289363345,52.4041108165224
271,1436289364038,51.3210017798383
272,1436289364724,52.6535348895049
273,1436289365478,52.5119883167782
274,1436289366213,74.7931359494808
275,1436289366935,71.0147659603532
276,1436289367656,50.348417953671
277,1436289368414,54.8922676121359
278,1436289369188,55.5428326894169
279,1436289369888,58.1643917808471
280,1436289370619,56.6568227158685
281,1436289371305,55.6644558166712
282,1436289371981,57.0308174586841
283,1436289372801,54.8286760009851
284,1436289373526,48.5242442377019
285,1436289374231,72.4940544702872
286,1436289374961,47.1570637843583
287,1436289375637,46.1885961441563
288,1436289376379,47.2456430223416
289,1436289377105,49.7909245776607
290,1436289377839,48.7980494411165
291,1436289378550,54.3433121786926
292,1436289379121,56.6230044984179
293,1436289379841,59.0798101904225
294,1436289380570,58.253143957595
295,1436289382644,60.846925201294
296,1436289383356,55.311586732192
297,1436289384082,55.4689052558892
298,1436289384830,50.4901139657529
299,1436289385411,47.4373927627135
300,1436289386106,46.9305198134026
301,1436289386859,44.9158145980045
302,1436289387588,72.873427786808
303,1436289388352,49.3759648567617
304,1436289389097,45.0979499439843
305,1436289389842,46.3364541439466
306,1436289390583,47.9741801575449
307,1436289391325,49.9968743844982
308,1436289392034,50.4454019284692
309,1436289392708,53.0750114736089
310,1436289393415,54.1714659714189
311,1436289394125,55.1060157664654
312,1436289395869,56.8805822852978
313,1436289396557,57.4047006155674
314,1436289397349,54.9134845700483
315,1436289398088,48.6190601722396
316,1436289398814,70.7955761050888
317,1436289399465,50.3525765331773
318,1436289400188,47.1892226459481
319,1436289400925,44.0695408397406
320,1436289401662,45.1099209055322
321,1436289402313,45.0366883742377
322,1436289403076,45.0324334237481
323,1436289403726,47.8218914624725
324,1436289404455,55.2745093641225
325,1436289405189,60.0239579206493
326,1436289405923,63.7506199986835
327,1436289406678,56.851090708664
328,1436289407466,49.3132408402951
329,1436289408186,46.5118575109422
330,1436289408914,46.3571352659645
331,1436289409657,45.7782442259408
332,1436289410382,44.6903307156426
333,1436289411113,44.5635630581791
334,1436289411793,44.2968279829236
335,1436289412529,44.9753574893131
336,1436289413227,44.7496809771982
337,1436289413886,46.1466309677523
338,1436289414608,52.86408864077
339,1436289415336,47.6169682384507
340,1436289416064,51.0940910871311
341,1436289416796,53.8918850269946
342,1436289417557,54.9931741119315
343,1436289418327,55.7134936028893
344,1436289419032,57.3374469694496
345,1436289419669,59.5735425902963
346,1436289420366,64.8281398875615
347,1436289421089,69.7028536769702
348,1436289421805,65.9122501658292
349,1436289422543,62.2726590999528
350,1436289423161,57.2709750242405
351,1436289423819,55.3810610518958
352,1436289424547,56.8945512827654
353,1436289425245,56.1835806717091
354,1436289425964,57.8716484527156
355,1436289426657,56.4987893080269
356,1436289427401,57.7421165741272
357,1436289428195,54.2317909096213
358,1436289428930,59.7873992864298
359,1436289429655,50.6964013712318
360,1436289430424,75.2929068911379
361,1436289431144,53.9092091284289
362,1436289431871,52.2147126357531
363,1436289432612,54.5927508881179
364,1436289433263,53.0978534184254
365,1436289433983,50.4993227755784
366,1436289434775,51.15897298902
367,1436289435493,50.408395316431
368,1436289436224,54.4840041078196
369,1436289436944,54.8523782035198
370,1436289437697,50.4847234061809
371,1436289438430,51.156925138766
372,1436289439136,48.4153683919736
373,1436289439736,48.812867504917
374,1436289440469,49.2050493823248
375,1436289441193,53.2176968205547
376,1436289441932,46.3618757726027
377,1436289442678,47.6881483258515
378,1436289443325,60.1095251063266
379,1436289443996,51.7706425237079
380,1436289444743,72.3829806937182
381,1436289445482,61.2093938109319
382,1436289446183,53.3671095528948
383,1436289446915,71.6657533576227
384,1436289447620,70.4439003278128
385,1436289448381,45.6730201813468
386,1436289449169,66.2629180568518
387,1436289449890,44.8424672205188
388,1436289450624,45.0655085104614
389,1436289451344,62.4972768810949
390,1436289452083,57.6498032500574
391,1436289452782,53.5433370195093
392,1436289453391,45.3955927289287
393,1436289454093,65.2537010702293
394,1436289454836,49.9433553244339
395,1436289455524,69.2021069949274
396,1436289456203,48.0001850391681
397,1436289456917,46.7516237655376
398,1436289457720,46.7059802070929
399,1436289458498,49.3923677762072
400,1436289459306,49.0752773903498
401,1436289459968,55.932205252656
402,1436289460698,54.4082498987714
403,1436289461431,54.9302472551649
404,1436289462151,56.3804971432145
405,1436289462872,56.8642566240594
406,1436289463566,53.1228139517623
407,1436289464204,49.2427311342305
408,1436289464859,50.3516281449505
409,1436289465600,51.5108465617394
410,1436289466348,57.8680519856253
411,1436289467089,59.6360653281528
412,1436289467837,59.4521540309871
413,1436289468573,57.7241683381224
414,1436289469310,59.0380552072067
415,1436289470060,60.2125081648896
416,1436289470802,56.1338325423017
417,1436289471529,55.2310604298845
418,1436289472261,48.1984978566851
419,1436289473000,47.0638801573575
420,1436289473696,46.8810806115301
421,1436289474344,47.1106612170639
422,1436289475055,47.9563270558869
423,1436289475711,46.8820613233062
424,1436289476451,48.3250594773434
425,1436289477191,52.736046267323
426,1436289477938,53.9298850086066
427,1436289478591,47.1863636353416
428,1436289479304,47.1082200332987
429,1436289480031,45.5570433310297
430,1436289480780,45.1356951760453
431,1436289481514,45.6878165235131
432,1436289482239,46.1819564977829
433,1436289482985,47.1168358055082
434,1436289483703,45.9906545358193
435,1436289484412,46.7977210072988
436,1436289485121,44.6479695820072
437,1436289485831,48.4306739964801
438,1436289486540,48.8296148412114
439,1436289487227,48.3681314727283
440,1436289487978,49.4185503261318
441,1436289488696,46.854712315178
442,1436289489434,47.1382467397859
443,1436289490160,47.560554545959
444,1436289490906,48.5214805502551
445,1436289491643,50.269887136738
446,1436289492390,50.7564724338233
447,1436289493125,54.9797951139778
448,1436289493821,55.5414187026139
449,1436289494524,52.76869424486
450,1436289495246,50.0743851833014
451,1436289495974,49.7402865435672
452,1436289496750,52.7567130312362
453,1436289497665,50.6012359640358
454,1436289498385,54.7346780503598
455,1436289499108,52.0724127584695
456,1436289499866,48.2948044107022
457,1436289500592,47.4102566181298
458,1436289501339,48.9704542402388
459,1436289502081,47.4370166204287
460,1436289502752,49.9872713004834
461,1436289503513,55.3547511845476
462,1436289504209,50.8618672423653
463,1436289504806,49.8872749730984
464,1436289505502,48.4512801354533
465,1436289506205,54.7304768279191
466,1436289506927,55.1783172373368
467,1436289507726,53.6127326713141
468,1436289508432,49.4815500863966
469,1436289509151,53.1464169382254
470,1436289509924,54.8753098045531
471,1436289510644,49.2204516349686
472,1436289511375,48.0530144467449
473,1436289512099,45.8600455704084
474,1436289512815,46.196039032786
475,1436289513547,46.5746440903325
476,1436289514260,46.5368328492264
477,1436289514953,48.3294210877167
478,1436289515711,48.4712873671682
479,1436289516443,49.8862002849733
480,1436289517152,53.8774659444099
481,1436289517923,56.8719027300132
482,1436289518741,57.0204384290504
483,1436289519411,60.0372401522717
484,1436289520119,61.971028755429
485,1436289520843,59.860185338028
486,1436289521566,55.4528623646696
487,1436289522301,54.5931091853866
488,1436289523034,55.1263423539228
489,1436289523784,53.6004974473964
490,1436289524471,54.5466491625459
491,1436289525193,48.744144751769
492,1436289525917,48.8167878772998
493,1436289526649,48.3746720635207
494,1436289527374,49.007699083822
495,1436289528056,52.6435785812671
496,1436289528795,53.2274991947144
497,1436289529539,49.5632979708603
498,1436289530281,47.6501483344418
499,1436289531005,46.8976506706745
500,1436289531775,47.1712958227493
501,1436289532506,47.2130062120887
502,1436289533248,52.7878175755671
503,1436289533969,47.4177654702183
504,1436289534721,45.9827513584251
505,1436289535379,48.1493004994407
506,1436289536106,47.446374503862
507,1436289536835,51.7572291676435
508,1436289537542,47.9113311365141
509,1436289538191,48.1838308306254
510,1436289538942,48.3057524475692
511,1436289539644,53.8392500946318
512,1436289540240,52.473666549275
513,1436289540919,54.059844942796
514,1436289541574,54.8093741737632
515,1436289542220,51.0687713167913
516,1436289542980,50.8246241620141
517,1436289543703,54.3495262848372
518,1436289544386,53.4051281508692
519,1436289545030,52.245388995398
520,1436289545693,53.2214181776091
521,1436289546435,53.7559634947001
522,1436289547181,53.160208617272
523,1436289547993,53.5605019660857
524,1436289549208,51.4600862206871
525,1436289549876,48.6039024961695
526,1436289550586,48.9713200768193
527,1436289551329,52.0363455926304
528,1436289552060,52.5659028177458
529,1436289552808,49.9016777151514
530,1436289553504,51.0992834118047
531,1436289554188,53.8990163127085
532,1436289554915,53.0907339807404
533,1436289555646,53.5519138311159
534,1436289556303,54.6678253498473
535,1436289557047,54.9449897219916
536,1436289557776,54.9385319119544
537,1436289558511,53.4823085639672
538,1436289559239,48.9430474411522
539,1436289559910,47.1834024234539
540,1436289560495,47.5641259209392
541,1436289561178,48.2294855102403
542,1436289561895,47.9421153205463
543,1436289562638,47.2150409186047
544,1436289563451,45.5027558039409
545,1436289564198,45.6009364338623
546,1436289564931,43.4886316911274
547,1436289565690,43.6032505196777
548,1436289566348,43.0703937536735
549,1436289567713,41.4976331797168
550,1436289568488,40.8789474846657
551,1436289569181,42.7401762661468
552,1436289570008,44.7274004344045
553,1436289570749,44.4752704078318
554,1436289571515,45.3492564877686
555,1436289572230,46.3619263956154
556,1436289573022,46.4546082124643
557,1436289573749,47.4034962852353
558,1436289574479,47.8653480106374
559,1436289575197,48.9608316417315
560,1436289575922,58.6099801546757
561,1436289576566,54.9399155259043
562,1436289577300,65.5548481004305
563,1436289578040,51.297145438218
564,1436289578845,48.1356739778129
565,1436289579597,49.7345887644643
566,1436289580334,46.0725083287126
567,1436289581068,68.9700691751405
568,1436289581806,64.4056648203477
569,1436289582534,46.3866637141434
570,1436289583271,44.1072551714591
571,1436289584008,57.992222615727
572,1436289584718,54.385055633959
573,1436289585450,50.3057123691572
574,1436289586174,48.8127428309221
575,1436289586882,69.4032107895777
