id,attr_time,attr_db
1,1436289167788,54.256871735967
2,1436289168482,52.8799860133555
3,1436289169134,53.6247058669074
4,1436289169755,48.949471409799
5,1436289171046,51.3585891764797
6,1436289171773,52.4124945156498
7,1436289172475,55.6799615343472
8,1436289173213,47.2308122250836
9,1436289173950,47.8296660995862
10,1436289174619,52.1950960662016
11,1436289175351,66.3211163114973
12,1436289176049,59.7817947310626
13,1436289176678,62.7152744973812
14,1436289177340,68.39562484101
15,1436289178070,68.3260403379954
16,1436289178790,64.2295748490917
17,1436289179485,67.9172306994889
18,1436289180091,68.7456190056257
19,1436289180727,66.7790449251269
20,1436289181398,74.169095567359
21,1436289182082,75.1956242930488
22,1436289182748,70.4846158888679
23,1436289183464,70.3947031042309
24,1436289184208,71.3596558959004
25,1436289184929,71.8432064333873
26,1436289185588,70.2560239869217
27,1436289186358,69.1157926822327
28,1436289187090,68.5884422701448
29,1436289187817,69.4728554864362
30,1436289188496,69.7228874172733
31,1436289189227,69.5503663172562
32,1436289189953,69.321492278318
33,1436289190568,65.1559534521179
34,1436289191242,63.9047689595409
35,1436289191959,66.4194575120711
36,1436289192688,66.4540461549756
37,1436289193414,70.8676763187856
38,1436289194129,66.6878705062323
39,1436289194857,65.7416916910672
40,1436289195508,67.5869062023305
41,1436289196234,68.4428549664054
42,1436289196918,67.5215188070161
43,1436289197567,74.4259944098607
44,1436289198325,72.6691236156194
45,1436289199082,74.569546074797
46,1436289199845,70.8101601906849
47,1436289200506,74.5179146725466
48,1436289201194,70.5173203837925
49,1436289201926,68.9250929759913
50,1436289202674,68.7674375624237
51,1436289203415,69.7807827501192
52,1436289204173,70.6733099860262
53,1436289204899,65.7863532569806
54,1436289205645,65.7005143937077
55,1436289206321,66.024105692177
56,1436289207021,68.4317411459555
57,1436289207647,66.1876247526156
58,1436289208323,63.881420456714
59,1436289209067,62.2790040732693
60,1436289209797,63.1488935811562
61,1436289210507,64.3441919241069
62,1436289211173,71.5061224724715
63,1436289211892,70.1719827215047
64,1436289212592,71.2510767002746
65,1436289213246,76.4905791651652
66,1436289213969,74.7820461617786
67,1436289214718,72.3716190505354
68,1436289215402,68.6251791152514
69,1436289216145,69.4505091976009
70,1436289216876,71.5865069351797
71,1436289217589,66.6798007839287
72,1436289218277,67.1268009218457
73,1436289218932,64.8206144362961
74,1436289219590,64.5054806563617
75,1436289220336,63.0798124367463
76,1436289221052,68.9185350786266
77,1436289221758,62.6013698375051
78,1436289222454,69.4382775961217
79,1436289223203,71.0978315461759
80,1436289223917,70.7016159741638
81,1436289224667,68.4295252940911
82,1436289225557,70.4011135345247
83,1436289226717,66.2779528062213
84,1436289227396,61.0206563928885
85,1436289228044,64.6508729536963
86,1436289228819,67.1735045637283
87,1436289229454,63.7373311084462
88,1436289230194,70.870469066997
89,1436289230963,71.7662593283011
90,1436289231769,65.4711220502703
91,1436289232483,64.975052307578
92,1436289233134,71.1586120777054
93,1436289233843,69.9550962162397
94,1436289234552,66.2054147742858
95,1436289235219,71.0485559512366
96,1436289235938,67.9156324064674
97,1436289236728,69.9964478714645
98,1436289237423,68.5978729417391
99,1436289238105,62.1603533135548
100,1436289238871,63.1916415989258
101,1436289239623,64.2712181580362
102,1436289240444,62.1661397027418
103,1436289241164,69.2700696765935
104,1436289241931,67.9047801952181
105,1436289242684,67.0620418701455
106,1436289243417,64.5175676893835
107,1436289244145,71.0062475076439
108,1436289244885,68.9811390901794
109,1436289245592,68.8167275129208
110,1436289246324,66.7922744412341
111,1436289247066,65.5316372992033
112,1436289247790,60.0527518772975
113,1436289248541,62.1006390886789
114,1436289249243,69.0847163240707
115,1436289249979,71.7031837014405
116,1436289250743,72.1041299858973
117,1436289251494,72.3511176543507
118,1436289252207,72.7853521628412
119,1436289252942,73.4980147323082
120,1436289253517,76.0927906569649
121,1436289254126,68.7712392167749
122,1436289254764,63.088267072343
123,1436289255502,63.8273817833291
124,1436289256238,65.7274601545962
125,1436289256948,67.3506504738222
126,1436289257549,72.0088522381772
127,1436289258226,71.9816130258018
128,1436289259036,69.011705266682
129,1436289259627,72.2066024401642
130,1436289260261,69.7450558034938
131,1436289260967,69.6085017663053
132,1436289261807,70.4068324551266
133,1436289262527,70.9510236697327
134,1436289263247,68.696101280718
135,1436289264077,68.747162939712
136,1436289264886,64.8623228546726
137,1436289265548,67.564953852965
138,1436289266224,68.0774697258376
139,1436289266946,67.7366645691676
140,1436289267654,67.2544223786712
141,1436289268355,71.6188644222501
142,1436289269049,73.2475919662416
143,1436289269715,71.4273555491376
144,1436289270405,66.9689387088481
145,1436289271119,70.5197425169165
146,1436289271938,72.484069099908
147,1436289272654,69.4824451699504
148,1436289273372,61.5262549726008
149,1436289274247,76.1519903816428
150,1436289274885,64.6094865531876
151,1436289275592,66.2828257616683
152,1436289276327,62.6750847201311
153,1436289277095,67.5259681404411
154,1436289277846,69.0935747803244
155,1436289278536,71.8932638059115
156,1436289279178,73.9291694062092
157,1436289279829,71.2776115996345
158,1436289280527,57.7427517787946
159,1436289281222,66.2801087035347
160,1436289281822,72.9025664096728
161,1436289282558,70.5044401932103
162,1436289283287,66.857198591361
163,1436289284030,67.0153212202755
164,1436289284742,73.8065896030964
165,1436289285469,70.8233285089417
166,1436289286203,61.5323828155731
167,1436289286971,60.9895209527048
168,1436289287688,62.2978149354573
169,1436289288408,49.4356130982033
170,1436289289147,54.3609036467403
171,1436289289885,71.5529444297718
172,1436289290536,63.4099112397308
173,1436289291281,64.9150412307958
174,1436289292000,62.5743985444579
175,1436289292754,62.124400126416
176,1436289293510,58.4135701274156
177,1436289294226,59.8001749421043
178,1436289294904,71.3422103231282
179,1436289295578,69.4730953831587
180,1436289296192,65.7339566782368
181,1436289297131,63.7526260753773
182,1436289297742,66.2486544088492
183,1436289298510,67.6338719869436
184,1436289299141,69.9798728416013
185,1436289299723,74.1965676512289
186,1436289300810,61.9247546691068
187,1436289301388,69.6340514507247
188,1436289301983,64.4057566129718
189,1436289302681,63.5095538830606
190,1436289303370,64.8990394675801
191,1436289304008,65.500748324875
192,1436289304669,73.261443303968
193,1436289305381,68.9613109759662
194,1436289306175,66.1318459963494
195,1436289306873,75.1764927259449
196,1436289307623,68.8219563441901
197,1436289308361,64.6243058580656
198,1436289309097,59.5785418037302
199,1436289309804,57.4833608510316
200,1436289310446,64.7158606758439
201,1436289311167,66.7553142465347
202,1436289311937,67.8219578532666
203,1436289312729,66.9467309786586
204,1436289313440,66.6931646531556
205,1436289314174,55.9190146619761
206,1436289314875,73.3813817409774
207,1436289315480,60.3755037465353
208,1436289316155,56.6777574393374
209,1436289316877,52.547459560055
210,1436289317625,70.5124830256343
211,1436289318383,61.7259072123704
212,1436289319110,65.6121641526223
213,1436289319886,64.8165845763495
214,1436289320543,65.0074087276074
215,1436289321240,68.0268466810861
216,1436289321984,64.5512887850096
217,1436289322698,67.0263401040942
218,1436289323360,56.7793951532177
219,1436289324033,71.311686798234
220,1436289324773,65.4144648526029
221,1436289325486,61.819236192895
222,1436289326214,65.4784347578085
223,1436289327112,56.657218580715
224,1436289327714,62.5149091574357
225,1436289328275,56.2359900540481
226,1436289328908,61.5540605912173
227,1436289329627,58.7389683373809
228,1436289330336,73.483002527722
229,1436289330974,60.9838859992669
230,1436289331673,63.9272465788785
231,1436289332417,55.0988783622779
232,1436289333143,69.372439527759
233,1436289333905,66.6612275059004
234,1436289334636,62.4425940140494
235,1436289335371,64.2830523678691
236,1436289336103,53.1259009710968
237,1436289336874,67.4020184538168
238,1436289337518,59.3016142461519
239,1436289338266,63.7262154300135
240,1436289338992,68.6622729694874
241,1436289339687,48.9124247902983
242,1436289340388,72.7024435108101
243,1436289341088,63.3296465677699
244,1436289341736,70.3536556179424
245,1436289342489,56.3881633432558
246,1436289343156,72.6790889689126
247,1436289343891,58.0890949123774
248,1436289344629,69.6845675949152
249,1436289345370,60.6290061949965
250,1436289346105,58.148382337718
251,1436289346871,67.2059036728384
252,1436289347586,62.2793367121569
253,1436289348313,61.4151705189644
254,1436289349044,53.3712746602649
255,1436289349785,46.2314888215972
256,1436289350517,52.4630247083417
257,1436289351210,49.0292294673955
258,1436289351845,50.1550320803793
259,1436289352680,59.9655357869948
260,1436289353398,51.9950871981873
261,1436289354135,49.5359932683867
262,1436289354893,51.0592773393567
263,1436289355593,49.7849253771065
264,1436289357371,48.0096953904635
265,1436289358080,53.5284999225447
266,1436289358823,58.7214919408092
267,1436289359542,48.9120515734118
268,1436289360269,60.610416415976
269,1436289360959,50.7423889609439
270,1436289361679,48.2242317112346
271,1436289362418,47.494055366385
272,1436289363134,56.5218457373634
273,1436289363846,56.6509352915397
274,1436289364512,47.4788499547052
275,1436289365206,51.0541285991514
276,1436289365911,57.0053198957037
277,1436289367975,56.3937617927891
278,1436289368710,48.5403891661125
279,1436289369452,53.4570423023485
280,1436289370173,54.1647237494054
281,1436289370828,54.1840118496429
282,1436289371505,54.2457240201152
283,1436289372223,58.8429586802719
284,1436289372957,50.9721467808517
285,1436289373720,47.2479013264087
286,1436289374429,50.9808728776739
287,1436289375152,45.6226000039478
288,1436289375884,47.9514271290965
289,1436289376616,46.3368130505513
290,1436289377327,47.9125003046485
291,1436289377936,44.8642631798788
292,1436289378615,47.550751004853
293,1436289379363,48.9414014998145
294,1436289380093,48.538840426831
295,1436289380902,53.4218079592778
296,1436289382873,60.0157677048287
297,1436289383646,57.7065832032923
298,1436289384354,46.8202874241264
299,1436289385070,47.0378744159719
300,1436289385802,60.0083411816984
301,1436289386511,44.3550651927453
302,1436289387259,44.8228331760824
303,1436289388030,54.3130391756926
304,1436289388710,45.1149408601291
305,1436289389431,45.7784005026722
306,1436289391407,47.6058348186953
307,1436289392096,48.0682787391839
308,1436289392728,47.9615670653776
309,1436289393476,46.3501746123352
310,1436289394206,49.2281604408548
311,1436289394919,59.7544172607568
312,1436289395668,58.426774988512
313,1436289396383,57.1472630743537
314,1436289396999,47.8321562569457
315,1436289397760,44.5795775922917
316,1436289398413,46.2289938431202
317,1436289399133,47.4422923601926
318,1436289399863,45.9623511447126
319,1436289400579,45.0320995119386
320,1436289401367,45.0876921623662
321,1436289402105,44.7716945934372
322,1436289402762,45.5926491410072
323,1436289403477,46.0620124379649
324,1436289404204,52.8420876443519
325,1436289404964,57.0630865841953
326,1436289405702,63.0930943571678
327,1436289406393,60.6082362150051
328,1436289407069,50.8666629840488
329,1436289407799,48.4940673965978
330,1436289408547,44.3625431177017
331,1436289409283,43.0403122598447
332,1436289409984,42.2884066316436
333,1436289410704,41.8526333690596
334,1436289411447,40.8865175570858
335,1436289412145,41.7875046461756
336,1436289412864,43.708834206488
337,1436289413606,44.7622056642288
338,1436289414317,45.2024167979466
339,1436289415052,45.3020239764988
340,1436289415805,46.7359493134304
341,1436289416445,46.8236512586992
342,1436289417199,49.4456962283171
343,1436289417956,52.0720316242829
344,1436289418671,54.529552371708
345,1436289419398,57.367530031653
346,1436289420138,62.8564293067022
347,1436289420863,67.7750419048364
348,1436289421560,69.0893290851985
349,1436289422211,62.1114717389939
350,1436289422944,59.1830666183613
351,1436289423695,57.7335416534523
352,1436289424381,55.8128072176501
353,1436289425093,55.5039323895994
354,1436289425833,54.4387430286493
355,1436289426524,53.7104110767032
356,1436289427272,54.9713498339259
357,1436289428140,55.1276517925203
358,1436289428729,59.830413526945
359,1436289429366,55.221793026635
360,1436289430095,62.7160410426752
361,1436289430826,56.1548966269701
362,1436289431607,56.8952106763261
363,1436289432355,59.3663551054903
364,1436289433058,51.8936524592185
365,1436289433697,57.9344067098425
366,1436289434405,56.0653264859751
367,1436289435097,56.4907771457859
368,1436289435818,54.8575060616055
369,1436289436519,55.0801114626899
370,1436289437176,55.6478518956072
371,1436289437860,58.5211034949651
372,1436289438482,53.3853941136216
373,1436289439173,49.3867778866122
374,1436289439914,50.181199882351
375,1436289440638,52.1525590249
376,1436289441358,49.2582120741283
377,1436289442134,51.4543472786139
378,1436289442872,48.1336355532045
379,1436289443515,49.529527548551
380,1436289444231,49.4467692927849
381,1436289444955,60.5078810482128
382,1436289445660,50.0632570151255
383,1436289446372,47.3754979241328
384,1436289447083,56.25613480981
385,1436289447794,48.1606727226261
386,1436289448508,46.5378785459554
387,1436289449184,47.7412147957017
388,1436289449927,43.8488266887184
389,1436289450662,44.0353101424973
390,1436289451339,57.8250122877173
391,1436289451997,57.4628127667726
392,1436289452698,57.6933651415897
393,1436289453379,45.2519411153561
394,1436289454097,48.0672250017827
395,1436289454831,47.0897126498752
396,1436289455586,49.1410875437556
397,1436289456315,46.9172662778489
398,1436289457042,45.8272501307519
399,1436289457818,47.4305729985516
400,1436289458468,46.3715228399307
401,1436289459164,46.4959949415263
402,1436289459895,52.9036778467812
403,1436289460623,50.601232577606
404,1436289461345,48.4664662393614
405,1436289462024,46.4175432990353
406,1436289462688,51.3318190006054
407,1436289463364,52.819115896467
408,1436289464089,50.903919421782
409,1436289464835,49.920905491502
410,1436289465572,52.3542279269901
411,1436289466306,59.1183186234624
412,1436289467059,59.8090133438355
413,1436289467861,61.1862711861374
414,1436289468571,61.887998056674
415,1436289469309,60.6059930353598
416,1436289470031,58.2603839845702
417,1436289470766,53.4638889473282
418,1436289471512,51.1344263033998
419,1436289472240,50.9922791669181
420,1436289472935,46.3686154215307
421,1436289473606,46.0037605886424
422,1436289474321,46.2020859660313
423,1436289475069,48.0589883542612
424,1436289475793,46.7840470282726
425,1436289476487,44.9084587181204
426,1436289477158,47.0054185906984
427,1436289477886,46.6888272935861
428,1436289478611,46.0298786406671
429,1436289479333,46.306247338789
430,1436289480071,45.7641605845037
431,1436289480807,43.7959834966012
432,1436289481533,43.1606732365446
433,1436289482256,44.8088217128965
434,1436289482994,42.7376842166348
435,1436289483690,45.6502048127021
436,1436289484337,46.0991330090633
437,1436289485053,45.1915905478162
438,1436289485774,44.4835294813264
439,1436289486472,45.786559564732
440,1436289487192,46.0366712381415
441,1436289487880,43.8156660097266
442,1436289488524,45.7104174607786
443,1436289489254,45.0818686347119
444,1436289489972,46.0093672782547
445,1436289490714,46.3728563705285
446,1436289491452,46.560512799313
447,1436289492212,47.7146677371952
448,1436289492954,47.3615445510219
449,1436289493643,48.3244956776824
450,1436289494278,49.2855744515532
451,1436289494994,47.3072723283227
452,1436289495740,48.0892323423298
453,1436289496476,46.9628645838823
454,1436289497189,49.3926651107779
455,1436289497898,51.1375371427669
456,1436289498518,54.753178571222
457,1436289499259,48.1874351171088
458,1436289499977,47.1604387008608
459,1436289500682,47.0092065545302
460,1436289501413,46.3113071358022
461,1436289502130,44.1139020154858
462,1436289502871,46.4479901990141
463,1436289503573,43.6945842925366
464,1436289504247,46.3496502696272
465,1436289504995,44.9723129047614
466,1436289505750,45.3325971692525
467,1436289506400,45.6663137250777
468,1436289506985,47.7060204033122
469,1436289507660,46.7297626895043
470,1436289508369,47.7226141973832
471,1436289509107,46.667936087525
472,1436289509837,47.0245500062989
473,1436289510543,46.7177611580856
474,1436289511270,44.3009153160902
475,1436289512026,45.0051431373961
476,1436289512762,44.4855639982472
477,1436289513494,45.3876826879786
478,1436289514193,45.6729104995939
479,1436289514889,47.395291686777
480,1436289515628,47.2336397634081
481,1436289516345,49.4955335890853
482,1436289517076,47.1849148545468
483,1436289517882,49.6718406394972
484,1436289518700,54.2032325169096
485,1436289519350,58.4383943861567
486,1436289520075,62.0911549532806
487,1436289520814,58.1131303266518
488,1436289521544,49.5666709879392
489,1436289522274,49.4739301787685
490,1436289523055,47.754520740349
491,1436289523796,47.9501584269345
492,1436289524496,47.5801940488402
493,1436289525154,46.5610049951732
494,1436289525885,47.4183960649411
495,1436289526623,44.1607160353475
496,1436289527369,47.1219626520649
497,1436289528092,46.6008503209416
498,1436289528833,46.3002897259973
499,1436289529549,45.8545365683989
500,1436289530270,45.1417756171548
501,1436289530999,44.8088514374992
502,1436289531732,45.3491915678366
503,1436289532484,53.3968037941977
504,1436289533205,55.3371687403411
505,1436289533946,50.7043019512249
506,1436289534656,52.0065672350361
507,1436289535353,48.1662110645027
508,1436289536059,45.392608503444
509,1436289536764,50.8919503180144
510,1436289537450,48.8430114514407
511,1436289538165,47.5461800314764
512,1436289538876,47.2139609404736
513,1436289539511,48.2375106000044
514,1436289540208,50.2978337256024
515,1436289540933,54.2842214292834
516,1436289541689,48.3402626695375
517,1436289542420,51.4393879820825
518,1436289543177,49.3339730858691
519,1436289543907,48.1341616311728
520,1436289544624,49.8554230791395
521,1436289545314,50.2295014159988
522,1436289546049,50.3623169650504
523,1436289546799,49.1181277477478
524,1436289547509,50.4017721462087
525,1436289548222,49.1381812434884
526,1436289548875,49.0332391805414
527,1436289549610,47.9690861149972
528,1436289550316,48.333585912619
529,1436289551033,49.1266855852145
530,1436289551772,49.0545775296023
531,1436289552510,50.0759290509491
532,1436289553242,48.3521813129187
533,1436289553987,47.4001442264678
534,1436289554695,48.7124146271274
535,1436289555366,48.0876810359521
536,1436289556080,47.6062637164902
537,1436289556798,48.739277423602
538,1436289557553,48.6505168971177
539,1436289558278,47.5582513301514
540,1436289558906,47.0583305885138
541,1436289559549,45.8097412595538
542,1436289561504,44.8310734289302
543,1436289562179,44.4597589824935
544,1436289562895,45.2247009154776
545,1436289563615,43.5168111545659
546,1436289564323,42.6022234703713
547,1436289565004,41.0384239827364
548,1436289565659,42.9485969198711
549,1436289566368,43.2393351552519
550,1436289567117,42.566176424933
551,1436289567850,42.3761852207333
552,1436289568533,40.291814124696
553,1436289569205,42.5142810882156
554,1436289569935,44.8616688858783
555,1436289570667,43.9297724772719
556,1436289571397,43.8080290625042
557,1436289572128,43.4310313352766
558,1436289572868,45.8301490808148
559,1436289573565,44.5612684253065
560,1436289574271,47.0412537844474
561,1436289575925,50.2994130685752
562,1436289576643,44.8936699804899
563,1436289577410,47.307558630803
564,1436289578123,45.1412587899583
565,1436289578828,42.6154405041788
566,1436289579558,44.5437628054352
567,1436289580284,44.1436542297235
568,1436289580982,52.5534082195294
569,1436289581714,45.7052274069549
570,1436289582456,44.5719808758834
571,1436289583180,44.0982871767
572,1436289583915,53.8504105359594
573,1436289584642,53.3749114415921
574,1436289585370,45.4478574217685
575,1436289586083,47.1749390672308
