id,attr_time,attr_x,attr_y,attr_z
1,1437227272053,-7.502,-42.298,-19.769
2,1437227272072,-7.502,-42.298,-19.769
3,1437227272092,-7.502,-42.298,-19.769
4,1437227272114,-7.502,-42.298,-19.769
5,1437227272134,-7.502,-42.298,-19.769
6,1437227272153,-7.502,-42.298,-19.769
7,1437227272174,-7.502,-42.298,-19.769
8,1437227272194,-7.804,-42.298,-19.769
9,1437227272212,-7.804,-42.298,-19.448
10,1437227272234,-7.804,-42.298,-19.448
11,1437227272255,-7.804,-42.298,-19.448
12,1437227272274,-7.804,-42.298,-19.448
13,1437227272292,-7.804,-42.298,-19.448
14,1437227272312,-7.804,-42.298,-19.448
15,1437227272331,-7.804,-42.298,-19.448
16,1437227272353,-7.804,-42.298,-19.448
17,1437227272371,-8.125,-42.298,-19.448
18,1437227272392,-8.125,-42.298,-19.448
19,1437227272412,-8.125,-42.298,-19.081
20,1437227272522,-8.125,-42.298,-19.081
21,1437227272523,-8.125,-42.298,-19.081
22,1437227272524,-8.125,-42.298,-19.081
23,1437227272525,-8.125,-42.298,-19.081
24,1437227272526,-8.125,-42.298,-19.081
25,1437227272538,-8.125,-42.298,-19.081
26,1437227272557,-8.125,-42.298,-19.081
27,1437227272572,-8.125,-42.298,-19.081
28,1437227272592,-8.125,-42.298,-19.081
29,1437227272612,-8.125,-42.298,-19.081
30,1437227272632,-8.125,-42.298,-19.081
31,1437227272654,-8.439,-42.298,-19.081
32,1437227272672,-8.439,-42.298,-19.081
33,1437227272695,-8.439,-42.298,-19.081
34,1437227272716,-8.439,-42.298,-19.081
35,1437227272733,-8.439,-42.298,-19.081
36,1437227272752,-8.439,-42.298,-19.081
37,1437227272772,-8.439,-42.298,-19.081
38,1437227272793,-8.439,-42.298,-19.081
39,1437227272815,-8.439,-42.298,-19.081
40,1437227272835,-8.439,-42.298,-19.081
41,1437227272855,-8.439,-42.298,-19.081
42,1437227272872,-8.439,-42.298,-19.081
43,1437227272893,-8.439,-42.298,-19.081
44,1437227272915,-8.439,-42.298,-19.081
45,1437227272935,-8.439,-42.298,-19.081
46,1437227272958,-8.439,-42.298,-19.081
47,1437227272973,-8.439,-42.298,-19.081
48,1437227272998,-8.439,-42.298,-19.081
49,1437227273013,-8.439,-42.298,-19.081
50,1437227273034,-8.439,-42.298,-19.081
51,1437227273053,-8.439,-42.298,-19.081
52,1437227273072,-8.439,-42.298,-19.081
53,1437227273092,-8.439,-42.298,-19.081
54,1437227273113,-8.439,-42.298,-19.081
55,1437227273139,-8.137,-42.298,-19.081
56,1437227273153,-8.137,-42.298,-19.081
57,1437227273173,-8.137,-42.298,-19.45
58,1437227273194,-8.137,-42.298,-19.45
59,1437227273217,-8.137,-42.298,-19.45
60,1437227273269,-8.137,-42.298,-19.45
61,1437227273270,-8.137,-42.298,-19.755
62,1437227273273,-8.137,-42.298,-19.755
63,1437227273292,-8.137,-42.298,-19.755
64,1437227273312,-8.137,-42.298,-19.755
65,1437227273333,-8.137,-42.298,-19.755
66,1437227273354,-8.137,-42.298,-19.755
67,1437227273374,-8.137,-42.298,-19.755
68,1437227273392,-8.137,-42.298,-19.755
69,1437227273414,-8.137,-42.298,-19.755
70,1437227273439,-8.137,-42.298,-19.755
71,1437227273453,-8.137,-42.298,-19.755
72,1437227273473,-8.137,-42.298,-19.755
73,1437227273496,-8.137,-42.298,-19.755
74,1437227273514,-8.137,-42.298,-19.755
75,1437227273535,-8.137,-42.298,-19.755
76,1437227273556,-8.137,-42.298,-19.755
77,1437227273574,-8.137,-42.298,-19.755
78,1437227273596,-8.137,-42.298,-19.755
79,1437227273616,-8.137,-42.298,-19.435
80,1437227273635,-8.137,-42.298,-19.435
81,1437227273656,-8.137,-42.298,-19.435
82,1437227273677,-8.137,-42.298,-19.435
83,1437227273695,-8.137,-42.298,-19.435
84,1437227273719,-8.137,-42.298,-19.435
85,1437227273735,-8.137,-42.298,-19.435
86,1437227273758,-8.137,-42.298,-19.435
87,1437227273774,-8.137,-42.298,-19.435
88,1437227273793,-8.137,-42.298,-19.435
89,1437227273813,-8.137,-42.298,-19.435
90,1437227273833,-8.486,-42.298,-19.087
91,1437227273867,-8.486,-42.298,-19.087
92,1437227273873,-8.486,-42.298,-19.087
93,1437227273893,-8.486,-42.298,-19.087
94,1437227273913,-8.486,-42.298,-19.087
95,1437227273934,-8.486,-42.298,-19.087
96,1437227273960,-8.486,-42.298,-19.087
97,1437227273987,-8.486,-42.298,-19.087
98,1437227273993,-8.486,-42.298,-19.087
99,1437227274013,-8.486,-42.298,-19.087
100,1437227274034,-8.486,-42.298,-19.087
101,1437227274058,-8.486,-42.298,-19.087
102,1437227274073,-8.486,-42.298,-19.087
103,1437227274094,-8.486,-42.298,-19.087
104,1437227274125,-8.486,-42.298,-19.087
105,1437227274144,-8.79,-42.298,-19.087
106,1437227274153,-8.79,-42.298,-19.087
107,1437227274174,-8.79,-42.298,-19.087
108,1437227274194,-8.79,-42.298,-19.087
109,1437227274214,-8.79,-42.298,-19.087
110,1437227274234,-8.79,-42.298,-19.087
111,1437227274254,-8.79,-42.298,-19.087
112,1437227274273,-8.79,-42.298,-19.087
113,1437227274294,-8.79,-42.298,-19.087
114,1437227274314,-8.79,-42.298,-19.087
115,1437227274334,-8.79,-42.298,-19.087
116,1437227274355,-8.79,-42.298,-19.087
117,1437227274374,-8.79,-42.298,-19.087
118,1437227274397,-8.79,-42.298,-19.087
119,1437227274414,-8.79,-42.298,-19.087
120,1437227274434,-8.79,-42.298,-19.087
121,1437227274454,-8.79,-42.298,-19.087
122,1437227274474,-8.79,-42.298,-19.087
123,1437227274494,-8.79,-42.298,-19.087
124,1437227274514,-8.79,-42.298,-19.087
125,1437227274534,-8.79,-42.298,-19.087
126,1437227274555,-8.79,-42.298,-19.087
127,1437227274573,-8.79,-42.298,-19.087
128,1437227274599,-8.79,-42.298,-19.087
129,1437227274617,-8.79,-42.298,-19.087
130,1437227274634,-8.79,-42.298,-19.087
131,1437227274654,-8.79,-42.298,-19.087
132,1437227274675,-8.79,-42.298,-19.087
133,1437227274693,-8.79,-42.298,-19.087
134,1437227274714,-8.79,-41.998,-19.087
135,1437227274734,-8.474,-41.998,-19.087
136,1437227274757,-8.474,-41.998,-19.087
137,1437227274775,-8.474,-41.998,-19.087
138,1437227274794,-8.474,-41.998,-19.087
139,1437227274818,-8.474,-41.998,-19.087
140,1437227274838,-8.474,-41.998,-19.087
141,1437227274858,-8.474,-41.998,-19.087
142,1437227274879,-8.474,-41.998,-19.087
143,1437227274898,-8.474,-41.998,-19.087
144,1437227274918,-8.474,-41.998,-19.087
145,1437227274938,-8.474,-41.998,-19.087
146,1437227274958,-8.474,-41.998,-19.398
147,1437227274976,-8.474,-41.998,-19.398
148,1437227274998,-8.474,-41.998,-19.398
149,1437227275015,-8.474,-41.998,-19.398
150,1437227275036,-8.474,-41.998,-19.398
151,1437227275058,-8.474,-41.998,-19.398
152,1437227275076,-8.474,-41.998,-19.398
153,1437227275096,-8.474,-41.998,-19.398
154,1437227275115,-8.474,-41.998,-19.398
155,1437227275140,-8.474,-41.998,-19.398
156,1437227275160,-8.474,-41.998,-19.398
157,1437227275180,-8.474,-41.998,-19.398
158,1437227275196,-8.474,-41.998,-19.398
159,1437227275215,-8.474,-41.998,-19.398
160,1437227275234,-8.474,-41.998,-19.398
161,1437227275254,-8.474,-41.998,-19.398
162,1437227275278,-8.474,-41.998,-19.398
163,1437227275297,-8.474,-41.998,-19.398
164,1437227275368,-8.474,-41.998,-19.398
165,1437227275369,-8.474,-41.998,-19.398
166,1437227275370,-8.474,-41.998,-19.398
167,1437227275378,-8.474,-41.998,-19.398
168,1437227275397,-8.474,-41.998,-19.398
169,1437227275415,-8.474,-41.998,-19.398
170,1437227275434,-8.474,-41.998,-19.398
171,1437227275458,-8.474,-41.998,-19.091
172,1437227275474,-8.474,-41.998,-19.091
173,1437227275495,-8.474,-41.998,-19.091
174,1437227275521,-8.474,-41.998,-19.091
175,1437227275535,-8.474,-41.998,-19.091
176,1437227275561,-8.474,-41.998,-19.091
177,1437227275577,-8.474,-41.998,-19.091
178,1437227275598,-8.474,-41.998,-19.091
179,1437227275618,-8.474,-41.998,-19.091
180,1437227275638,-8.157,-41.998,-19.091
181,1437227275658,-8.157,-41.998,-19.091
182,1437227275677,-8.157,-41.998,-19.091
183,1437227275698,-8.157,-41.998,-19.091
184,1437227275718,-8.157,-41.998,-19.091
185,1437227275739,-8.157,-41.998,-19.393
186,1437227275755,-8.157,-41.998,-19.393
187,1437227275778,-8.157,-41.998,-19.393
188,1437227275798,-8.157,-41.998,-19.393
189,1437227275818,-8.157,-41.998,-19.393
190,1437227275838,-8.157,-41.998,-19.393
191,1437227275858,-8.157,-41.998,-19.393
192,1437227275878,-8.157,-41.998,-19.393
193,1437227275898,-8.157,-41.998,-19.393
194,1437227275918,-8.157,-41.998,-19.393
195,1437227275939,-8.157,-41.998,-19.393
196,1437227275959,-8.157,-41.998,-19.393
197,1437227275979,-8.157,-41.998,-19.393
198,1437227275998,-8.157,-41.998,-19.393
199,1437227276017,-8.157,-41.998,-19.393
200,1437227276103,-8.157,-41.998,-19.393
201,1437227276104,-8.157,-41.998,-19.393
202,1437227276105,-8.157,-41.998,-19.393
203,1437227276106,-8.157,-41.998,-19.393
204,1437227276118,-8.157,-41.998,-19.393
205,1437227276145,-8.157,-41.998,-19.393
206,1437227276158,-8.157,-41.998,-19.393
207,1437227276178,-8.157,-41.998,-19.393
208,1437227276199,-8.157,-41.998,-19.393
209,1437227276216,-8.157,-41.998,-19.393
210,1437227276238,-8.157,-41.998,-19.393
211,1437227276256,-8.157,-41.998,-19.393
212,1437227276278,-8.157,-41.998,-19.393
213,1437227276295,-8.157,-41.998,-19.393
214,1437227276319,-8.157,-41.998,-19.393
215,1437227276339,-8.157,-41.998,-19.393
216,1437227276359,-8.157,-41.998,-19.393
217,1437227276379,-8.157,-41.998,-19.735
218,1437227276399,-8.157,-41.998,-19.735
219,1437227276419,-8.157,-41.644,-20.117
220,1437227276439,-8.157,-41.644,-21.887
221,1437227276459,-8.157,-41.644,-23.91
222,1437227276479,-8.157,-41.275,-25.402
223,1437227276498,-8.157,-41.275,-26.658
224,1437227276518,-7.717,-40.309,-28.504
225,1437227276536,-7.717,-39.247,-29.467
226,1437227276556,-6.121,-38.047,-29.881
227,1437227276576,-5.136,-37.501,-31.091
228,1437227276596,-4.2,-36.862,-32.112
229,1437227276619,-3.657,-36.146,-32.112
230,1437227276638,-3.657,-36.146,-32.551
231,1437227276658,-3.106,-35.308,-32.551
232,1437227276677,-3.106,-35.308,-32.551
233,1437227276698,-3.543,-35.308,-32.551
234,1437227276719,-3.543,-35.308,-32.551
235,1437227276738,-3.543,-35.729,-32.232
236,1437227276759,-4.086,-35.729,-32.666
237,1437227276828,-4.086,-35.729,-32.096
238,1437227276829,-4.45,-35.729,-32.096
239,1437227276830,-4.45,-35.729,-31.651
240,1437227276839,-3.913,-35.729,-32.202
241,1437227276865,-3.913,-35.729,-32.202
242,1437227276879,-3.913,-35.729,-32.202
243,1437227276896,-3.573,-35.35,-32.202
244,1437227276919,-3.573,-35.35,-32.202
245,1437227276936,-3.573,-35.35,-32.569
246,1437227276959,-3.573,-34.971,-32.569
247,1437227276976,-3.573,-34.971,-32.569
248,1437227276999,-4.319,-34.971,-32.569
249,1437227277019,-5.242,-34.971,-32.569
250,1437227277039,-6.196,-34.971,-32.569
251,1437227277059,-7.342,-34.971,-32.569
252,1437227277079,-7.885,-34.971,-32.569
253,1437227277099,-8.438,-34.971,-32.569
254,1437227277119,-8.438,-34.971,-32.569
255,1437227277139,-8.018,-34.971,-32.569
256,1437227277159,-7.458,-34.971,-32.569
257,1437227277179,-6.883,-34.971,-32.196
258,1437227277200,-6.338,-34.971,-32.196
259,1437227277216,-5.929,-34.971,-32.196
260,1437227277240,-5.929,-34.971,-32.196
261,1437227277260,-5.929,-34.971,-32.196
262,1437227277280,-6.23,-34.971,-32.196
263,1437227277299,-6.944,-34.971,-32.196
264,1437227277320,-6.944,-34.971,-32.196
265,1437227277340,-7.78,-34.971,-31.858
266,1437227277359,-7.78,-34.971,-31.858
267,1437227277379,-8.546,-34.971,-31.858
268,1437227277400,-8.546,-34.971,-31.858
269,1437227277421,-8.901,-34.971,-31.858
270,1437227277442,-8.415,-34.971,-31.858
271,1437227277458,-7.87,-34.971,-31.858
272,1437227277549,-6.776,-34.971,-31.858
273,1437227277550,-5.653,-34.971,-32.232
274,1437227277551,-4.04,-34.184,-32.96
275,1437227277552,-2.719,-34.184,-33.54
276,1437227277561,-1.858,-33.837,-34.469
277,1437227277578,-1.242,-33.837,-34.469
278,1437227277597,-0.259,-33.837,-35.212
279,1437227277617,-0.259,-33.837,-35.212
280,1437227277650,-0.813,-33.422,-35.531
281,1437227277657,-1.402,-33.422,-36.016
282,1437227277677,-1.402,-33.081,-36.016
283,1437227277697,-1.782,-33.081,-36.596
284,1437227277717,-1.782,-32.739,-36.596
285,1437227277737,-1.782,-32.739,-36.596
286,1437227277757,-1.782,-32.739,-36.596
287,1437227277780,-1.338,-32.319,-36.981
288,1437227277800,-1.338,-32.319,-36.981
289,1437227277820,-1.01,-32.319,-36.981
290,1437227277840,-0.607,-31.935,-36.61
291,1437227277860,-0.607,-31.935,-36.61
292,1437227277880,-0.607,-31.935,-37.005
293,1437227277900,0.398,-31.578,-37.005
294,1437227277921,1.391,-31.578,-37.31
295,1437227277937,1.991,-31.578,-37.31
296,1437227277960,1.991,-31.578,-37.31
297,1437227277978,1.658,-31.578,-37.31
298,1437227277998,0.827,-31.578,-37.31
299,1437227278018,-0.224,-31.578,-37.31
300,1437227278039,-1.683,-31.578,-37.31
301,1437227278060,-2.978,-31.578,-37.31
302,1437227278080,-4.574,-31.578,-37.31
303,1437227278100,-5.471,-31.578,-36.72
304,1437227278119,-6.7,-31.97,-36.141
305,1437227278139,-7.727,-32.601,-34.735
306,1437227278159,-7.727,-32.957,-34.257
307,1437227278179,-7.727,-33.685,-33.926
308,1437227278198,-7.727,-34.182,-33.323
309,1437227278251,-7.727,-34.182,-33.323
310,1437227278252,-7.427,-34.764,-31.904
311,1437227278267,-6.906,-35.139,-31.904
312,1437227278279,-6.48,-35.517,-31.904
313,1437227278300,-6.48,-35.517,-31.436
314,1437227278318,-6.48,-35.517,-31.436
315,1437227278338,-6.48,-35.517,-31.436
316,1437227278358,-6.866,-35.517,-31.436
317,1437227278379,-6.866,-35.517,-31.436
318,1437227278399,-7.994,-35.517,-31.436
319,1437227278419,-8.564,-35.517,-30.23
320,1437227278440,-9.057,-35.517,-29.393
321,1437227278459,-9.909,-35.517,-28.73
322,1437227278482,-10.371,-35.939,-28.73
323,1437227278500,-10.371,-35.939,-29.121
324,1437227278520,-9.722,-35.939,-30.378
325,1437227278540,-9.202,-35.939,-30.378
326,1437227278560,-8.673,-36.286,-30.378
327,1437227278580,-8.673,-36.286,-30.378
328,1437227278600,-8.374,-36.286,-30.378
329,1437227278620,-8.374,-36.286,-30.917
330,1437227278641,-8.374,-36.286,-30.917
331,1437227278659,-8.374,-36.286,-31.219
332,1437227278680,-7.575,-36.286,-31.541
333,1437227278700,-7.106,-36.286,-32.205
334,1437227278720,-6.401,-35.971,-32.537
335,1437227278739,-6.05,-35.971,-32.537
336,1437227278761,-5.479,-35.971,-32.537
337,1437227278781,-5.479,-35.971,-32.537
338,1437227278802,-5.479,-35.971,-32.537
339,1437227278819,-5.479,-35.636,-32.537
340,1437227278841,-5.479,-35.636,-32.537
341,1437227278859,-5.479,-35.636,-32.537
342,1437227278880,-6.155,-35.636,-32.537
343,1437227278899,-6.155,-35.285,-32.537
344,1437227278918,-6.155,-35.285,-32.537
345,1437227278970,-6.155,-35.285,-32.948
346,1437227278971,-5.65,-35.285,-32.948
347,1437227278989,-5.65,-34.913,-33.294
348,1437227278998,-5.337,-34.913,-33.294
349,1437227279029,-4.995,-34.913,-33.294
350,1437227279038,-4.64,-34.913,-33.294
351,1437227279078,-4.228,-34.913,-33.638
352,1437227279079,-3.666,-34.913,-33.638
353,1437227279101,-3.666,-34.913,-33.638
354,1437227279122,-3.666,-34.913,-33.638
355,1437227279138,-3.666,-34.913,-33.638
356,1437227279161,-4.556,-34.913,-33.638
357,1437227279182,-5.432,-34.913,-32.572
358,1437227279200,-6.352,-35.258,-31.89
359,1437227279220,-7.369,-35.258,-30.891
360,1437227279241,-7.369,-35.258,-30.891
361,1437227279260,-7.734,-35.736,-31.201
362,1437227279282,-7.734,-35.736,-30.166
363,1437227279302,-7.734,-36.271,-30.166
364,1437227279322,-7.333,-36.271,-29.502
365,1437227279342,-7.333,-36.271,-30.198
366,1437227279359,-6.77,-36.271,-30.198
367,1437227279380,-6.77,-36.582,-30.198
368,1437227279402,-6.414,-36.582,-30.523
369,1437227279420,-6.414,-36.582,-30.523
370,1437227279439,-6.414,-36.984,-30.072
371,1437227279459,-6.838,-36.984,-30.072
372,1437227279484,-7.176,-36.984,-30.072
373,1437227279505,-7.176,-37.297,-30.072
374,1437227279519,-7.176,-37.297,-29.684
375,1437227279543,-7.518,-37.297,-29.684
376,1437227279560,-7.518,-37.297,-29.684
377,1437227279580,-7.518,-37.297,-29.684
378,1437227279600,-7.518,-37.297,-29.684
379,1437227279620,-7.518,-37.297,-29.684
380,1437227279644,-7.518,-37.297,-29.684
381,1437227279701,-7.518,-37.297,-29.684
382,1437227279702,-7.518,-37.297,-29.684
383,1437227279703,-7.518,-37.297,-29.684
384,1437227279723,-7.518,-37.297,-29.684
385,1437227279741,-7.518,-37.297,-29.684
386,1437227279759,-7.518,-36.95,-29.684
387,1437227279779,-7.852,-36.95,-30.021
388,1437227279802,-7.852,-36.95,-30.021
389,1437227279819,-7.852,-36.569,-30.545
390,1437227279840,-7.852,-36.569,-31.44
391,1437227279860,-7.852,-36.241,-32.27
392,1437227279880,-7.852,-36.241,-32.669
393,1437227279902,-7.852,-35.935,-32.122
394,1437227279920,-7.852,-35.935,-32.122
395,1437227279942,-7.852,-35.935,-32.94
396,1437227279962,-7.852,-35.498,-32.519
397,1437227279982,-7.852,-35.498,-32.519
398,1437227280002,-7.852,-35.134,-32.519
399,1437227280022,-7.536,-35.134,-32.519
400,1437227280039,-7.536,-34.815,-32.519
401,1437227280061,-7.536,-34.815,-32.519
402,1437227280082,-7.536,-34.815,-32.954
403,1437227280100,-7.536,-34.384,-32.954
404,1437227280122,-7.536,-34.384,-33.358
405,1437227280142,-7.136,-34.078,-33.358
406,1437227280163,-7.136,-34.078,-33.711
407,1437227280181,-5.645,-34.078,-33.711
408,1437227280201,-4.571,-34.078,-34.02
409,1437227280222,-3.675,-34.078,-34.02
410,1437227280242,-3.216,-34.078,-34.02
411,1437227280267,-3.216,-34.078,-34.02
412,1437227280283,-4.136,-34.078,-34.02
413,1437227280303,-4.891,-34.078,-34.02
414,1437227280320,-6.068,-34.078,-34.02
415,1437227280425,-6.777,-34.654,-32.954
416,1437227280426,-7.537,-35.055,-31.544
417,1437227280427,-8.322,-35.055,-31.544
418,1437227280428,-8.83,-35.607,-31.004
419,1437227280429,-9.167,-35.607,-30.363
420,1437227280446,-10.124,-36.195,-28.735
421,1437227280460,-10.531,-36.595,-28.735
422,1437227280487,-10.531,-36.595,-27.746
423,1437227280501,-11.196,-37.031,-26.956
424,1437227280521,-11.196,-37.448,-26.588
425,1437227280542,-11.196,-37.448,-26.588
426,1437227280560,-10.427,-37.837,-26.588
427,1437227280581,-10.826,-37.837,-26.588
428,1437227280600,-10.826,-37.837,-25.929
429,1437227280621,-10.826,-37.837,-25.498
430,1437227280642,-10.826,-37.837,-25.498
431,1437227280662,-11.393,-37.837,-25.498
432,1437227280682,-11.393,-37.837,-25.498
433,1437227280702,-11.393,-38.24,-25.03
434,1437227280722,-11.393,-38.24,-25.386
435,1437227280742,-11.393,-38.24,-25.386
436,1437227280762,-11.393,-38.627,-25.386
437,1437227280782,-11.393,-38.627,-25.712
438,1437227280802,-11.393,-38.627,-25.712
439,1437227280826,-11.393,-39.016,-25.712
440,1437227280843,-11.393,-39.016,-25.361
441,1437227280863,-11.393,-39.016,-25.361
442,1437227280882,-11.393,-39.016,-25.361
443,1437227280903,-11.393,-39.016,-25.361
444,1437227280923,-11.024,-39.016,-25.825
445,1437227280940,-11.024,-39.016,-26.713
446,1437227280961,-10.595,-39.016,-27.078
447,1437227280981,-10.595,-39.016,-26.217
448,1437227281003,-10.595,-39.016,-26.217
449,1437227281023,-10.595,-39.016,-26.217
450,1437227281043,-10.595,-39.016,-26.562
451,1437227281061,-10.595,-39.016,-26.562
452,1437227281086,-10.595,-39.016,-26.562
453,1437227281138,-10.595,-39.016,-26.562
454,1437227281150,-10.595,-39.016,-26.885
455,1437227281151,-10.275,-39.016,-26.885
456,1437227281160,-10.275,-39.016,-27.224
457,1437227281191,-10.275,-39.016,-27.224
458,1437227281202,-9.97,-39.016,-27.224
459,1437227281220,-9.97,-39.016,-27.545
460,1437227281242,-9.474,-39.016,-27.545
461,1437227281260,-8.815,-39.016,-27.545
462,1437227281281,-8.169,-39.016,-27.545
463,1437227281301,-7.234,-39.016,-27.545
464,1437227281323,-7.234,-39.016,-27.545
465,1437227281342,-7.234,-39.761,-27.545
466,1437227281361,-7.534,-40.647,-26.473
467,1437227281384,-7.955,-41.363,-25.228
468,1437227281404,-7.955,-41.363,-24.847
469,1437227281424,-8.331,-41.885,-24.357
470,1437227281444,-8.331,-41.885,-24.357
471,1437227281462,-7.608,-41.885,-25.361
472,1437227281481,-7.608,-42.234,-24.52
473,1437227281501,-7.608,-42.234,-24.197
474,1437227281521,-7.608,-42.234,-23.638
475,1437227281541,-7.608,-42.556,-22.926
476,1437227281561,-7.608,-42.556,-22.926
477,1437227281581,-7.608,-42.556,-22.926
478,1437227281601,-7.608,-42.556,-22.926
479,1437227281622,-7.608,-42.556,-22.926
480,1437227281645,-7.608,-42.556,-23.41
481,1437227281665,-7.608,-42.973,-22.94
482,1437227281685,-7.608,-42.973,-23.388
483,1437227281704,-7.608,-42.973,-23.388
484,1437227281723,-7.608,-43.344,-23.388
485,1437227281741,-7.608,-43.344,-22.969
486,1437227281762,-7.608,-43.344,-22.969
487,1437227281782,-7.608,-43.344,-22.969
488,1437227281801,-7.608,-43.344,-22.969
489,1437227281848,-7.608,-43.344,-22.969
490,1437227281849,-7.608,-43.344,-22.636
491,1437227281868,-7.608,-43.664,-22.636
