id,attr_time,attr_db
1,1435993159987,12.8044678532165
2,1435993160750,12.5216309209181
3,1435993161491,16.1224056289624
4,1435993162170,16.1068544577347
5,1435993162815,13.91564153887
6,1435993163552,21.7244370420638
7,1435993164243,28.6961064194858
8,1435993164905,19.7878547179487
9,1435993165591,15.7170949882011
10,1435993166318,23.6518555453764
11,1435993167059,37.6507435946516
12,1435993167801,60.7677928936588
13,1435993168537,52.4141378079842
14,1435993169253,66.2836492135946
15,1435993169986,66.5963882291601
16,1435993170706,54.709417007001
17,1435993171419,64.8791926182333
18,1435993172133,55.4177698402048
19,1435993172822,58.0954702096775
20,1435993173436,68.9768227006524
21,1435993174092,52.6743119335373
22,1435993174818,69.3046444429407
23,1435993175543,50.9601391733937
24,1435993176286,66.076011882908
25,1435993177010,69.8690264106677
26,1435993177745,50.273166714962
27,1435993178463,62.8318064921246
28,1435993179214,58.4836299749932
29,1435993180009,58.4339755161095
30,1435993180720,64.3292177268716
31,1435993181443,72.1762999210075
32,1435993182149,53.9539144439796
33,1435993182851,63.9339224473583
34,1435993183592,73.6274172535258
35,1435993184355,56.0748357930762
36,1435993185105,62.580000549412
37,1435993185819,68.7980588973489
38,1435993186522,54.0428299139174
39,1435993187247,63.3649313939953
40,1435993187986,59.0920576969935
41,1435993188706,54.4255759659065
42,1435993189456,65.0404435021323
43,1435993190185,56.4467086136164
44,1435993190915,56.3885651941014
45,1435993191656,65.5169908886673
46,1435993192362,62.3304142874453
47,1435993193079,37.4703803545377
48,1435993193811,70.9174410248178
49,1435993194541,69.0329385844711
50,1435993195255,48.5147122127918
51,1435993196005,61.7740203815781
52,1435993196770,69.4902105813997
53,1435993197479,54.7284537333295
54,1435993198211,54.1573548999348
55,1435993198959,67.7343187851721
56,1435993199703,59.3637527963263
57,1435993200470,57.4678103079053
58,1435993201210,61.6826449333396
59,1435993201942,59.6617767563392
60,1435993202639,71.9473929876572
61,1435993203285,51.8576993185921
62,1435993203973,68.2641584886499
63,1435993204704,70.113606670253
64,1435993205445,67.1716217024309
65,1435993206175,45.3707000609707
66,1435993206874,60.274267326286
67,1435993207533,65.9252149524447
68,1435993208257,64.3125749942158
69,1435993209041,50.0130971047729
70,1435993209693,72.8133201098313
71,1435993210414,69.3045008568388
72,1435993211172,42.4375290467366
73,1435993211910,55.0778311491144
74,1435993212611,67.2957977092647
75,1435993213259,60.6127853589993
76,1435993213980,72.4256119114844
77,1435993214709,53.2368399913567
78,1435993215479,68.8332713982778
79,1435993216235,69.0553932686244
80,1435993216952,53.5701938169495
81,1435993217671,69.1988977971117
82,1435993218398,62.5269206469251
83,1435993219128,56.8377009778164
84,1435993219854,70.3882832045435
85,1435993220600,70.1584049069128
86,1435993221328,49.265348689729
87,1435993222063,56.8661093996671
88,1435993222794,70.7091089423759
89,1435993223500,48.3086748634765
90,1435993224132,72.4474382174682
91,1435993224869,47.3087773045419
92,1435993225600,66.6207137207738
93,1435993226305,69.9696058466831
94,1435993227051,43.7185691625765
95,1435993227779,68.334582856949
96,1435993228493,56.641290237452
97,1435993229241,50.7331111999911
98,1435993229957,67.8110001775867
99,1435993230677,64.0065706615912
100,1435993231415,57.2991164177989
101,1435993232145,70.6449102275127
102,1435993232867,67.433112713056
103,1435993233602,57.5330740357733
104,1435993234234,52.3298960931741
105,1435993234923,53.9851241912869
106,1435993235692,58.9498044979483
107,1435993236420,66.9875878423757
108,1435993237152,54.4647256286601
109,1435993237882,61.9263604763102
110,1435993238617,71.8777509241053
111,1435993239368,57.5067916636683
112,1435993240059,64.3005803202831
113,1435993240800,72.9179953459787
114,1435993241523,50.3757338739066
115,1435993242259,62.7942955977279
116,1435993242982,69.7207445165901
117,1435993243704,51.0559882081255
118,1435993244398,67.903088076688
119,1435993245197,70.5641305899968
120,1435993245870,58.9442262633124
121,1435993246540,67.2475495022743
122,1435993247170,60.6331367688824
123,1435993247868,53.8489195746791
124,1435993248601,70.6725350229023
125,1435993249359,52.3707165231664
126,1435993250100,59.3222857092628
127,1435993250823,70.9665358978048
128,1435993251494,50.4482909318682
129,1435993252892,64.2137252790106
130,1435993253620,51.1713169196267
131,1435993254274,70.3189269855461
132,1435993254997,44.0668562595596
133,1435993255730,62.033532819054
134,1435993256446,64.5075632591003
135,1435993257114,54.0556669497611
136,1435993257842,60.0091655227244
137,1435993259688,53.053429970824
138,1435993260424,63.4690195363097
139,1435993261161,71.756245596273
140,1435993261885,47.8353858759184
141,1435993262614,69.587489333396
142,1435993263279,64.0199837927114
143,1435993264028,55.7558858030992
144,1435993264711,59.4267860124303
145,1435993266300,60.5230924244899
146,1435993267020,71.7188648466168
147,1435993267743,55.1026019538247
148,1435993268474,61.5007118666278
149,1435993269209,69.4458760119656
150,1435993269914,58.9169668523324
151,1435993271290,52.6079036489698
152,1435993272016,61.1430239532302
153,1435993272737,62.8147222457104
154,1435993273458,63.5452109707908
155,1435993274159,72.6659508577673
156,1435993274801,58.2866391573346
157,1435993275548,46.9741255265387
158,1435993276277,51.6501820142149
159,1435993276980,68.8657907721176
160,1435993277658,71.2202939685679
161,1435993278401,53.9548553341956
162,1435993279143,60.2959450577205
163,1435993279866,46.9499923739388
164,1435993280607,70.3143173404171
165,1435993281344,67.8373760381234
166,1435993282064,57.3576887654238
167,1435993282786,60.7162014894621
168,1435993283507,43.3891326545957
169,1435993284236,67.843025152926
170,1435993284946,70.3016297552207
171,1435993285585,56.0734098135942
172,1435993286272,64.3075549788689
173,1435993286977,50.1307808997384
174,1435993287632,67.3869179641989
175,1435993288309,42.285613869216
176,1435993289043,68.6566359946862
177,1435993289685,65.5080682746466
178,1435993290373,65.9322404726575
179,1435993291103,66.0587443988975
180,1435993291825,51.9992503304108
181,1435993292555,45.5434593213695
182,1435993293294,64.3074435664626
183,1435993294066,53.6989317614991
184,1435993294793,55.1852697223681
185,1435993295462,56.185618542987
186,1435993296152,62.0410318011108
187,1435993296848,64.9550970545017
188,1435993297565,59.7922817501797
189,1435993298316,59.3342266323281
190,1435993299090,54.5759249891948
191,1435993299906,57.5536216193243
192,1435993300628,54.1104145890909
193,1435993301430,62.4918706188676
194,1435993302180,66.1082972558893
195,1435993302920,46.7911955443424
196,1435993303645,66.2647255594385
197,1435993304370,45.1717950159885
198,1435993305063,48.5258350787716
199,1435993305707,46.2694388030765
200,1435993306402,63.4632637608772
201,1435993307164,48.89597027766
202,1435993307890,67.68098097546
203,1435993308621,64.7912166945708
204,1435993309354,48.0161916934849
205,1435993310021,68.3395281729945
206,1435993310718,67.3147150720154
207,1435993311449,64.9570248641433
208,1435993312182,71.3230430277645
209,1435993312928,56.5390841089811
210,1435993313670,63.1485074594372
211,1435993314398,71.6324371018281
212,1435993315082,56.064554205364
213,1435993315732,60.0006434046337
214,1435993316465,69.7353574240392
215,1435993317192,58.4956205486414
216,1435993317919,67.7801053547197
217,1435993318634,63.5244642357139
218,1435993319310,67.8506949117664
219,1435993320050,65.6334092074976
220,1435993320789,58.5685091169408
221,1435993321469,63.5544823065487
222,1435993322124,62.5330419437984
223,1435993322857,57.1340160500205
224,1435993323607,66.7609986193508
225,1435993324339,68.6675016489478
226,1435993325058,60.1634268479772
227,1435993325751,65.4296485282828
228,1435993326428,70.7397800309562
229,1435993327200,49.1314154844497
230,1435993327919,62.1249984359081
231,1435993328635,69.7205358168349
232,1435993329350,52.8044334073364
233,1435993330012,70.2885591095008
234,1435993330821,64.5382190573259
235,1435993331475,65.6416600566734
236,1435993332162,70.6551082453878
237,1435993332903,59.4465973779865
238,1435993333660,66.5001881931432
239,1435993334341,69.9369664161356
240,1435993334946,57.0008329804764
241,1435993335617,51.4494387597831
242,1435993336289,59.8545029741138
243,1435993337031,62.9709335189619
244,1435993337756,69.9159908764485
245,1435993338496,58.9230716694258
246,1435993339250,61.9957066342624
247,1435993339973,68.2803764506727
248,1435993340654,56.991530750042
249,1435993341420,65.8437310553158
250,1435993342084,68.0850534904068
251,1435993342799,60.1643527998179
252,1435993343538,70.5735836901362
253,1435993344280,64.5577055245521
254,1435993345031,54.759329953179
255,1435993345758,66.9973386171874
256,1435993346436,68.8026232688789
257,1435993347081,69.5872743899395
258,1435993347806,62.4479527730156
259,1435993348529,57.6420259427553
260,1435993349261,62.6250562111413
261,1435993350003,67.4356471871883
262,1435993350723,56.0957401229134
263,1435993351440,66.4701711700352
264,1435993352094,61.9716685582703
265,1435993352810,59.2079728910539
266,1435993353536,65.4535246871582
267,1435993354278,62.879446362294
268,1435993355009,43.424088018807
269,1435993355755,69.7210764750539
270,1435993356481,62.2119003975344
271,1435993357121,63.7529452427032
272,1435993357822,63.718835726697
273,1435993358544,55.0223027253515
274,1435993359292,65.7466654488775
275,1435993360001,68.0724732636248
276,1435993360601,55.4058279959581
277,1435993361316,67.0448959048481
278,1435993362061,67.9148321912865
279,1435993362796,43.788599957855
280,1435993363522,63.3682182761308
281,1435993364248,68.5898844954911
282,1435993364983,63.2252626154047
283,1435993365709,67.892456620185
284,1435993366431,61.1978269253136
285,1435993367124,63.7891718082379
286,1435993367790,63.4418145867355
287,1435993368519,59.8312045406632
288,1435993369325,56.2786406938642
289,1435993370064,71.7189923025034
290,1435993370781,43.5583305400962
291,1435993371536,67.8469260312446
292,1435993372262,62.9822157656945
293,1435993372914,62.8610653720871
294,1435993373642,68.8381974291427
295,1435993374370,61.138711463886
296,1435993375088,62.8282766364925
297,1435993375828,67.3342375592163
298,1435993376560,54.248207898962
299,1435993377235,70.643669335648
300,1435993377966,70.8981840697039
301,1435993378693,58.8338473120512
302,1435993379415,66.7608328846181
303,1435993380162,59.3901051711618
304,1435993380871,59.6475643318127
305,1435993381591,71.1072693070789
306,1435993382294,62.899006336915
307,1435993383017,68.6498966182275
308,1435993383739,68.411082897035
309,1435993384464,43.1123306853349
310,1435993385186,65.7477389330218
311,1435993385908,66.5907156069767
312,1435993386625,68.3434637612289
313,1435993387308,68.2916907792704
314,1435993388062,54.840551292542
315,1435993388782,57.3664705644146
316,1435993389525,70.4039275532622
317,1435993390260,62.1584608131703
318,1435993391005,71.4804558823982
319,1435993391771,71.1855670045846
320,1435993392372,59.8703799374999
321,1435993393054,73.069290887058
322,1435993393779,55.5841693876982
323,1435993394513,64.5676802485989
324,1435993395211,70.2546490477835
325,1435993395933,62.3274004466894
326,1435993396667,73.5221761216427
327,1435993397338,36.9710851062902
328,1435993397990,65.4040348283112
329,1435993398714,53.6273849951862
330,1435993399492,65.3789760295219
331,1435993400215,72.6115550526708
332,1435993400933,45.1838642458817
333,1435993401602,71.4064968169308
334,1435993402326,43.4781438312292
335,1435993403072,68.6663394753703
336,1435993403806,44.4996398640781
337,1435993404510,64.5023747851051
338,1435993405182,58.5914132525312
339,1435993405913,62.12323959001
340,1435993406650,65.469708143654
341,1435993407371,57.5006527034926
342,1435993408110,62.5995026861862
343,1435993408826,63.5628889031277
344,1435993409579,61.9418698024344
345,1435993410311,70.8286014213698
346,1435993411059,47.4710956480091
347,1435993411790,66.6951973831235
348,1435993412475,41.7105038587528
349,1435993413126,63.2703474412805
350,1435993413856,64.675198051537
351,1435993414595,60.0317156360779
352,1435993415332,65.8860910602083
353,1435993416073,56.6769002648458
354,1435993416799,65.6314805024235
355,1435993417531,67.3234324799661
356,1435993418188,61.6595669391762
357,1435993418897,70.1502342767769
358,1435993419631,60.0967676609835
359,1435993420370,70.202903594171
360,1435993421136,69.0728103522004
361,1435993421903,63.4981048420032
362,1435993422624,63.3365315414328
363,1435993423352,58.300364061888
364,1435993424100,59.5400701863455
365,1435993424818,66.4926155569475
366,1435993425545,52.7586451515164
367,1435993426288,66.846940146172
368,1435993427023,58.0417232609013
369,1435993427745,56.6709244202171
370,1435993428404,63.5977897100817
371,1435993429167,55.6289502932621
372,1435993429893,57.530675708868
373,1435993430621,62.7694745439204
374,1435993431328,65.485787871206
375,1435993432051,72.822410926196
376,1435993432706,58.5203833166174
377,1435993433415,70.7275260760916
378,1435993434154,61.5306189206452
379,1435993434859,69.8848103494153
380,1435993435554,54.5130870788525
381,1435993436273,58.4630458996346
382,1435993437018,69.0301295110644
383,1435993437758,46.9702238052794
384,1435993438462,64.4689884820478
385,1435993439119,46.6278696349588
386,1435993439824,71.9728115804052
387,1435993440562,70.2321367735267
388,1435993441302,53.3755237978724
389,1435993442029,70.8485754594978
390,1435993442782,57.7549064495373
391,1435993443471,70.0427438701007
392,1435993444208,69.0116882590381
393,1435993444938,59.6558269976146
394,1435993445673,66.9843343350513
395,1435993446404,51.8755329395155
396,1435993447139,58.4311862188057
397,1435993447865,65.4645673376328
398,1435993448592,61.5140600871875
399,1435993449263,66.2003654788357
400,1435993449960,57.6598148540611
401,1435993450638,71.033388047042
402,1435993451424,70.303602850563
403,1435993452167,52.3587797181146
404,1435993452884,57.9283871193384
405,1435993453481,41.272268418045
406,1435993454186,65.0195515879124
407,1435993454912,55.9116631622906
408,1435993455596,59.1756644325171
409,1435993457069,44.1678940329473
410,1435993457765,59.0822318792128
411,1435993458490,47.8530337117609
412,1435993459196,54.7911215041058
413,1435993459931,62.419852658434
414,1435993460641,53.2690058131459
415,1435993461430,57.4857246022186
416,1435993462183,69.8629685270128
417,1435993462914,64.752590448651
418,1435993463627,67.831067214809
419,1435993464432,65.3127512349723
420,1435993465108,64.3637507962138
421,1435993465846,64.6735682614785
422,1435993467917,47.8287657182883
423,1435993468584,58.3211759801541
424,1435993469298,50.5410857048962
425,1435993469941,60.9367239600911
426,1435993470665,63.7759249550995
427,1435993471378,60.4532999556875
428,1435993472140,72.8053657275721
429,1435993472852,50.7592119095134
430,1435993473488,60.7831642966344
431,1435993474179,58.6885094582174
432,1435993474871,64.2328609303934
433,1435993475602,67.0553580386959
434,1435993476336,64.2594120714473
435,1435993477076,67.2551258262718
436,1435993477806,45.5133727038457
437,1435993478521,50.522208392272
438,1435993479196,61.4607212086312
439,1435993479841,51.2781267278346
440,1435993480568,56.3722546050053
441,1435993481251,67.4945462675695
442,1435993482813,44.3487182272325
443,1435993483499,57.8481427693785
444,1435993484231,54.4039715334149
445,1435993484966,59.1516226197385
446,1435993485712,68.9290933844154
447,1435993486455,51.4711756080467
448,1435993487184,59.1177681223107
449,1435993487906,57.1719859124487
450,1435993488640,69.2067868919447
451,1435993489371,70.1000831893745
452,1435993490056,53.3538111172059
453,1435993491836,62.3005225899008
454,1435993492521,62.3737886799185
455,1435993493255,68.671869682632
456,1435993493945,47.247964970564
457,1435993494551,70.6014355701996
458,1435993495237,52.129183118099
459,1435993495996,66.6964389995552
460,1435993496714,53.8132812163499
461,1435993497453,69.5867829822578
462,1435993498178,68.509553389505
463,1435993498913,47.025698139401
464,1435993499660,50.8245652655825
465,1435993500311,57.5982068710893
466,1435993501067,70.2807941068507
467,1435993501798,68.4761160413946
468,1435993502548,59.8647564558238
469,1435993503295,60.8383236549205
470,1435993504001,47.7358450099609
471,1435993504681,70.4177132579319
472,1435993505420,65.3056223656911
473,1435993506156,62.3514073850701
474,1435993506883,67.6277835210302
475,1435993507620,48.7240526189781
476,1435993508365,67.1328917930755
477,1435993509137,68.4170745190006
478,1435993509861,42.7292869407226
479,1435993510551,64.115986800124
480,1435993511310,47.4180941746037
481,1435993512034,59.7515280100402
482,1435993512782,64.6803199904362
483,1435993513474,48.1764207129669
484,1435993514112,62.8789330069477
485,1435993514734,42.630669955966
486,1435993515393,55.1366570194637
487,1435993516060,43.4077340480529
488,1435993516741,46.5675047393315
489,1435993517468,62.6947534254476
490,1435993518195,60.0835364674641
491,1435993518937,67.0683481911661
492,1435993519750,58.5955923782493
493,1435993520463,68.0693214366254
494,1435993521130,48.6681753790099
495,1435993521841,63.4963356330349
496,1435993522518,67.3490923521992
497,1435993523251,59.7143055387574
498,1435993523969,74.0119976846704
499,1435993524793,60.1187226299814
500,1435993525531,62.971496100896
501,1435993526275,70.2608888039435
502,1435993527004,52.6846399847423
503,1435993527745,71.1004572549372
504,1435993528486,53.0893783001442
505,1435993529258,55.994780995947
506,1435993529983,61.8378589611549
507,1435993530699,67.7863567593665
508,1435993531339,52.8977576832702
509,1435993532075,69.248938470673
510,1435993532802,60.9800692616035
511,1435993533529,62.5451257778232
512,1435993534221,43.1097116777603
513,1435993534871,64.9438251468576
514,1435993535580,58.0825756421891
515,1435993536313,56.8740121765732
516,1435993537055,73.0706562055824
517,1435993537810,46.2148240138503
518,1435993538559,69.5226660869776
519,1435993539323,64.351281619261
520,1435993540048,59.2431578996637
521,1435993540766,70.6055432660653
522,1435993541420,55.856476822256
523,1435993542171,53.401436399738
524,1435993542878,47.8676916543848
525,1435993543640,59.513441762037
526,1435993544337,60.2985841420225
527,1435993545007,49.939564911906
528,1435993545643,71.1400932898389
529,1435993546350,56.8416004115728
530,1435993547093,63.9506786664383
531,1435993547823,61.3354196741461
532,1435993548567,55.4389880155248
533,1435993549312,70.8445317528529
534,1435993550059,43.1061131630796
535,1435993550780,70.4755588936546
536,1435993551420,48.786991055643
537,1435993552155,57.8722608004557
538,1435993552875,68.5284864221051
539,1435993553605,49.1141759172083
540,1435993554341,49.8758938296012
541,1435993555057,51.2258348254382
542,1435993555746,70.5062197688722
543,1435993556480,69.622011773375
544,1435993557224,52.7995236841377
545,1435993557962,67.2261894041175
546,1435993558701,53.4582320960257
547,1435993559415,63.9323675478524
548,1435993560142,70.7909530297424
549,1435993560875,49.792683801871
550,1435993561549,70.5455449643069
551,1435993562219,47.9369661389236
552,1435993562943,46.9805557705656
553,1435993563674,53.1248702982265
554,1435993564392,65.1446452470967
555,1435993565168,66.2765079704015
556,1435993565885,58.2412786791741
557,1435993566619,61.8917939850035
558,1435993567456,52.385466718285
559,1435993568192,63.7454681367579
560,1435993568940,68.6026762680532
561,1435993569688,45.9407715416495
562,1435993570410,57.5800195152798
563,1435993571165,59.2787514027077
564,1435993571883,60.8800032990584
565,1435993572621,69.9367391180267
566,1435993573342,41.1837806778972
567,1435993574178,57.7709098094824
568,1435993574940,69.5196933979928
569,1435993575514,61.0165399004423
570,1435993576161,65.3902868310987
571,1435993576899,58.8571971460203
572,1435993577647,72.6921714110689
573,1435993578380,54.2761549209501
574,1435993579110,71.795501319213
575,1435993579804,63.5614131113813
576,1435993580426,61.3744832451596
