id,attr_time,attr_db
1,1435993159961,21.0486270235276
2,1435993160539,15.4094755221491
3,1435993161145,19.3954668136821
4,1435993161816,15.1353010094572
5,1435993162419,18.727462943264
6,1435993163068,35.9641713710067
7,1435993163731,19.0791147040527
8,1435993164425,24.4078950133061
9,1435993165077,32.0650527440567
10,1435993165752,24.1839507670504
11,1435993166421,48.7867590313018
12,1435993167084,40.3964122643268
13,1435993167734,50.6842859910991
14,1435993168425,47.1479181239947
15,1435993169007,31.9321642887737
16,1435993169635,47.4622841532483
17,1435993170288,42.9143988948359
18,1435993170916,42.6879366368081
19,1435993171541,34.1371345588806
20,1435993172162,40.642061355896
21,1435993172818,42.705457896996
22,1435993173508,45.2987256617405
23,1435993174136,55.8020162007878
24,1435993174797,47.2985967200951
25,1435993175440,42.6339505980192
26,1435993176096,34.5177374758315
27,1435993176778,56.0022133432032
28,1435993177437,55.3722809059421
29,1435993178079,45.9202935549688
30,1435993178687,36.7134265342987
31,1435993179308,40.6001137378413
32,1435993179966,42.8180130501948
33,1435993180640,48.729557938665
34,1435993181255,52.5313338237641
35,1435993181928,40.9520723587182
36,1435993182594,40.2934739535975
37,1435993183256,39.0972756985924
38,1435993183874,42.1278306624824
39,1435993184527,60.1540310857882
40,1435993185177,45.5005612968688
41,1435993185840,45.1713919085688
42,1435993186425,44.2636633060229
43,1435993187098,38.9902677812794
44,1435993187733,50.9078205690562
45,1435993188333,57.6467271643262
46,1435993188966,55.9847209867005
47,1435993189631,49.0538885426478
48,1435993190299,47.0233744685977
49,1435993190913,47.5004308360936
50,1435993191544,40.6155725119035
51,1435993192176,53.7500085766199
52,1435993192846,47.3148190049004
53,1435993193470,59.2678214045085
54,1435993194085,45.7310575176388
55,1435993194683,32.8013909400209
56,1435993195353,51.513379969692
57,1435993196007,36.2532669536592
58,1435993196644,55.4894548394613
59,1435993197307,43.2910941074967
60,1435993197968,59.8732839825514
61,1435993198595,49.3444887683737
62,1435993199222,41.8327177670366
63,1435993199905,55.3491161431674
64,1435993200541,38.9396120548714
65,1435993201197,40.6156610045225
66,1435993201784,45.0119327860247
67,1435993202456,42.6874459568956
68,1435993203081,53.3890568341227
69,1435993203673,54.9680882290252
70,1435993204308,50.5489325698774
71,1435993204966,46.9521617072567
72,1435993205635,55.8516033157678
73,1435993206265,38.3890265244261
74,1435993206873,45.8200811089243
75,1435993207545,44.9039293412894
76,1435993208214,56.7968967433557
77,1435993208887,46.0840994981555
78,1435993209502,48.1615541313662
79,1435993210169,56.5645877241073
80,1435993210857,32.3355557027856
81,1435993211492,49.2072383775495
82,1435993212090,39.8104668722679
83,1435993212706,47.1897763268748
84,1435993213376,57.8462635985232
85,1435993213999,43.5868604694007
86,1435993214665,47.9986060575985
87,1435993215253,35.9469001633893
88,1435993216478,24.8794885678591
89,1435993217120,48.8368686909678
90,1435993217768,41.0074943213991
91,1435993218461,42.5585037956753
92,1435993219093,52.0624350964665
93,1435993219686,45.6985960074805
94,1435993220334,43.6488425624486
95,1435993221005,32.5826818365009
96,1435993221667,35.2483460515456
97,1435993222236,51.5110742368464
98,1435993222917,37.4771948313928
99,1435993223579,52.9169504250404
100,1435993224177,40.328912536628
101,1435993224817,40.2968635158153
102,1435993225468,32.2754496349713
103,1435993226185,47.7005733667123
104,1435993226827,45.7435096354977
105,1435993228333,39.3313352592179
106,1435993228967,52.928717141446
107,1435993229581,38.8318059982652
108,1435993230191,45.7602544403039
109,1435993231659,42.8418200504207
110,1435993232317,52.2462277569671
111,1435993232994,31.9553670641266
112,1435993233651,50.3732203739083
113,1435993234316,39.2718035839501
114,1435993234966,46.2979875498089
115,1435993235596,37.1252278738897
116,1435993236265,52.3365993465563
117,1435993236917,44.5118608424045
118,1435993237531,40.1917843920561
119,1435993238771,31.3906774643572
120,1435993239426,40.186030295835
121,1435993240060,41.84583040111
122,1435993240709,38.5363765916209
123,1435993241408,54.3444343166017
124,1435993241993,38.0692379212688
125,1435993242647,43.563303525408
126,1435993243269,45.9119742380134
127,1435993243904,50.7301873200877
128,1435993244516,53.7647223138925
129,1435993245158,38.2396537587157
130,1435993245778,47.1611559323184
131,1435993246432,36.9166517953702
132,1435993247078,45.8163006986607
133,1435993247742,39.4730835926986
134,1435993248385,39.9107526316968
135,1435993249087,51.2380793256944
136,1435993249756,38.693757626008
137,1435993250425,44.9379831721591
138,1435993251028,30.7609414736828
139,1435993251677,36.2470542596931
140,1435993252326,34.8171881285536
141,1435993252956,46.6551607972559
142,1435993253550,44.6832494141138
143,1435993254198,58.0892695107669
144,1435993254860,52.3644647022006
145,1435993255484,37.1824387625445
146,1435993256131,43.9291185438589
147,1435993256781,40.0375628995252
148,1435993257464,31.1613669035393
149,1435993258129,39.3884699303652
150,1435993258767,40.8646543161706
151,1435993259446,53.2193226706263
152,1435993260089,31.7611397656549
153,1435993260717,57.8465920057707
154,1435993261346,67.2105910979802
155,1435993262012,51.9917715685173
156,1435993262670,27.1548286279843
157,1435993263295,38.1267454292302
158,1435993263954,38.2247878951404
159,1435993264607,47.0118392289732
160,1435993265258,46.3515657766557
161,1435993265895,48.9146291420677
162,1435993266554,45.5561509593914
163,1435993267192,33.1165171339961
164,1435993267815,44.4761045849779
165,1435993268490,59.7271777858659
166,1435993269150,35.8510761436643
167,1435993269791,31.6058714742457
168,1435993270428,39.091940934116
169,1435993271105,41.9885010461072
170,1435993271769,45.2422337125714
171,1435993272375,38.874858069994
172,1435993273032,45.0256711689648
173,1435993273710,52.7823393053345
174,1435993274311,44.353669782026
175,1435993274958,47.3189725410494
176,1435993275604,38.2967823990654
177,1435993276222,44.9803084649488
178,1435993276851,32.1913507316971
179,1435993277533,31.4154679814128
180,1435993278202,30.7093615985002
181,1435993278861,33.7872165540951
182,1435993279536,30.510973238836
183,1435993280174,42.7788319158343
184,1435993280797,48.3794706424599
185,1435993281418,30.3065115782718
186,1435993282095,35.1161130109457
187,1435993282761,43.0126305687024
188,1435993283370,62.6358049960859
189,1435993284068,46.6053824925241
190,1435993284737,45.5200302643863
191,1435993285367,39.6804827682161
192,1435993286009,51.8551341690407
193,1435993286640,67.398305341036
194,1435993287301,43.1329485801338
195,1435993287930,41.8991194937068
196,1435993288593,34.1335889238292
197,1435993289266,43.9041875813674
198,1435993289926,41.6843471574384
199,1435993290580,54.8031586730688
200,1435993291232,38.1205543357022
201,1435993291891,48.5174257438721
202,1435993292536,40.923612030744
203,1435993293171,41.2706357199564
204,1435993293823,38.5193736567901
205,1435993294465,43.0817243623068
206,1435993295095,43.0286500883246
207,1435993295718,40.880396515274
208,1435993296387,64.4219544074667
209,1435993297004,31.849979321844
210,1435993297617,36.3247439672727
211,1435993298280,63.8036351223873
212,1435993298958,50.7847410798344
213,1435993299601,45.5523378221847
214,1435993300285,46.8632006226167
215,1435993300956,44.0228891406845
216,1435993301605,38.5006954038722
217,1435993302242,34.6743686059313
218,1435993302915,39.8664024512931
219,1435993303582,37.6209567563394
220,1435993304200,41.2702874062602
221,1435993304805,44.9445025753037
222,1435993305457,42.5336397084149
223,1435993306070,43.1824225683534
224,1435993306714,33.7179218525079
225,1435993307377,43.4513648847801
226,1435993308037,59.3064057772796
227,1435993308719,41.8370725575256
228,1435993309379,50.0829514536657
229,1435993310029,35.6290929050294
230,1435993310707,36.7893045599065
231,1435993311343,41.5057614066401
232,1435993311942,41.1283801189897
233,1435993312615,53.2477761836136
234,1435993313243,38.4994293416214
235,1435993313896,46.2942976256581
236,1435993314505,55.4779719750903
237,1435993315159,62.9280394374819
238,1435993315791,52.8691161822811
239,1435993316435,37.7135589930671
240,1435993317064,56.2872172165735
241,1435993317721,37.5701471257494
242,1435993318381,53.2042419302224
243,1435993319027,33.6848638592355
244,1435993319676,45.5048245033139
245,1435993320333,50.241708301309
246,1435993320946,43.8119278330491
247,1435993321593,46.295266850853
248,1435993322266,42.6060979848187
249,1435993322866,37.098045458336
250,1435993323535,40.3017629746399
251,1435993324205,49.5502124649627
252,1435993324836,55.766519143954
253,1435993325509,44.2617822776454
254,1435993326134,57.4893136905007
255,1435993326747,39.7036681255466
256,1435993327399,44.2248309308555
257,1435993328063,38.3089826781157
258,1435993328726,60.7317751064403
259,1435993329418,52.0268433009688
260,1435993330072,42.9333437573146
261,1435993330760,53.2459829061073
262,1435993331433,58.3869980499841
263,1435993332107,43.0258427849081
264,1435993332780,44.7153473174692
265,1435993333421,40.1696690706217
266,1435993334100,55.2070041500585
267,1435993334763,54.6955656528109
268,1435993335345,49.8830808617077
269,1435993335927,41.7964258170466
270,1435993336565,46.1991504720854
271,1435993337219,55.6413738883166
272,1435993337861,34.4267712101243
273,1435993338524,54.3057228102199
274,1435993339190,53.4074127896482
275,1435993339842,44.4581024421379
276,1435993340498,52.5085955499437
277,1435993341159,43.6210130088563
278,1435993341812,47.7933094923101
279,1435993342482,38.6815550484011
280,1435993343095,53.8741470371209
281,1435993343742,48.2827168602508
282,1435993344387,43.0553154266552
283,1435993345043,45.0536480835477
284,1435993345674,34.8968615186275
285,1435993346359,41.975605699624
286,1435993347012,46.3363068065987
287,1435993347615,38.6444615136827
288,1435993348271,42.6304887205208
289,1435993348918,43.6795821496003
290,1435993349559,41.0984795493932
291,1435993350210,38.7624027807895
292,1435993350860,54.1940092684071
293,1435993351528,47.3425489509386
294,1435993352163,43.9560021161651
295,1435993352795,43.2742627769959
296,1435993353421,39.4400792623579
297,1435993354075,52.9146519210095
298,1435993354736,39.7183952008163
299,1435993355392,56.1580802346746
300,1435993356052,49.0973986916554
301,1435993356718,40.3505567808125
302,1435993357387,41.9720039674961
303,1435993357995,41.6176876147112
304,1435993358656,50.1594242445891
305,1435993359316,50.8187352784081
306,1435993359968,48.1664384699187
307,1435993360646,52.2045586874216
308,1435993361312,35.6186019617751
309,1435993361961,45.4972538956643
310,1435993362593,35.3511221552416
311,1435993363186,54.1590591872145
312,1435993363827,53.7146686475403
313,1435993364491,52.4917272454735
314,1435993365143,63.2322774026895
315,1435993365770,32.5929464377045
316,1435993366443,55.238565104647
317,1435993367059,56.6218863779079
318,1435993367662,63.476159092193
319,1435993368305,56.143911612938
320,1435993368980,44.8180802963963
321,1435993369666,43.4021443843597
322,1435993370338,45.2852721034793
323,1435993370975,36.653423701787
324,1435993371627,36.79241082268
325,1435993372294,57.6836018035854
326,1435993372956,47.4204214967326
327,1435993373620,41.8431993743287
328,1435993374237,49.044535245105
329,1435993374889,40.9409894112389
330,1435993375580,46.8869676077797
331,1435993376195,42.4321038035047
332,1435993376858,46.4227966217609
333,1435993377528,53.9017864610014
334,1435993378152,37.92332940284
335,1435993378765,46.3272415829096
336,1435993379420,51.8180192694566
337,1435993380055,43.8596427924567
338,1435993380667,33.9354729436267
339,1435993381322,47.0119154367897
340,1435993381973,40.3170090744342
341,1435993382647,58.0423673587594
342,1435993383305,42.8618760364834
343,1435993383954,46.774094065386
344,1435993384593,43.525519295295
345,1435993385207,31.2824825708454
346,1435993385885,51.3837995274722
347,1435993386546,43.681456716769
348,1435993387192,57.9215992881855
349,1435993387866,42.841212087564
350,1435993388542,48.6498402182779
351,1435993389215,64.5184496161341
352,1435993389875,42.5555492006355
353,1435993390535,57.7126121944084
354,1435993391202,54.5021862691845
355,1435993391879,52.4868630294641
356,1435993392543,67.2775166220755
357,1435993393201,57.2269617750393
358,1435993393840,62.1983559087493
359,1435993394500,39.8872830884168
360,1435993395159,54.759483934032
361,1435993395835,68.4861520977139
362,1435993396472,62.7042681375043
363,1435993397110,71.9828470345983
364,1435993397776,49.7024069061154
365,1435993398433,51.5257312601352
366,1435993399054,61.8391579112269
367,1435993399637,35.7962308600152
368,1435993400307,58.2243601863165
369,1435993400938,61.9667643517191
370,1435993401601,50.078893640351
371,1435993402255,47.500904007343
372,1435993402938,49.0597183690097
373,1435993403584,37.8474044336089
374,1435993404245,43.0462903479866
375,1435993404872,65.1335247485456
376,1435993405539,52.3419115769816
377,1435993406205,66.4950368522855
378,1435993406840,47.2944649520577
379,1435993407467,48.555342061894
380,1435993408073,53.8546724481547
381,1435993408687,36.0654037315216
382,1435993409366,56.3209783439946
383,1435993409989,52.4672291986255
384,1435993410673,37.0676470042692
385,1435993411316,44.9965208622528
386,1435993411978,45.9315212954741
387,1435993412640,43.7701842803364
388,1435993413291,42.3108540867818
389,1435993413951,47.0652911740876
390,1435993414562,50.6072903653329
391,1435993415222,55.3631500648869
392,1435993415900,36.7952271620303
393,1435993416521,49.9943686507339
394,1435993417169,58.4608968966485
395,1435993417838,52.9594796333084
396,1435993418508,48.9844231847664
397,1435993419131,43.8195410158866
398,1435993419698,53.0940064330917
399,1435993420724,41.2614361705805
400,1435993421394,55.7827498141686
401,1435993422049,68.8346053839467
402,1435993422725,49.3213739887122
403,1435993423388,44.4078951048052
404,1435993424011,69.6273185999986
405,1435993424612,39.7795171268643
406,1435993425261,39.4519639329941
407,1435993425941,52.0015361679013
408,1435993426536,62.0052914796499
409,1435993427150,72.0838243512793
410,1435993427810,36.2805078034858
411,1435993428506,45.3645141258322
412,1435993429102,48.3330201300596
413,1435993429713,48.5592281505244
414,1435993430376,40.4724729072584
415,1435993431007,54.8918425768273
416,1435993431622,49.0468476266479
417,1435993432282,56.4483892954267
418,1435993432958,47.4275484690137
419,1435993433612,63.9010437794375
420,1435993434227,60.8422262856558
421,1435993434856,46.7304052184428
422,1435993435471,62.8597535050581
423,1435993436511,42.6892505933015
424,1435993437174,55.9296943322212
425,1435993437805,52.5360178804865
426,1435993438459,44.6307061087685
427,1435993439113,39.0505186110334
428,1435993439798,51.3319201891954
429,1435993440400,46.7433047930795
430,1435993441040,46.976626466498
431,1435993441704,63.4619835737521
432,1435993442358,52.4861646689921
433,1435993443028,46.3194279741132
434,1435993443683,43.0059940721453
435,1435993444330,71.3711243947845
436,1435993445007,60.8163879410443
437,1435993445677,57.5697904477803
438,1435993446320,51.2269119950238
439,1435993447909,51.1472267644065
440,1435993448547,44.449227001847
441,1435993449199,45.8894468427421
442,1435993449846,43.6396986802623
443,1435993450498,54.0585235726062
444,1435993451168,44.3370928719743
445,1435993451806,42.8844489163126
446,1435993452446,42.273854332957
447,1435993453108,44.7452723737723
448,1435993453772,41.6627839761286
449,1435993454407,38.083325159859
450,1435993455055,39.7578740065647
451,1435993455718,37.7432425605589
452,1435993456335,46.7371397821787
453,1435993456977,56.0659814945711
454,1435993457600,65.4412822246529
455,1435993459001,51.8158938376029
456,1435993459633,35.6417769716554
457,1435993460250,44.540864567575
458,1435993460868,41.9472929488951
459,1435993461474,39.0689014806372
460,1435993462125,45.424711651145
461,1435993462801,42.8709453230675
462,1435993463472,55.544475581111
463,1435993464143,36.4422047380599
464,1435993464813,44.1749819724691
465,1435993465472,40.4968595097275
466,1435993466082,56.9909305500379
467,1435993466739,41.5463149666721
468,1435993467404,48.9930643598428
469,1435993468032,60.6195551642988
470,1435993468649,62.0653564633738
471,1435993469304,41.5423398359384
472,1435993469951,45.1329715438317
473,1435993470585,45.2857671941187
474,1435993471241,43.6679453177776
475,1435993471915,47.0174065030434
476,1435993472573,44.0891402221861
477,1435993473233,64.7856068374658
478,1435993473896,55.7933478658656
479,1435993474575,52.9143049365673
480,1435993475226,62.2147090513048
481,1435993475885,51.4098166559947
482,1435993476526,42.7345750317825
483,1435993477175,56.673984813051
484,1435993477798,64.7275134353033
485,1435993478444,62.2905675787008
486,1435993479105,40.75132585779
487,1435993479696,46.7393702560634
488,1435993480307,40.4932121178653
489,1435993480914,47.6282170001372
490,1435993481552,42.2635496383406
491,1435993482217,49.3586875753415
492,1435993482886,54.728295999101
493,1435993483522,42.4878799209461
494,1435993484190,46.0687761923605
495,1435993484866,43.0077374231887
496,1435993485516,44.2409477591053
497,1435993486154,41.0726382517574
498,1435993486767,41.8148542938538
499,1435993487387,41.0619675954678
500,1435993488033,44.2034066246388
501,1435993488644,41.2585305053131
502,1435993489278,46.571262095158
503,1435993489890,39.2005827568286
504,1435993490555,47.9063262202913
505,1435993491121,44.8322439914692
506,1435993491710,46.3370584096426
507,1435993492352,44.8476535672262
508,1435993493020,40.9419185445631
509,1435993493702,43.2101375252623
510,1435993494390,43.5876528932112
511,1435993495059,44.3836071273624
512,1435993495705,39.1244803786414
513,1435993496328,36.5252723003151
514,1435993496989,40.5650353553068
515,1435993497654,36.7036600278049
516,1435993498285,50.2925027188763
517,1435993498887,39.4165109532434
518,1435993499509,47.7408864105943
519,1435993500144,38.8842720013891
520,1435993500750,44.4473311405632
521,1435993501414,43.7109446203979
522,1435993502083,54.8055399466154
523,1435993502776,43.9966334123792
524,1435993503429,42.4557752302159
525,1435993504094,44.314267451586
526,1435993504776,36.7106892303856
527,1435993505445,39.4096649746104
528,1435993506091,39.5978834481338
529,1435993506725,54.3991715521656
530,1435993507415,37.3566294976306
531,1435993508030,50.1911378045356
532,1435993508668,43.4005073268088
533,1435993509320,55.3640298110327
534,1435993509991,50.4521560075644
535,1435993510640,40.2907404690209
536,1435993511310,45.5410366711858
537,1435993511961,45.2269090366936
538,1435993512636,39.918875871738
539,1435993513293,37.3959551322866
540,1435993513970,45.9813860757214
541,1435993514641,34.1465359532489
542,1435993515342,44.5305796717102
543,1435993515982,52.437302464179
544,1435993516602,55.9670924163136
545,1435993517201,40.9112776892165
546,1435993517865,51.4710859743089
547,1435993518541,47.2555023947354
548,1435993519190,53.1597834323965
549,1435993519772,50.3227911831865
550,1435993520402,57.9792322653376
551,1435993521015,53.673846556796
552,1435993521647,62.6985280515561
553,1435993522312,47.6414386738536
554,1435993523009,37.7633069320954
555,1435993523670,43.0610700432787
556,1435993524321,51.1333369881603
557,1435993524991,40.2766094659152
558,1435993525651,41.3381561029897
559,1435993526305,46.5826851369788
560,1435993526945,47.6205637314651
561,1435993527587,40.3077102535375
562,1435993528242,42.1478454132209
563,1435993528900,38.530564391949
564,1435993529524,58.1431511816692
565,1435993530203,37.9647686114161
566,1435993530879,41.5953303643592
567,1435993531493,34.8597954575812
568,1435993532105,43.9069335680332
569,1435993532768,40.4333652292873
570,1435993533426,44.8373904037776
571,1435993534039,45.8304949192736
572,1435993534712,55.7880285032802
573,1435993535373,46.7771836038458
574,1435993536052,38.5609899616513
575,1435993536687,43.5987070421046
