id,attr_time,attr_db
1,1435993159566,17.265858466135
2,1435993160358,20.0737589214697
3,1435993161118,20.0670980619081
4,1435993161840,19.3851782744993
5,1435993162568,14.496150616977
6,1435993163290,14.7273419147051
7,1435993163980,32.5894851245069
8,1435993164703,27.3203817117436
9,1435993166356,46.8448361310984
10,1435993167065,59.3464700973491
11,1435993167787,60.2488953554475
12,1435993168513,44.3389798913625
13,1435993169271,43.470018658862
14,1435993169988,41.8694635832077
15,1435993170784,46.3534869946382
16,1435993171414,45.7069912787661
17,1435993172728,47.6931207889575
18,1435993173457,48.5264680121403
19,1435993174174,39.4762170546801
20,1435993174895,54.0086345355335
21,1435993175602,44.322802057959
22,1435993176319,49.9136678554955
23,1435993177038,61.6732579969764
24,1435993177709,49.0986779435045
25,1435993179430,35.4084854901842
26,1435993180213,58.7717287049436
27,1435993180990,50.5477256670356
28,1435993181688,51.3479232980683
29,1435993182418,41.1096037511287
30,1435993183092,46.7537424045003
31,1435993184124,43.5488123916317
32,1435993184793,49.7237515164943
33,1435993185468,57.4315609312093
34,1435993186141,45.7487649854218
35,1435993186890,52.8163764227441
36,1435993187612,40.2578883997116
37,1435993188270,53.9945317403258
38,1435993188987,38.7825134773566
39,1435993189707,41.9528138191859
40,1435993190433,53.5648417989596
41,1435993191132,45.1003020379619
42,1435993191815,38.1791798695546
43,1435993192534,46.1670556526362
44,1435993193277,45.2414711447739
45,1435993193990,47.6545787992687
46,1435993194719,56.6625149288766
47,1435993195431,42.2041396567618
48,1435993196174,52.2703058603874
49,1435993196895,51.0163256421613
50,1435993197628,43.3439020771626
51,1435993198347,49.0547430081079
52,1435993199041,45.001823556002
53,1435993199788,47.0366133511059
54,1435993200515,46.3206133976913
55,1435993201304,43.9816894502084
56,1435993202058,52.3633068995997
57,1435993202805,49.4118183943427
58,1435993203539,62.2889221686705
59,1435993204257,36.1131154302945
60,1435993204809,50.5478005393681
61,1435993205379,43.0763549715383
62,1435993206006,39.1968842813595
63,1435993206658,44.0510369728799
64,1435993207382,48.0503788853526
65,1435993208061,42.0683485290438
66,1435993208655,50.5108550167064
67,1435993209328,50.5075384411398
68,1435993210078,43.2931786803895
69,1435993210814,50.0050838067715
70,1435993211519,53.299499816036
71,1435993212065,46.7381277206994
72,1435993212616,57.8346803428214
73,1435993213183,53.609833843659
74,1435993213737,41.7243806714023
75,1435993214369,49.6778153794479
76,1435993215109,51.1522453403484
77,1435993215828,41.8516284708212
78,1435993216578,50.3916503625404
79,1435993217347,46.7286288884428
80,1435993218091,43.5604664367173
81,1435993218835,44.5121175021705
82,1435993219422,54.9910540421497
83,1435993220001,44.1848641279166
84,1435993220574,45.9135693483253
85,1435993221152,40.9340584728656
86,1435993222621,46.4802381855605
87,1435993223270,55.6642972861
88,1435993223982,47.2663774526111
89,1435993224750,41.8407957631603
90,1435993225509,48.2797381734002
91,1435993226235,41.4015891081049
92,1435993226833,54.7901288780517
93,1435993227383,50.4210408774892
94,1435993227939,49.3544571850055
95,1435993228542,62.9601066193118
96,1435993229219,41.5013402782991
97,1435993229944,50.0726744257602
98,1435993230528,37.1367043795292
99,1435993231090,46.4045027296427
100,1435993231659,60.0509707580841
101,1435993232226,41.9718764823904
102,1435993233524,41.740457027395
103,1435993234258,48.7042975064985
104,1435993234974,47.5490146587392
105,1435993235720,45.5502933906337
106,1435993236442,48.087909298231
107,1435993237029,46.2589961659263
108,1435993237603,42.7816197326462
109,1435993238154,48.7020816191473
110,1435993238718,42.4687642375911
111,1435993239359,39.4741027520833
112,1435993240150,34.1836829187388
113,1435993240808,51.0049173680301
114,1435993241370,44.2172483475985
115,1435993241918,49.5116259032916
116,1435993242475,42.1195065962637
117,1435993243057,50.2645944355195
118,1435993243604,43.7867497572355
119,1435993244898,40.9120250773062
120,1435993245606,45.70229680798
121,1435993246286,51.5768976303155
122,1435993246977,43.4786487917527
123,1435993247699,55.4587041830899
124,1435993248466,52.9128102531103
125,1435993249159,38.1861977967188
126,1435993249792,47.9924372796902
127,1435993250490,47.542464279577
128,1435993251230,45.9145549147798
129,1435993251954,46.9201564746422
130,1435993252680,42.9452300621203
131,1435993253455,50.8933175879742
132,1435993254160,55.4658964765729
133,1435993254910,63.5832572005129
134,1435993255634,48.1418566721115
135,1435993256370,43.3680250595136
136,1435993257087,42.1776432766933
137,1435993257813,43.2517492293027
138,1435993258504,37.864721349428
139,1435993259138,62.1013335085674
140,1435993259868,61.5043452756919
141,1435993260654,40.8921433714767
142,1435993261395,47.9628303438615
143,1435993262144,67.1025769638789
144,1435993262856,54.3555996645924
145,1435993263605,43.6218721334861
146,1435993264373,37.0115391554871
147,1435993265261,50.2000006384152
148,1435993265844,41.4021997359773
149,1435993266528,46.022788163889
150,1435993267256,46.1936951634586
151,1435993267988,36.2167942559275
152,1435993268720,56.8530501056368
153,1435993269453,39.2571307217189
154,1435993270094,49.385671453067
155,1435993270820,44.1367149587037
156,1435993271526,50.3592396223177
157,1435993272298,46.7501974215031
158,1435993273021,48.7208533388547
159,1435993273758,48.4756637490276
160,1435993274504,53.9347148872321
161,1435993275401,30.6146719675112
162,1435993276129,44.9336932868278
163,1435993276867,47.1008905476715
164,1435993277610,43.9081467778992
165,1435993278333,33.2715814289272
166,1435993279058,41.1589516386498
167,1435993279719,45.5469498914435
168,1435993280394,39.8261914435383
169,1435993281121,41.1813140211446
170,1435993281851,45.1164903094249
171,1435993282594,49.3984320296869
172,1435993283325,39.8491918241597
173,1435993284047,53.6966334659054
174,1435993284788,52.4698200135071
175,1435993285478,45.286461955799
176,1435993286132,47.8415881391066
177,1435993286872,69.422775251444
178,1435993287596,57.3254555345043
179,1435993288315,45.4848716067664
180,1435993289057,52.3434634859106
181,1435993289793,41.0493656182841
182,1435993290497,45.0431132363389
183,1435993291200,47.0166132417858
184,1435993291915,43.8988472878369
185,1435993292642,43.4604851416952
186,1435993293359,40.8249026157731
187,1435993294095,50.0461209149295
188,1435993294814,52.9305922933295
189,1435993295596,66.0242104902761
190,1435993296356,43.5001390021586
191,1435993297018,68.7406152990066
192,1435993297759,34.5363240535054
193,1435993298476,46.3444294835507
194,1435993299209,63.715676273266
195,1435993299964,42.9613309941149
196,1435993300651,44.7105184643156
197,1435993301363,38.0302448189361
198,1435993302050,36.6597825898794
199,1435993302725,39.5596878230159
200,1435993303436,37.383791332545
201,1435993304171,49.292866145389
202,1435993304849,46.7139876168456
203,1435993305535,46.7928214967284
204,1435993306129,40.491105119018
205,1435993306800,45.6506567320013
206,1435993307535,42.1315232474291
207,1435993308275,43.2378831454977
208,1435993309000,36.935960531384
209,1435993309723,44.285510791402
210,1435993310453,38.6617696471423
211,1435993311110,61.5868234412063
212,1435993311794,48.3275188651878
213,1435993312553,37.3205276986178
214,1435993313314,51.2868175185123
215,1435993314033,49.7864511716429
216,1435993314756,60.3072253773162
217,1435993315499,65.0954247235371
218,1435993316275,42.8932880930845
219,1435993316966,39.551276889747
220,1435993317717,49.9282997939459
221,1435993318395,43.1045470610292
222,1435993319104,49.4420214359663
223,1435993319833,43.6743618668691
224,1435993320582,40.4371047505985
225,1435993321228,48.8915304491787
226,1435993321935,39.907398169952
227,1435993322668,48.2701848608074
228,1435993323379,50.8474239007364
229,1435993324065,56.6786527582128
230,1435993324726,48.0045243379611
231,1435993325435,51.9069881386231
232,1435993326165,41.8889826238745
233,1435993326807,54.3879126193927
234,1435993327515,59.8405381043711
235,1435993328257,51.264058840328
236,1435993328980,49.5661340371708
237,1435993329719,51.5268116632315
238,1435993330431,49.8755061752716
239,1435993331134,43.8493818430289
240,1435993331777,49.6959294737735
241,1435993332498,48.133730468129
242,1435993333249,48.7979808850872
243,1435993333970,42.7583132651493
244,1435993334688,48.7017490003024
245,1435993335400,43.1333232790362
246,1435993336087,54.4730219448167
247,1435993336766,49.943636013678
248,1435993337487,62.5474946655303
249,1435993338223,48.2787274040042
250,1435993338892,47.0819110871327
251,1435993339620,45.6856874129109
252,1435993340388,47.7006122077188
253,1435993341111,48.1592304739313
254,1435993341834,57.4020853682793
255,1435993342514,49.0786056368328
256,1435993343302,47.8554462729453
257,1435993344026,47.1606832269503
258,1435993344741,46.1653010892878
259,1435993345466,52.3012064803933
260,1435993346212,48.590348302168
261,1435993346918,47.4394157972244
262,1435993347628,37.8297210363586
263,1435993348348,51.374059518516
264,1435993349065,38.6257296124266
265,1435993349791,53.3654429199628
266,1435993350531,47.4243245652719
267,1435993351248,48.0437504959847
268,1435993351919,54.8113422013321
269,1435993352636,40.4832606303913
270,1435993353381,45.0536718188759
271,1435993354105,41.8345135105479
272,1435993354827,46.1800986199031
273,1435993355560,55.7904079681186
274,1435993356351,54.116100160282
275,1435993357070,47.0543849328036
276,1435993357799,51.6423864939727
277,1435993358515,43.8482353314104
278,1435993359198,48.9410598321782
279,1435993359875,52.3229229626985
280,1435993360589,45.4570441270476
281,1435993361283,52.0966761351249
282,1435993361907,41.4386593230208
283,1435993362607,38.6120348107476
284,1435993363350,47.0491244322374
285,1435993364079,38.5515377814313
286,1435993364842,44.838745398227
287,1435993365563,66.0447033987174
288,1435993366274,41.423771122967
289,1435993366978,44.085015114636
290,1435993367647,65.8362205076251
291,1435993368383,61.0930274102572
292,1435993369065,49.8506634004139
293,1435993370669,44.2068993852611
294,1435993371383,56.4144934644092
295,1435993372106,52.302861882253
296,1435993372787,45.6016224080513
297,1435993373513,42.0485164936785
298,1435993374268,45.0570144882053
299,1435993375037,49.9805883817147
300,1435993375776,42.5393939691799
301,1435993376491,53.2140061479031
302,1435993377218,46.9758413811622
303,1435993377947,40.1646973460683
304,1435993378676,41.067195247728
305,1435993379379,47.6717001181759
306,1435993381073,39.9414189366953
307,1435993381714,43.2235304080943
308,1435993382376,48.430401617648
309,1435993383119,47.1157248690121
310,1435993383854,51.6287627140898
311,1435993384603,41.6086114997602
312,1435993385326,49.8385718935046
313,1435993386108,55.5959770700399
314,1435993386903,48.3227497104131
315,1435993387553,52.0164285590129
316,1435993388239,45.406610205991
317,1435993388921,45.4589130529579
318,1435993389665,51.5826221517645
319,1435993390385,58.4187245198782
320,1435993391104,62.3570222591334
321,1435993391839,50.431490306736
322,1435993392575,52.4051337818266
323,1435993393268,69.5854904308528
324,1435993393973,65.2729965541705
325,1435993395910,51.1110562380479
326,1435993396608,63.8963019007379
327,1435993397336,72.4093451348737
328,1435993398054,67.1403990048818
329,1435993398774,58.3321676468997
330,1435993399497,62.7256053343657
331,1435993400278,36.9752289800538
332,1435993400983,63.2624518250313
333,1435993401651,65.8530215323961
334,1435993402356,43.5434322122193
335,1435993402990,57.0113557992945
336,1435993404453,51.5799411823407
337,1435993405110,62.5891921910441
338,1435993405806,50.2267260540981
339,1435993406520,59.5284054430844
340,1435993407307,49.2891549287635
341,1435993408031,38.5171386128994
342,1435993408743,45.6928199778558
343,1435993409464,65.7385361548756
344,1435993410174,53.5775027197177
345,1435993410944,57.1733978769095
346,1435993411668,37.1944397263018
347,1435993412400,55.8306973921099
348,1435993413220,48.2837191382362
349,1435993413949,50.5742798127046
350,1435993414732,43.3972958443373
351,1435993415474,49.1712929933452
352,1435993416213,70.0291707044936
353,1435993416940,51.0850587286781
354,1435993417659,38.3986949155275
355,1435993418376,50.9082351970752
356,1435993419086,47.8659269550636
357,1435993419862,50.9612981789745
358,1435993420616,45.1354254001519
359,1435993421363,47.3846302653979
360,1435993422086,54.1394596530329
361,1435993422806,68.8999015741575
362,1435993423478,54.7588195072115
363,1435993424129,50.3307077115683
364,1435993424863,68.8684306958184
365,1435993425588,48.0323636456149
366,1435993426330,52.5245453554709
367,1435993427042,63.2950820529878
368,1435993427638,63.280746087406
369,1435993428343,51.0741557285846
370,1435993429067,44.7239339877086
371,1435993429806,48.04178231258
372,1435993430557,45.124266618906
373,1435993431299,55.6757496271437
374,1435993432018,42.4956364052049
375,1435993432731,45.6901108334078
376,1435993433421,51.8664405932073
377,1435993434060,63.9682028825905
378,1435993434784,63.5913514805996
379,1435993435542,60.7579907703828
380,1435993436310,72.5046771968699
381,1435993437037,51.8272191099722
382,1435993437741,68.5622424949188
383,1435993438496,49.8114694371973
384,1435993439191,45.2682894341104
385,1435993439936,48.7333067777259
386,1435993440720,54.9682871657771
387,1435993441459,49.6426520495267
388,1435993442209,70.2475316314474
389,1435993442921,44.6095751658713
390,1435993443594,42.3856901685644
391,1435993444291,42.1436425381983
392,1435993445073,69.228894423614
393,1435993445813,48.7784490429825
394,1435993446548,55.7326714837329
395,1435993447280,52.9698496139313
396,1435993448029,47.3250364407998
397,1435993448740,41.2468042703546
398,1435993449321,48.1691660957058
399,1435993450007,51.6552182326522
400,1435993450867,40.0293563173991
401,1435993451627,38.0814237306421
402,1435993452338,42.6454477030792
403,1435993453048,45.3368878761815
404,1435993453717,49.4424098072341
405,1435993454354,47.4741005884726
406,1435993455067,50.9010617188292
407,1435993455859,40.7669363205861
408,1435993456597,52.4363435526732
409,1435993457379,46.9241869966341
410,1435993458093,63.3408306393564
411,1435993458804,59.706456884091
412,1435993459544,65.5539536127649
413,1435993460271,44.4483455115944
414,1435993460992,44.7985268688741
415,1435993461725,42.8119894301543
416,1435993462464,48.4131569640157
417,1435993463197,44.3698774615355
418,1435993463919,48.0843476898025
419,1435993464561,37.1350913784852
420,1435993465307,37.5852266243287
421,1435993466033,60.1517385633371
422,1435993466743,50.6029109956491
423,1435993467470,50.6780821277266
424,1435993468190,37.4846998408086
425,1435993468925,65.0401088705889
426,1435993469638,62.4555527947916
427,1435993470366,50.0298328609741
428,1435993471088,52.6290966901494
429,1435993471800,52.5018943296301
430,1435993472524,47.0246053988169
431,1435993473310,45.8564351616616
432,1435993474034,48.4438148974173
433,1435993474741,69.2285938063705
434,1435993475354,61.9253013667449
435,1435993476047,68.8130497110413
436,1435993476765,54.150451609169
437,1435993477496,59.2346654400909
438,1435993478250,47.0547334288324
439,1435993478955,62.7634818287042
440,1435993479666,39.6392271583433
441,1435993480397,55.0411348229813
442,1435993481118,44.8720397898964
443,1435993481817,47.920711651281
444,1435993482537,48.6234507680919
445,1435993483276,44.8275462677457
446,1435993484000,43.6182559505743
447,1435993484718,43.2984174239498
448,1435993485410,51.4505655808512
449,1435993486116,57.0762681091974
450,1435993486868,51.6133581640137
451,1435993487586,46.7560184771931
452,1435993488161,42.5107988084986
453,1435993488720,47.1227341637006
454,1435993489263,49.4276648002046
455,1435993489827,48.4842131780726
456,1435993490526,48.8598831341105
457,1435993491308,51.1661729051637
458,1435993492103,54.3567387301002
459,1435993492688,47.0603928732831
460,1435993493250,41.716443586725
461,1435993493818,41.2215454930818
462,1435993494410,49.1294366331115
463,1435993495836,53.8000984265993
464,1435993496627,41.4710200240523
465,1435993497353,52.1198027770753
466,1435993498082,47.1990374357135
467,1435993498749,47.4681102036252
468,1435993499293,48.993125616481
469,1435993499846,48.0587896300372
470,1435993500405,43.344668189762
471,1435993501077,44.133614488822
472,1435993501864,50.4598213994899
473,1435993502497,42.4138019280069
474,1435993503067,54.357765675164
475,1435993503620,55.2265162716141
476,1435993504188,42.1679277573521
477,1435993504759,47.1505752563938
478,1435993506028,46.6227493147095
479,1435993506751,57.4813397932704
480,1435993507470,41.2396259382218
481,1435993508263,47.2566635155001
482,1435993508960,53.2398050113536
483,1435993509494,45.843325813944
484,1435993510046,46.9447718733392
485,1435993510595,42.4926964654747
486,1435993511140,55.6794151678789
487,1435993511823,50.0303229750852
488,1435993512538,42.7965463724362
489,1435993513253,49.1714969178018
490,1435993514028,56.7830701535068
491,1435993514695,40.1668053225813
492,1435993515267,42.7470085989587
493,1435993515826,38.2173434642085
494,1435993516406,35.3664645986579
495,1435993516960,49.3394589512321
496,1435993517544,52.4894648587808
497,1435993518580,55.5066064205244
498,1435993519236,43.3242286015626
499,1435993519949,47.1269672353494
500,1435993520656,52.0658254367458
501,1435993521425,43.4237329846304
502,1435993522152,49.354882445953
503,1435993522856,55.9908402937534
504,1435993523583,53.7403981843873
505,1435993524327,50.2197550556393
506,1435993525054,58.9263053790793
507,1435993525740,45.3483739510673
508,1435993526455,33.6242627446282
509,1435993527188,44.5209183419465
510,1435993527909,47.0779106768855
511,1435993528634,39.3230697676191
512,1435993529389,43.7499002949182
513,1435993530123,57.3847542431341
514,1435993530847,52.3836258043275
515,1435993531573,41.5243442954468
516,1435993532371,52.0423146920597
517,1435993533144,53.2947433744805
518,1435993533875,54.4919130963118
519,1435993534623,45.4740400088763
520,1435993535357,46.1690488479977
521,1435993536084,54.2771095693789
522,1435993536721,49.4359604143738
523,1435993537498,43.5333186644455
524,1435993538264,39.3554022928455
525,1435993538986,44.1390672633305
526,1435993539718,47.4080375754195
527,1435993540451,49.1848833879407
528,1435993541110,50.3088332024459
529,1435993541698,47.5444102685259
530,1435993542378,51.5672968153528
531,1435993543108,44.9598334247312
532,1435993543836,49.4231291583705
533,1435993544602,49.4261716295889
534,1435993545345,44.0947281396608
535,1435993546085,51.3687976079262
536,1435993546739,47.2870316526164
537,1435993547458,45.0621438884263
538,1435993548191,53.2339419449198
539,1435993548911,56.2294981382044
540,1435993549713,41.5138814566476
541,1435993550433,37.867219457986
542,1435993551141,35.4961239136817
543,1435993551864,46.2015080776596
544,1435993552608,41.9853128315552
545,1435993553365,45.7312505461183
546,1435993554089,38.2050478956394
547,1435993554845,42.2944507657271
548,1435993555617,44.4844862548999
549,1435993556347,47.4580026863929
550,1435993556984,44.0721617756166
551,1435993557745,40.2740149717345
552,1435993558477,38.3581857489338
553,1435993559240,49.0688677546808
554,1435993559964,44.3880098342715
555,1435993560737,48.8428095484118
556,1435993561461,41.4666142964685
557,1435993562211,33.7375734179595
558,1435993562938,53.0728972940732
559,1435993563676,46.3302286924222
560,1435993564389,45.9532749704658
561,1435993565133,50.4725141338665
562,1435993565873,47.0350059190459
563,1435993566549,44.2623068083472
564,1435993567214,53.5809594519788
565,1435993567948,42.9466385630396
566,1435993568675,47.2367293218581
567,1435993569396,44.0913210172679
568,1435993570085,49.180952884303
569,1435993570692,49.3180555734628
570,1435993571402,59.5671265628702
571,1435993572141,39.3969519709415
572,1435993572955,47.7648863735882
573,1435993574907,48.298824100532
574,1435993575644,47.7593820832973
575,1435993576334,56.9940625433767
