id,attr_time,attr_x,attr_y,attr_z
1,1436966160522,-15.74,-43.568,7.174
2,1436966160546,-15.74,-43.568,7.174
3,1436966160565,-15.74,-43.568,7.174
4,1436966160644,-15.74,-43.568,7.174
5,1436966160645,-15.74,-43.568,7.174
6,1436966160646,-15.74,-43.568,7.174
7,1436966160647,-15.74,-43.568,7.174
8,1436966160660,-15.74,-43.568,7.174
9,1436966160680,-15.74,-43.568,7.174
10,1436966160700,-15.74,-43.568,7.174
11,1436966160721,-15.74,-43.568,7.482
12,1436966160740,-15.74,-43.568,7.482
13,1436966160760,-15.74,-43.568,7.482
14,1436966160780,-15.74,-43.568,7.482
15,1436966160800,-15.74,-43.568,7.482
16,1436966160820,-15.74,-43.568,7.482
17,1436966160840,-15.74,-43.568,7.482
18,1436966160860,-15.74,-43.568,7.482
19,1436966160880,-15.74,-43.568,7.482
20,1436966160900,-15.74,-43.568,7.482
21,1436966160920,-15.74,-43.568,7.482
22,1436966160941,-15.74,-43.568,7.482
23,1436966160961,-16.044,-43.568,7.482
24,1436966160981,-16.044,-43.568,7.482
25,1436966161001,-16.044,-43.568,7.482
26,1436966161021,-16.044,-43.568,7.482
27,1436966161046,-16.044,-43.568,7.482
28,1436966161065,-16.044,-43.568,7.482
29,1436966161083,-16.044,-43.568,7.482
30,1436966161104,-16.044,-43.568,7.482
31,1436966161123,-16.044,-43.568,7.107
32,1436966161142,-16.044,-43.568,7.107
33,1436966161167,-16.044,-43.568,7.107
34,1436966161187,-16.044,-43.568,7.107
35,1436966161206,-16.044,-43.568,7.107
36,1436966161222,-16.044,-43.568,7.107
37,1436966161259,-16.044,-43.568,7.107
38,1436966161264,-16.044,-43.568,7.107
39,1436966161282,-15.74,-43.568,7.107
40,1436966161309,-15.74,-43.568,7.107
41,1436966161323,-15.74,-43.568,7.107
42,1436966161343,-15.74,-43.568,7.107
43,1436966161362,-15.74,-43.568,7.107
44,1436966161382,-15.74,-43.568,7.107
45,1436966161402,-15.74,-43.568,7.423
46,1436966161422,-15.74,-43.568,7.423
47,1436966161442,-15.74,-43.568,7.423
48,1436966161462,-15.74,-43.568,7.423
49,1436966161482,-15.74,-43.568,7.423
50,1436966161502,-15.74,-43.568,7.423
51,1436966161522,-15.74,-43.568,7.423
52,1436966161542,-15.74,-43.568,7.423
53,1436966161562,-15.74,-43.568,7.423
54,1436966161582,-15.74,-43.568,7.423
55,1436966161602,-15.74,-43.568,7.423
56,1436966161622,-15.74,-43.568,7.423
57,1436966161642,-15.74,-43.568,7.423
58,1436966161662,-15.74,-43.568,7.423
59,1436966161682,-15.74,-43.568,7.423
60,1436966161704,-15.74,-43.568,7.423
61,1436966161722,-15.74,-43.568,7.423
62,1436966161742,-15.74,-43.568,7.423
63,1436966161762,-15.74,-43.568,7.423
64,1436966161782,-15.74,-43.568,7.423
65,1436966161802,-15.74,-43.568,7.423
66,1436966161823,-15.74,-43.568,7.423
67,1436966161846,-15.74,-43.878,7.423
68,1436966161863,-15.74,-43.878,7.423
69,1436966161893,-15.74,-43.878,7.423
70,1436966161902,-15.74,-43.878,7.423
71,1436966161922,-15.74,-43.878,7.423
72,1436966161942,-15.74,-43.878,7.423
73,1436966161962,-15.74,-43.878,7.423
74,1436966161987,-15.74,-43.878,7.423
75,1436966162004,-15.74,-43.878,7.746
76,1436966162023,-15.74,-43.878,7.746
77,1436966162046,-15.74,-43.878,7.746
78,1436966162066,-15.74,-43.878,7.746
79,1436966162087,-15.74,-43.878,7.746
80,1436966162106,-15.74,-43.878,7.746
81,1436966162126,-15.74,-43.878,7.746
82,1436966162146,-15.74,-43.878,7.746
83,1436966162167,-15.74,-43.878,7.746
84,1436966162187,-15.74,-43.878,7.746
85,1436966162207,-15.74,-43.878,7.746
86,1436966162225,-15.74,-43.878,7.746
87,1436966162243,-15.74,-43.878,7.746
88,1436966162267,-15.74,-43.878,7.746
89,1436966162287,-15.74,-43.878,7.746
90,1436966162307,-15.74,-43.878,7.746
91,1436966162323,-15.74,-43.878,7.746
92,1436966162345,-15.74,-43.878,7.746
93,1436966162366,-15.74,-43.878,7.746
94,1436966162386,-15.74,-43.878,7.746
95,1436966162406,-15.74,-43.878,7.746
96,1436966162425,-15.74,-43.878,7.746
97,1436966162446,-15.74,-43.878,7.746
98,1436966162466,-15.74,-43.878,7.746
99,1436966162484,-15.74,-43.878,7.746
100,1436966162507,-15.74,-43.878,7.746
101,1436966162591,-15.74,-43.878,7.746
102,1436966162592,-15.74,-43.878,7.746
103,1436966162593,-15.74,-43.878,7.746
104,1436966162594,-15.74,-43.878,7.746
105,1436966162607,-15.74,-43.878,7.746
106,1436966162632,-15.74,-43.878,7.746
107,1436966162644,-15.74,-43.878,7.746
108,1436966162671,-15.74,-43.878,7.746
109,1436966162687,-15.74,-43.878,7.746
110,1436966162704,-15.74,-43.878,7.746
111,1436966162730,-15.74,-43.878,7.746
112,1436966162762,-15.74,-43.878,7.746
113,1436966162766,-15.74,-43.878,7.746
114,1436966162796,-15.74,-43.878,7.746
115,1436966162817,-15.74,-43.878,7.746
116,1436966162824,-15.74,-43.878,7.746
117,1436966162844,-15.74,-43.878,7.746
118,1436966162864,-15.74,-43.878,7.746
119,1436966162884,-15.74,-43.878,7.746
120,1436966162904,-15.74,-43.878,7.746
121,1436966162926,-15.74,-43.878,7.746
122,1436966162947,-15.74,-43.878,7.746
123,1436966162968,-15.74,-43.878,7.746
124,1436966162988,-15.74,-43.878,7.746
125,1436966163008,-15.74,-43.878,7.746
126,1436966163026,-15.74,-43.878,7.746
127,1436966163046,-15.74,-43.878,7.746
128,1436966163066,-15.74,-43.878,7.746
129,1436966163085,-15.74,-43.878,7.746
130,1436966163107,-15.74,-43.878,7.746
131,1436966163130,-15.74,-43.878,7.746
132,1436966163148,-15.74,-43.878,7.746
133,1436966163168,-15.74,-43.878,7.746
134,1436966163238,-15.74,-43.878,7.746
135,1436966163239,-15.74,-43.878,7.746
136,1436966163240,-15.74,-43.878,7.746
137,1436966163261,-15.74,-43.878,7.746
138,1436966163267,-15.74,-43.878,7.746
139,1436966163286,-15.74,-43.878,7.746
140,1436966163307,-15.74,-43.878,7.746
141,1436966163324,-15.74,-43.878,7.746
142,1436966163349,-15.74,-43.878,7.746
143,1436966163366,-15.74,-43.878,7.746
144,1436966163385,-15.74,-43.878,7.746
145,1436966163405,-15.74,-43.878,7.746
146,1436966163426,-15.74,-43.878,7.746
147,1436966163449,-15.74,-43.878,7.746
148,1436966163466,-15.74,-43.878,7.746
149,1436966163488,-15.74,-43.878,7.746
150,1436966163508,-15.74,-43.878,7.746
151,1436966163528,-15.74,-43.878,7.746
152,1436966163548,-15.74,-43.878,7.746
153,1436966163568,-15.74,-43.878,7.746
154,1436966163587,-15.74,-43.878,7.746
155,1436966163608,-15.74,-43.878,7.746
156,1436966163628,-15.74,-43.878,7.746
157,1436966163647,-15.74,-43.878,7.746
158,1436966163669,-15.74,-43.878,7.746
159,1436966163687,-15.74,-43.878,7.746
160,1436966163708,-15.74,-43.878,7.746
161,1436966163728,-15.74,-43.878,7.746
162,1436966163747,-15.74,-43.878,7.746
163,1436966163767,-15.74,-43.878,7.746
164,1436966163789,-15.74,-43.878,7.746
165,1436966163808,-15.74,-43.878,7.746
166,1436966163828,-15.74,-43.878,7.746
167,1436966163848,-15.74,-43.878,7.746
168,1436966163867,-15.74,-43.878,7.746
169,1436966163886,-15.74,-43.878,7.746
170,1436966163915,-15.74,-43.878,7.746
171,1436966163985,-15.74,-43.878,7.746
172,1436966163986,-15.74,-43.878,7.746
173,1436966163987,-15.74,-43.878,7.746
174,1436966163988,-15.414,-43.878,7.746
175,1436966164007,-15.414,-43.878,7.746
176,1436966164027,-15.414,-43.878,7.746
177,1436966164046,-15.414,-43.878,7.746
178,1436966164065,-15.414,-43.878,7.746
179,1436966164087,-15.414,-43.878,8.062
180,1436966164107,-15.414,-43.878,8.062
181,1436966164128,-15.414,-43.878,8.062
182,1436966164148,-15.414,-43.878,8.062
183,1436966164168,-15.414,-43.878,8.062
184,1436966164187,-15.414,-43.878,8.062
185,1436966164206,-15.414,-43.878,8.062
186,1436966164229,-15.414,-43.878,8.062
187,1436966164248,-15.414,-43.878,8.062
188,1436966164269,-15.414,-43.878,8.062
189,1436966164286,-15.414,-43.878,8.062
190,1436966164309,-15.414,-43.878,8.062
191,1436966164329,-15.414,-43.878,8.062
192,1436966164349,-15.414,-43.878,8.062
193,1436966164371,-15.414,-43.878,8.062
194,1436966164386,-15.414,-43.878,8.062
195,1436966164409,-15.739,-43.878,8.062
196,1436966164426,-15.739,-43.878,7.736
197,1436966164447,-15.739,-43.878,7.736
198,1436966164467,-15.739,-43.878,7.736
199,1436966164490,-15.739,-43.878,7.736
200,1436966164510,-15.739,-43.878,7.736
201,1436966164531,-15.739,-43.878,7.736
202,1436966164549,-15.739,-43.878,7.736
203,1436966164566,-15.739,-43.878,7.736
204,1436966164586,-15.739,-43.878,7.736
205,1436966164607,-15.739,-43.878,7.736
206,1436966164628,-15.739,-43.878,7.736
207,1436966164646,-15.739,-43.878,7.736
208,1436966164700,-15.739,-43.878,7.736
209,1436966164701,-15.739,-43.878,7.736
210,1436966164706,-15.739,-43.878,8.042
211,1436966164726,-15.739,-43.878,8.042
212,1436966164748,-15.739,-43.878,8.042
213,1436966164766,-15.739,-43.878,8.042
214,1436966164787,-15.739,-43.878,8.042
215,1436966164810,-15.739,-43.878,8.042
216,1436966164827,-15.739,-43.878,8.042
217,1436966164857,-15.739,-43.878,8.042
218,1436966164867,-15.739,-43.878,8.042
219,1436966164887,-15.739,-43.878,8.042
220,1436966164908,-15.739,-43.878,8.042
221,1436966164929,-15.739,-43.878,8.369
222,1436966164949,-15.739,-43.878,8.369
223,1436966164969,-15.739,-43.878,8.369
224,1436966164989,-15.739,-43.878,8.369
225,1436966165008,-15.739,-43.878,8.369
226,1436966165029,-15.739,-43.878,8.369
227,1436966165049,-15.393,-43.878,8.369
228,1436966165066,-15.393,-43.878,8.369
229,1436966165089,-15.393,-43.878,8.369
230,1436966165108,-15.393,-43.878,8.369
231,1436966165129,-15.393,-43.878,8.369
232,1436966165149,-15.393,-43.878,8.369
233,1436966165169,-15.393,-43.878,8.369
234,1436966165189,-15.393,-43.878,8.369
235,1436966165209,-15.393,-43.878,8.679
236,1436966165230,-15.393,-43.878,8.679
237,1436966165250,-15.393,-43.878,8.679
238,1436966165269,-15.393,-43.878,8.679
239,1436966165290,-15.393,-43.878,8.679
240,1436966165311,-15.393,-43.878,8.679
241,1436966165330,-15.393,-43.878,8.679
242,1436966165350,-15.393,-43.878,8.679
243,1436966165369,-15.393,-43.878,8.679
244,1436966165392,-15.393,-43.878,8.679
245,1436966165467,-15.393,-43.878,8.679
246,1436966165468,-15.393,-43.878,8.679
247,1436966165469,-15.393,-43.878,8.679
248,1436966165470,-15.393,-43.878,8.679
249,1436966165487,-15.393,-43.878,8.679
250,1436966165529,-15.393,-43.878,8.679
251,1436966165530,-15.393,-43.878,8.679
252,1436966165547,-15.393,-43.878,8.679
253,1436966165568,-15.393,-43.878,8.679
254,1436966165588,-15.393,-43.878,8.679
255,1436966165609,-15.393,-43.878,8.679
256,1436966165628,-15.393,-43.878,8.361
257,1436966165650,-15.393,-43.878,8.361
258,1436966165670,-15.393,-43.878,8.361
259,1436966165690,-15.393,-43.878,8.361
260,1436966165710,-15.393,-43.878,8.361
261,1436966165728,-15.393,-43.878,8.361
262,1436966165750,-15.393,-43.878,8.361
263,1436966165770,-15.393,-43.878,8.361
264,1436966165790,-15.393,-43.878,8.361
265,1436966165810,-15.393,-43.878,8.679
266,1436966165838,-15.393,-43.878,8.679
267,1436966165858,-15.393,-43.878,8.679
268,1436966165869,-15.393,-43.878,8.679
269,1436966165900,-15.393,-43.878,8.679
270,1436966165943,-15.393,-43.878,8.679
271,1436966165944,-15.393,-43.878,8.679
272,1436966165948,-15.393,-43.878,8.679
273,1436966165973,-15.393,-43.878,8.679
274,1436966165987,-15.393,-43.878,8.679
275,1436966166011,-15.393,-43.878,8.679
276,1436966166031,-15.393,-43.878,8.679
277,1436966166047,-15.393,-43.878,8.679
278,1436966166067,-15.393,-43.878,8.679
279,1436966166089,-15.393,-43.878,8.679
280,1436966166107,-15.393,-43.878,8.679
281,1436966166192,-15.393,-43.878,8.679
282,1436966166193,-15.393,-43.878,8.679
283,1436966166194,-15.393,-43.878,8.679
284,1436966166208,-15.393,-43.878,8.679
285,1436966166209,-15.393,-43.878,8.679
286,1436966166229,-15.393,-43.878,8.679
287,1436966166258,-15.393,-43.878,8.679
288,1436966166268,-15.393,-43.878,8.679
289,1436966166288,-15.393,-43.878,8.679
290,1436966166310,-15.393,-43.878,8.679
291,1436966166329,-15.393,-43.878,8.679
292,1436966166351,-15.393,-43.878,8.679
293,1436966166369,-15.393,-43.878,8.679
294,1436966166391,-15.393,-43.878,8.679
295,1436966166409,-15.393,-43.878,8.679
296,1436966166431,-15.393,-43.878,8.679
297,1436966166452,-15.393,-43.576,8.679
298,1436966166471,-15.393,-43.576,8.679
299,1436966166491,-15.393,-43.576,8.679
300,1436966166511,-15.393,-43.576,8.679
301,1436966166531,-15.393,-43.576,8.679
302,1436966166551,-15.393,-43.576,8.679
303,1436966166571,-15.393,-43.576,8.679
304,1436966166594,-15.71,-43.576,8.37
305,1436966166607,-15.71,-43.576,8.37
306,1436966166631,-15.71,-43.576,8.37
307,1436966166650,-15.71,-43.576,8.37
308,1436966166669,-15.71,-43.576,8.37
309,1436966166690,-15.71,-43.576,8.37
310,1436966166711,-15.71,-43.576,8.37
311,1436966166731,-15.71,-43.576,8.37
312,1436966166752,-15.71,-43.576,8.37
313,1436966166769,-15.71,-43.576,8.37
314,1436966166788,-15.71,-43.576,8.37
315,1436966166808,-15.71,-43.576,8.37
316,1436966166829,-15.71,-43.576,8.37
317,1436966166848,-15.71,-43.576,8.37
318,1436966166872,-15.71,-43.576,8.37
319,1436966166956,-15.71,-43.576,8.37
320,1436966166957,-15.71,-43.576,8.37
321,1436966166958,-15.71,-43.576,8.37
322,1436966166959,-15.71,-43.576,8.37
323,1436966166976,-15.71,-43.576,8.37
324,1436966166989,-15.71,-43.576,8.37
325,1436966167009,-15.71,-43.576,8.37
326,1436966167059,-15.71,-43.576,8.37
327,1436966167060,-15.71,-43.576,8.37
328,1436966167081,-15.403,-43.576,8.37
329,1436966167089,-15.403,-43.576,8.37
330,1436966167111,-15.403,-43.576,8.37
331,1436966167130,-15.403,-43.887,8.37
332,1436966167149,-15.403,-43.887,8.37
333,1436966167171,-15.403,-43.887,8.37
334,1436966167191,-15.403,-43.887,8.37
335,1436966167211,-15.403,-43.887,8.37
336,1436966167231,-15.403,-43.887,8.37
337,1436966167251,-15.403,-43.887,8.37
338,1436966167271,-15.403,-43.887,8.37
339,1436966167291,-15.403,-43.887,8.37
340,1436966167311,-15.403,-43.887,8.37
341,1436966167332,-15.403,-43.887,8.37
342,1436966167349,-15.403,-43.887,8.37
343,1436966167372,-15.403,-43.887,8.37
344,1436966167390,-15.403,-43.887,8.37
345,1436966167411,-15.403,-43.887,8.37
346,1436966167431,-15.403,-43.887,8.37
347,1436966167451,-15.403,-43.887,8.37
348,1436966167469,-15.403,-43.887,8.37
349,1436966167488,-15.403,-43.887,8.37
350,1436966167510,-15.403,-43.887,8.37
351,1436966167535,-15.403,-43.887,8.37
352,1436966167555,-15.403,-43.887,8.37
353,1436966167568,-15.403,-43.887,8.37
354,1436966167589,-15.403,-43.887,8.37
355,1436966167616,-15.403,-43.887,8.37
356,1436966167734,-15.403,-43.887,8.37
357,1436966167735,-15.403,-43.887,8.37
358,1436966167752,-15.403,-43.887,8.37
359,1436966167753,-15.403,-43.887,8.37
360,1436966167754,-15.403,-43.887,8.37
361,1436966167755,-15.403,-43.887,8.37
362,1436966167756,-15.403,-43.887,8.37
363,1436966167784,-15.403,-43.887,8.37
364,1436966167788,-15.403,-43.887,8.37
365,1436966167809,-15.403,-43.887,7.98
366,1436966167832,-15.403,-43.887,7.98
367,1436966167850,-15.403,-43.887,7.98
368,1436966167903,-15.403,-43.887,7.98
369,1436966167904,-15.403,-43.887,7.98
370,1436966167932,-15.403,-43.887,7.98
371,1436966167933,-15.403,-43.887,7.98
372,1436966167949,-15.403,-43.887,7.98
373,1436966167969,-15.403,-43.887,7.98
374,1436966167989,-15.403,-43.887,7.98
375,1436966168009,-15.403,-43.887,7.98
376,1436966168029,-15.403,-43.887,7.98
377,1436966168049,-15.403,-43.887,7.98
378,1436966168069,-15.403,-43.887,7.98
379,1436966168089,-15.403,-43.887,7.98
380,1436966168109,-15.403,-43.887,7.98
381,1436966168129,-15.403,-43.887,8.294
382,1436966168149,-15.403,-43.887,8.294
383,1436966168169,-15.403,-43.887,8.294
384,1436966168189,-15.403,-43.887,8.294
385,1436966168209,-15.403,-43.887,8.294
386,1436966168230,-15.403,-43.887,8.294
387,1436966168250,-15.403,-43.887,8.294
388,1436966168270,-15.403,-43.887,8.294
389,1436966168290,-15.403,-43.887,8.294
390,1436966168308,-15.403,-43.887,8.294
391,1436966168328,-15.403,-43.887,8.294
392,1436966168348,-15.403,-43.887,8.294
393,1436966168369,-15.403,-43.887,8.294
394,1436966168389,-15.403,-43.887,8.294
395,1436966168409,-15.403,-43.887,8.294
396,1436966168428,-15.403,-43.887,8.294
397,1436966168450,-15.403,-43.887,8.294
398,1436966168469,-15.403,-43.887,8.294
399,1436966168488,-15.403,-43.887,8.294
400,1436966168509,-15.403,-43.887,8.294
401,1436966168530,-15.403,-43.887,8.294
402,1436966168549,-15.403,-43.887,8.294
403,1436966168569,-15.074,-43.887,8.638
404,1436966168589,-15.074,-43.887,8.638
405,1436966168609,-15.074,-43.887,8.984
406,1436966168629,-15.074,-43.887,8.984
407,1436966168649,-15.074,-43.887,8.984
408,1436966168669,-15.074,-43.887,8.984
409,1436966168690,-15.074,-43.887,9.342
410,1436966168710,-14.764,-43.887,9.342
411,1436966168730,-14.764,-43.887,9.342
412,1436966168749,-14.764,-43.887,9.683
413,1436966168770,-14.764,-43.887,9.683
414,1436966168796,-14.764,-43.887,9.683
415,1436966168811,-14.764,-43.887,9.683
416,1436966168831,-14.764,-43.887,10.026
417,1436966168852,-14.764,-43.887,10.026
418,1436966168871,-14.764,-43.887,10.026
419,1436966168892,-14.764,-43.887,10.398
420,1436966168910,-14.764,-43.887,10.398
421,1436966168930,-14.764,-43.562,10.398
422,1436966168951,-14.764,-43.562,10.398
423,1436966168977,-15.075,-43.562,10.757
424,1436966168991,-15.075,-43.562,10.757
425,1436966169011,-15.075,-43.562,10.757
426,1436966169031,-15.075,-43.238,12.225
427,1436966169055,-15.472,-43.238,12.225
428,1436966169132,-15.472,-43.238,14.244
429,1436966169133,-15.472,-43.238,15.155
430,1436966169134,-15.908,-42.8,14.82
431,1436966169135,-15.908,-42.8,16.632
432,1436966169151,-16.25,-42.494,15.957
433,1436966169173,-16.25,-42.494,16.432
434,1436966169190,-16.644,-42.141,16.935
435,1436966169215,-16.97,-42.141,16.566
436,1436966169230,-17.311,-41.601,18.121
437,1436966169252,-17.311,-41.256,18.704
438,1436966169272,-18.142,-41.256,17.475
439,1436966169292,-18.615,-40.692,17.475
440,1436966169310,-18.615,-40.692,17.475
441,1436966169330,-18.615,-40.692,17.475
442,1436966169351,-18.615,-40.692,17.475
443,1436966169371,-18.615,-40.692,17.475
444,1436966169393,-18.615,-40.38,16.85
445,1436966169417,-18.15,-40.38,16.85
446,1436966169432,-18.15,-40.38,16.369
447,1436966169453,-17.378,-40.702,13.494
448,1436966169471,-16.354,-41.83,11.587
449,1436966169493,-15.844,-42.774,8.724
450,1436966169518,-15.023,-43.56,6.019
451,1436966169533,-13.159,-44.555,4.808
452,1436966169552,-12.101,-45.359,1.484
453,1436966169577,-9.826,-45.764,1.484
454,1436966169591,-8.11,-46.192,-0.032
455,1436966169614,-7.093,-46.525,-1.071
456,1436966169631,-7.093,-46.525,-1.071
457,1436966169650,-7.093,-46.525,-1.516
458,1436966169670,-8.157,-46.525,-1.516
459,1436966169697,-8.673,-46.525,-0.959
460,1436966169711,-8.673,-46.525,0.526
461,1436966169731,-9.742,-46.127,-0.492
462,1436966169751,-9.742,-46.127,1.264
463,1436966169779,-9.051,-46.127,1.612
464,1436966169843,-9.051,-46.127,1.136
465,1436966169844,-9.051,-46.127,1.136
466,1436966169845,-9.051,-46.127,1.136
467,1436966169852,-8.549,-46.127,-0.099
468,1436966169879,-9.225,-46.444,-1.01
469,1436966169891,-8.868,-46.444,-0.457
470,1436966169912,-8.868,-46.444,-0.457
471,1436966169933,-8.868,-46.444,0.17
472,1436966169951,-8.522,-46.444,1.73
473,1436966169973,-8.522,-46.444,3.399
474,1436966169991,-9.23,-46.444,6.861
475,1436966170013,-10.466,-46.444,10.308
476,1436966170031,-11.466,-45.98,12.716
477,1436966170053,-11.953,-45.98,14.662
478,1436966170074,-12.605,-44.877,14.662
479,1436966170091,-13.781,-44.194,15.238
480,1436966170114,-13.781,-43.832,15.887
481,1436966170131,-13.781,-43.832,15.887
482,1436966170153,-14.45,-43.832,12.828
483,1436966170173,-13.708,-44.14,11.375
484,1436966170194,-13.275,-44.506,8.789
485,1436966170213,-12.109,-44.506,7.994
486,1436966170238,-11.611,-44.938,6.275
487,1436966170251,-10.678,-44.938,3.349
488,1436966170273,-7.447,-45.7,2.606
489,1436966170294,-6.288,-45.7,1.005
490,1436966170315,-4.469,-46.095,-1.852
491,1436966170332,-2.83,-46.095,-3.515
492,1436966170352,-0.537,-46.095,-5.149
493,1436966170371,1.791,-46.095,-5.149
494,1436966170391,3.982,-46.095,-5.149
495,1436966170420,4.879,-46.095,-5.592
496,1436966170432,5.393,-46.095,-3.747
497,1436966170471,5.064,-46.095,-2.935
498,1436966170472,4.112,-46.095,-2.935
499,1436966170492,2.58,-46.095,-2.27
500,1436966170561,1.222,-46.539,-1.785
501,1436966170562,1.222,-46.539,-0.891
502,1436966170563,0.521,-46.539,0.856
503,1436966170571,-1.28,-46.539,1.489
504,1436966170593,-3.268,-46.888,0.158
505,1436966170612,-4.139,-46.888,1.187
506,1436966170631,-4.902,-46.888,-0.282
507,1436966170651,-4.902,-46.888,-2.618
508,1436966170672,-5.241,-46.888,-3.59
