id,attr_time,attr_x,attr_y,attr_z
1,1436966160529,-45.327,2.38,14.419
2,1436966160549,-45.327,2.38,14.419
3,1436966160566,-45.327,2.07,14.419
4,1436966160587,-45.327,2.07,14.419
5,1436966160607,-45.327,2.07,14.419
6,1436966160627,-45.327,2.07,14.419
7,1436966160649,-45.327,2.07,14.419
8,1436966160667,-45.327,2.07,14.419
9,1436966160687,-45.327,2.07,14.419
10,1436966160705,-45.327,2.07,14.419
11,1436966160728,-45.327,2.07,14.419
12,1436966160749,-45.327,2.07,14.419
13,1436966160770,-45.327,2.07,14.419
14,1436966160787,-45.327,1.747,14.419
15,1436966160806,-45.327,1.747,14.419
16,1436966160825,-45.327,1.747,14.419
17,1436966160847,-45.327,1.747,14.419
18,1436966160867,-45.327,1.747,14.419
19,1436966160886,-45.327,1.747,14.419
20,1436966160915,-45.327,1.747,14.419
21,1436966160935,-45.327,1.747,14.419
22,1436966160945,-45.327,1.747,14.419
23,1436966160967,-45.327,1.747,14.419
24,1436966160986,-45.327,1.747,14.419
25,1436966161007,-45.327,1.747,14.419
26,1436966161026,-45.327,1.747,14.419
27,1436966161049,-45.327,1.747,14.723
28,1436966161072,-45.327,1.747,14.723
29,1436966161087,-45.327,1.747,14.723
30,1436966161109,-45.327,1.747,14.723
31,1436966161127,-45.327,1.747,14.723
32,1436966161147,-45.327,1.747,14.723
33,1436966161169,-45.327,1.747,14.723
34,1436966161186,-45.327,1.747,14.723
35,1436966161207,-45.327,1.747,14.723
36,1436966161229,-45.327,1.747,14.723
37,1436966161246,-45.327,1.747,14.723
38,1436966161267,-45.327,1.747,14.723
39,1436966161287,-45.327,1.747,14.723
40,1436966161316,-45.327,1.747,14.723
41,1436966161326,-45.327,1.747,14.723
42,1436966161347,-45.327,1.747,14.723
43,1436966161369,-45.327,1.747,14.723
44,1436966161388,-45.327,1.747,14.723
45,1436966161409,-45.327,1.747,14.723
46,1436966161430,-45.327,1.747,14.723
47,1436966161452,-45.327,1.747,14.723
48,1436966161473,-45.327,1.747,14.723
49,1436966161495,-45.327,1.747,14.723
50,1436966161511,-45.327,1.747,14.723
51,1436966161527,-45.327,1.747,14.723
52,1436966161548,-45.327,1.747,14.723
53,1436966163312,-45.327,1.747,14.723
54,1436966163313,-45.327,1.747,14.723
55,1436966163314,-45.327,1.747,14.723
56,1436966163315,-45.327,1.747,14.723
57,1436966163316,-45.327,1.747,14.723
58,1436966163317,-45.327,1.747,14.723
59,1436966163318,-45.327,1.747,14.723
60,1436966163319,-45.327,1.747,14.723
61,1436966163320,-45.327,1.747,14.723
62,1436966163321,-45.327,1.747,14.723
63,1436966163322,-45.327,1.747,14.723
64,1436966163323,-45.327,1.747,14.723
65,1436966163337,-45.327,1.747,14.723
66,1436966163338,-45.327,1.747,14.723
67,1436966163339,-45.327,1.747,14.723
68,1436966163340,-45.327,1.747,14.723
69,1436966163341,-45.327,1.747,14.723
70,1436966163342,-45.327,1.747,14.723
71,1436966163343,-45.327,1.747,14.723
72,1436966163344,-45.327,1.747,14.723
73,1436966163345,-45.327,1.747,14.723
74,1436966163346,-45.327,1.747,14.723
75,1436966163347,-45.327,1.747,14.723
76,1436966163348,-45.327,1.747,14.723
77,1436966163349,-45.327,1.747,14.723
78,1436966163350,-45.327,1.747,14.723
79,1436966163351,-45.327,1.747,14.723
80,1436966163352,-45.327,1.747,14.723
81,1436966163353,-45.327,1.747,14.723
82,1436966163354,-45.327,1.747,14.723
83,1436966163355,-45.327,1.747,14.723
84,1436966163356,-45.327,1.747,14.723
85,1436966163357,-45.327,1.747,14.723
86,1436966163358,-45.327,1.747,14.723
87,1436966163359,-45.327,1.747,14.723
88,1436966163360,-45.327,1.747,14.723
89,1436966163361,-45.327,1.747,14.723
90,1436966163362,-45.327,1.747,14.723
91,1436966163363,-45.327,1.747,14.723
92,1436966163364,-45.327,1.747,14.723
93,1436966163365,-45.327,1.747,14.723
94,1436966163366,-45.327,1.747,14.723
95,1436966163367,-45.327,1.747,14.723
96,1436966163368,-45.327,1.747,14.723
97,1436966163369,-45.327,1.747,14.723
98,1436966163370,-45.327,1.747,14.723
99,1436966163371,-45.327,1.747,14.723
100,1436966163372,-45.327,1.747,14.723
101,1436966163373,-45.327,1.747,14.723
102,1436966163374,-45.327,1.747,14.723
103,1436966163375,-45.327,1.747,14.723
104,1436966163376,-45.327,1.747,14.723
105,1436966163377,-45.327,1.747,14.723
106,1436966163378,-45.327,1.747,14.723
107,1436966163379,-45.327,1.747,14.723
108,1436966163380,-45.639,1.747,14.723
109,1436966163381,-45.639,1.747,14.723
110,1436966163382,-45.639,1.747,14.723
111,1436966163383,-45.639,1.747,14.723
112,1436966163384,-45.639,1.747,14.723
113,1436966163385,-45.639,1.747,14.723
114,1436966163386,-45.639,1.747,14.723
115,1436966163387,-45.639,1.747,14.723
116,1436966163388,-45.639,1.747,14.723
117,1436966163389,-45.639,1.747,14.723
118,1436966163390,-45.639,1.747,14.723
119,1436966163391,-45.639,1.747,14.723
120,1436966163392,-45.639,1.747,14.723
121,1436966163393,-45.639,1.747,14.723
122,1436966163394,-45.639,1.747,14.723
123,1436966163395,-45.639,1.747,14.723
124,1436966163396,-45.639,1.747,14.723
125,1436966163397,-45.639,1.747,14.723
126,1436966163398,-45.639,1.747,14.723
127,1436966163399,-45.639,1.747,14.723
128,1436966163400,-45.639,1.747,14.723
129,1436966163401,-45.639,1.747,14.723
130,1436966163402,-45.639,1.747,14.723
131,1436966163403,-45.639,1.747,14.723
132,1436966163404,-45.639,1.747,14.723
133,1436966163405,-45.639,1.747,14.723
134,1436966163406,-45.639,1.747,14.723
135,1436966163407,-45.639,1.747,14.723
136,1436966163408,-45.639,1.747,14.723
137,1436966163409,-45.639,1.747,14.723
138,1436966163410,-45.639,1.747,14.723
139,1436966163411,-45.639,1.747,14.723
140,1436966163412,-45.639,1.747,14.723
141,1436966163413,-45.639,1.747,14.723
142,1436966163414,-45.639,1.747,14.723
143,1436966163415,-45.639,1.747,14.723
144,1436966163416,-45.639,1.747,14.723
145,1436966163417,-45.639,1.747,14.723
146,1436966163427,-45.639,1.747,14.723
147,1436966163447,-45.639,1.747,14.723
148,1436966163467,-45.639,1.747,14.723
149,1436966163487,-45.639,1.747,14.723
150,1436966163507,-45.639,1.747,14.723
151,1436966163527,-45.639,1.747,14.723
152,1436966163547,-45.639,1.747,14.723
153,1436966163567,-45.639,1.747,14.723
154,1436966163588,-45.639,1.747,15.087
155,1436966163612,-45.639,1.747,15.087
156,1436966163631,-45.639,1.747,15.087
157,1436966163652,-45.639,1.747,15.087
158,1436966163672,-45.639,1.428,15.405
159,1436966163690,-45.639,1.428,15.405
160,1436966163709,-45.639,1.428,15.405
161,1436966163729,-45.306,1.428,15.74
162,1436966163749,-45.306,1.428,15.74
163,1436966163769,-45.306,1.11,15.74
164,1436966163795,-45.306,1.11,16.2
165,1436966163815,-45.306,1.11,16.2
166,1436966163835,-45.306,0.796,16.627
167,1436966163850,-44.987,0.796,16.627
168,1436966163874,-44.987,0.796,17.039
169,1436966163953,-44.987,0.361,17.388
170,1436966163954,-44.987,0.361,17.973
171,1436966163955,-44.987,0.361,18.525
172,1436966163956,-44.622,-0.077,19.119
173,1436966163973,-44.622,-0.077,19.45
174,1436966163994,-44.622,-0.407,20.283
175,1436966164009,-44.294,-0.407,20.631
176,1436966164035,-44.294,-0.778,21.545
177,1436966164053,-44.294,-0.778,22.067
178,1436966164070,-43.954,-1.164,22.633
179,1436966164091,-43.954,-1.164,23.126
180,1436966164110,-43.647,-1.533,23.567
181,1436966164134,-43.647,-1.533,24.266
182,1436966164152,-43.328,-1.908,24.266
183,1436966164172,-43.328,-1.908,25.093
184,1436966164192,-42.971,-2.233,25.45
185,1436966164212,-42.971,-2.233,26.118
186,1436966164232,-42.182,-2.233,27.154
187,1436966164254,-41.467,-2.59,28.062
188,1436966164272,-40.806,-2.59,28.601
189,1436966164292,-42.059,-2.59,29.846
190,1436966164312,-40.155,-2.59,29.846
191,1436966164334,-39.497,-2.59,30.508
192,1436966164349,-39.141,-2.59,31.14
193,1436966164373,-38.697,-2.59,31.831
194,1436966164393,-37.965,-2.59,32.417
195,1436966164413,-37.297,-2.59,32.905
196,1436966164433,-36.753,-2.59,33.7
197,1436966164450,-36.343,-2.59,34.213
198,1436966164471,-36.033,-2.59,34.73
199,1436966164493,-35.644,-2.201,35.421
200,1436966164511,-34.963,-2.201,35.421
201,1436966164536,-34.588,-1.76,35.725
202,1436966164554,-33.892,-1.223,35.725
203,1436966164573,-33.892,-0.357,35.725
204,1436966164595,-33.892,0.682,35.725
205,1436966164613,-33.297,2.111,36.238
206,1436966164675,-33.297,3.491,35.264
207,1436966164676,-34.107,4.528,35.264
208,1436966164677,-34.515,5.587,34.881
209,1436966164695,-34.515,6.539,34.17
210,1436966164710,-35.136,6.539,34.17
211,1436966164730,-35.136,7.368,33.676
212,1436966164749,-35.54,7.368,32.731
213,1436966164776,-35.54,6.887,31.953
214,1436966164791,-36.314,6.887,30.993
215,1436966164811,-37.168,6.585,30.079
216,1436966164832,-38.015,6.585,28.935
217,1436966164866,-39.215,5.924,27.363
218,1436966164902,-39.909,5.047,26.124
219,1436966164903,-40.486,5.047,26.124
220,1436966164909,-40.09,5.047,26.605
221,1436966164933,-39.363,5.047,28.37
222,1436966164953,-39.363,4.301,28.889
223,1436966164972,-40.084,3.115,27.595
224,1436966164990,-40.084,1.432,26.84
225,1436966165013,-40.084,0.495,26.84
226,1436966165033,-40.084,-0.289,28.117
227,1436966165054,-40.084,-0.885,27.529
228,1436966165071,-40.084,-2.038,27.529
229,1436966165091,-40.084,-2.809,27.154
230,1436966165115,-40.084,-3.117,27.154
231,1436966165130,-40.084,-3.117,27.154
232,1436966165154,-40.084,-2.491,27.154
233,1436966165173,-40.512,-1.715,26.789
234,1436966165194,-40.512,-1.278,26.789
235,1436966165213,-40.892,-0.95,26.219
236,1436966165233,-40.892,-0.619,25.288
237,1436966165254,-40.892,0.09,24.346
238,1436966165273,-41.302,0.09,22.9
239,1436966165295,-41.302,-1.094,24.278
240,1436966165313,-41.302,-2.027,25.93
241,1436966165334,-41.302,-1.567,26.448
242,1436966165355,-41.302,-1.074,25.891
243,1436966165372,-41.302,-0.64,25.891
244,1436966165392,-41.302,0.302,25.891
245,1436966165484,-41.302,1.292,26.965
246,1436966165485,-41.302,2.874,26.965
247,1436966165486,-41.302,4.57,26.965
248,1436966165487,-41.302,5.895,26.184
249,1436966165577,-41.302,6.388,25.686
250,1436966165578,-41.302,6.889,25.37
251,1436966165579,-41.302,6.889,25.37
252,1436966165580,-41.302,6.43,24.42
253,1436966165581,-41.302,6.43,24.42
254,1436966165602,-41.302,6.057,23.718
255,1436966165610,-41.302,5.581,23.278
256,1436966165637,-41.302,5.581,22.869
257,1436966165655,-41.302,4.841,22.515
258,1436966165674,-41.302,4.841,22.515
259,1436966165694,-41.302,5.143,22.094
260,1436966165710,-41.302,6.187,23.272
261,1436966165734,-41.302,6.187,23.272
262,1436966165754,-41.302,4.891,22.077
263,1436966165774,-41.302,4.457,21.731
264,1436966165794,-41.302,3.918,22.933
265,1436966165814,-41.616,3.327,23.663
266,1436966165833,-41.616,2.076,24.798
267,1436966165854,-41.616,-0.068,24.351
268,1436966165873,-41.616,-1.087,24.351
269,1436966165894,-41.961,-1.708,24.037
270,1436966165915,-41.961,-1.708,24.037
271,1436966165934,-41.961,-1.708,23.526
272,1436966165954,-41.961,-1.225,23.526
273,1436966165974,-41.961,-1.225,23.526
274,1436966165994,-41.961,-0.422,23.526
275,1436966166015,-41.961,-0.106,23.023
276,1436966166034,-41.961,0.469,22.569
277,1436966166054,-42.266,0.932,22.569
278,1436966166071,-42.266,0.575,22.569
279,1436966166092,-42.266,-0.587,23.504
280,1436966166113,-42.266,-1.637,24.371
281,1436966166144,-42.266,-0.617,24.371
282,1436966166193,-42.266,0.262,24.371
283,1436966166194,-42.266,0.752,24.371
284,1436966166196,-41.914,1.286,25.022
285,1436966166211,-41.914,2.438,27.217
286,1436966166235,-41.601,3.71,27.906
287,1436966166273,-41.601,5.105,26.766
288,1436966166274,-41.601,6.282,25.382
289,1436966166315,-41.601,7.514,24.168
290,1436966166316,-41.601,7.514,24.168
291,1436966166331,-41.601,7.514,24.168
292,1436966166359,-41.601,7.212,23.66
293,1436966166383,-41.601,7.212,22.871
294,1436966166394,-41.601,7.212,22.871
295,1436966166412,-41.601,6.739,21.284
296,1436966166431,-41.601,6.048,21.284
297,1436966166453,-41.601,5.531,21.284
298,1436966166473,-41.256,6.101,21.783
299,1436966166495,-41.256,6.788,22.474
300,1436966166513,-41.256,6.213,22.132
301,1436966166533,-41.256,4.562,21.295
302,1436966166553,-41.648,3.616,22.424
303,1436966166574,-41.648,2.351,23.492
304,1436966166598,-41.648,1.467,24.916
305,1436966166615,-41.648,-0.033,25.379
306,1436966166633,-41.648,-1.062,24.56
307,1436966166654,-41.967,-2.395,23.587
308,1436966166675,-41.967,-2.745,23.216
309,1436966166694,-41.967,-2.745,23.216
310,1436966166715,-41.967,-2.745,22.795
311,1436966166732,-42.332,-2.41,22.474
312,1436966166754,-42.332,-2.096,22.474
313,1436966166775,-42.332,-2.096,21.969
314,1436966166794,-42.332,-1.762,21.603
315,1436966166815,-42.66,-1.316,21.267
316,1436966166834,-42.66,-1.316,21.267
317,1436966166855,-42.66,-2.584,22.196
318,1436966166873,-42.66,-3.694,23.828
319,1436966166901,-42.66,-3.276,24.253
320,1436966166957,-42.66,-1.858,23.411
321,1436966166958,-42.66,-0.856,23.411
322,1436966166959,-42.66,-0.856,22.796
323,1436966166976,-42.66,0.155,23.829
324,1436966166992,-42.66,1.423,23.829
325,1436966167020,-42.66,2.859,23.829
326,1436966167033,-42.66,4.756,23.829
327,1436966167054,-42.66,5.624,23.129
328,1436966167074,-42.356,6.193,22.622
329,1436966167092,-42.356,6.781,22.622
330,1436966167113,-42.356,7.177,22.622
331,1436966167133,-42.356,7.177,22.622
332,1436966167152,-42.356,7.177,22.622
333,1436966167172,-41.986,7.563,22.622
334,1436966167195,-41.986,7.131,22.622
335,1436966167215,-41.986,6.437,22.032
336,1436966167235,-41.986,5.816,22.032
337,1436966167254,-41.986,5.816,22.032
338,1436966167274,-41.986,6.796,22.622
339,1436966167295,-41.986,5.621,23.033
340,1436966167315,-41.986,4.267,23.033
341,1436966167335,-41.986,3.401,23.033
342,1436966167354,-41.668,3.401,23.554
343,1436966167374,-41.668,2.641,24.395
344,1436966167395,-41.668,1.763,24.395
345,1436966167414,-41.668,0.169,24.395
346,1436966167433,-41.668,-1.034,24.395
347,1436966167456,-41.668,-1.034,24.395
348,1436966167474,-41.668,-1.034,23.831
349,1436966167495,-41.668,-0.399,23.831
350,1436966167513,-41.668,0.009,23.831
351,1436966167534,-41.668,0.009,22.886
352,1436966167559,-41.668,0.317,22.886
353,1436966167574,-42.034,0.317,22.561
354,1436966167592,-42.034,1.136,22.128
355,1436966167614,-42.034,0.358,22.586
356,1436966167715,-42.034,-1.19,24.142
357,1436966167716,-42.034,-1.565,25.039
358,1436966167717,-42.034,-0.213,25.039
359,1436966167718,-42.034,0.332,24.467
360,1436966167719,-42.034,-0.001,24.467
361,1436966167734,-42.034,-0.001,25.41
362,1436966167753,-42.034,-0.001,25.41
363,1436966167774,-42.034,0.828,25.41
364,1436966167792,-42.034,2.392,24.668
365,1436966167814,-42.034,3.689,24.668
366,1436966167833,-42.034,4.069,23.738
367,1436966167858,-42.034,4.627,23.303
368,1436966167873,-42.034,4.627,22.795
369,1436966167893,-42.034,5.203,22.795
370,1436966167914,-42.034,5.203,22.795
371,1436966167932,-42.034,4.89,22.795
372,1436966167956,-42.034,4.89,22.369
373,1436966167975,-42.034,3.858,22.369
374,1436966167996,-42.034,3.858,21.774
375,1436966168014,-42.034,3.858,22.19
376,1436966168036,-42.034,4.606,23.054
377,1436966168056,-42.034,3.958,23.489
378,1436966168076,-42.034,2.923,23.489
379,1436966168093,-42.034,2.12,23.17
380,1436966168116,-42.034,1.539,23.663
381,1436966168133,-42.034,0.82,24.308
382,1436966168153,-42.034,-0.253,24.308
383,1436966168174,-42.034,-2.082,24.308
384,1436966168198,-42.034,-2.935,24.308
385,1436966168218,-42.034,-3.497,23.899
386,1436966168239,-42.034,-3.497,23.506
387,1436966168256,-42.034,-3.497,23.506
388,1436966168275,-42.034,-2.94,23.1
389,1436966168293,-42.034,-2.462,23.1
390,1436966168313,-42.034,-2.462,23.1
391,1436966168335,-42.337,-2.462,23.1
392,1436966168353,-42.337,-2.462,23.1
393,1436966168406,-42.337,-2.462,23.1
394,1436966168407,-42.337,-4.043,23.693
395,1436966168426,-42.337,-4.522,23.693
396,1436966168433,-42.337,-3.579,24.71
397,1436966168456,-42.337,-1.902,24.71
398,1436966168495,-42.337,-1.315,25.07
399,1436966168496,-41.99,-0.837,25.07
400,1436966168514,-41.99,-0.198,27.337
401,1436966168534,-41.99,0.607,28.123
402,1436966168553,-41.459,1.788,27.011
403,1436966168573,-41.459,3.691,25.64
404,1436966168594,-41.459,4.785,25.244
405,1436966168647,-41.459,6.004,24.554
406,1436966168648,-41.459,6.004,24.198
407,1436966168656,-41.459,6.004,23.774
408,1436966168673,-41.459,6.004,23.336
409,1436966168693,-41.459,6.004,22.718
410,1436966168761,-41.459,6.004,21.945
411,1436966168762,-41.459,5.384,21.945
412,1436966168763,-41.459,4.682,21.177
413,1436966168773,-41.459,5.058,22.103
414,1436966168793,-41.459,6.123,22.625
415,1436966168815,-41.459,6.123,22.257
416,1436966168834,-41.459,4.199,21.67
417,1436966168858,-41.459,2.891,22.352
418,1436966168875,-41.459,2.093,22.874
419,1436966168896,-41.459,1.637,24.385
420,1436966168913,-41.459,0.996,24.928
421,1436966170228,-41.807,-0.265,24.208
422,1436966170229,-41.807,-1.472,24.208
423,1436966170230,-41.807,-1.472,23.303
424,1436966170231,-41.807,-2.128,23.303
425,1436966170232,-42.164,-2.128,22.909
426,1436966170233,-42.164,-2.128,22.909
427,1436966170234,-42.164,-1.261,22.909
428,1436966170235,-42.164,-0.929,22.909
429,1436966170236,-42.164,-0.596,22.909
430,1436966170237,-42.164,-0.596,22.909
431,1436966170238,-42.164,-0.912,22.909
432,1436966170239,-42.164,-2.024,23.345
433,1436966170240,-42.164,-3.105,23.741
434,1436966170241,-42.164,-2.777,24.485
435,1436966170242,-42.164,-1.391,24.485
436,1436966170243,-42.164,-0.881,24.485
437,1436966170244,-42.164,-0.881,24.485
438,1436966170245,-42.164,-0.453,25.273
439,1436966170246,-41.818,0.393,26.306
440,1436966170247,-41.818,1.538,26.306
441,1436966170248,-41.818,2.891,25.785
442,1436966170249,-41.818,4.103,25.37
443,1436966170250,-41.818,5.366,24.757
444,1436966170251,-41.818,6.143,24.351
445,1436966170252,-41.818,6.584,23.989
446,1436966170253,-41.818,6.584,23.989
447,1436966170254,-41.818,6.584,23.063
448,1436966170255,-41.818,6.584,22.303
449,1436966170256,-41.818,5.906,21.453
450,1436966170257,-41.818,5.392,21.453
451,1436966170258,-41.818,5.392,22.026
452,1436966170259,-41.818,5.392,22.83
453,1436966170260,-41.818,5.392,22.83
454,1436966170261,-41.818,4.182,23.539
455,1436966170262,-41.818,3.155,23.028
456,1436966170263,-41.818,2.618,24.098
457,1436966170264,-41.818,2.618,24.098
458,1436966170265,-41.818,2.117,24.853
459,1436966170266,-41.818,0.978,24.307
460,1436966170267,-42.19,0.088,23.999
461,1436966170268,-42.19,-0.77,23.629
462,1436966170269,-42.19,-0.77,23.202
463,1436966170270,-42.19,-0.193,23.202
464,1436966170271,-42.504,-0.193,23.202
465,1436966170272,-42.504,0.404,22.746
466,1436966170273,-42.504,0.799,22.746
467,1436966170274,-42.504,0.799,22.369
468,1436966170275,-42.504,0.799,22.369
469,1436966170276,-42.504,0.799,22.048
470,1436966170277,-42.504,-0.794,22.879
471,1436966170278,-42.504,-1.669,23.483
472,1436966170279,-42.504,-1.248,23.483
473,1436966170280,-42.504,0.042,23.483
474,1436966170281,-42.81,0.042,23.483
475,1436966170282,-42.81,0.398,23.902
476,1436966170283,-42.81,0.708,24.501
477,1436966170284,-42.81,1.867,24.992
478,1436966170285,-42.81,2.958,24.992
479,1436966170286,-42.81,4.646,24.363
480,1436966170287,-42.81,5.099,24.363
481,1436966170288,-42.81,6.005,23.721
482,1436966170289,-42.81,6.005,23.414
483,1436966170290,-42.81,6.005,23.414
484,1436966170291,-42.468,5.635,23.043
485,1436966170292,-42.468,5.635,22.605
486,1436966170293,-42.468,5.635,22.605
487,1436966170294,-42.468,5.635,22.605
488,1436966170295,-42.468,4.666,22.242
489,1436966170296,-42.468,4.098,22.242
490,1436966170313,-42.468,5.029,23.051
491,1436966170333,-42.468,5.674,23.051
492,1436966170353,-42.468,4.469,23.051
493,1436966170373,-42.468,3.579,23.051
494,1436966170393,-42.468,2.261,23.051
495,1436966170413,-42.468,1.043,23.861
496,1436966170433,-42.468,0.129,24.496
497,1436966170453,-42.468,-1.362,24.496
498,1436966170473,-42.468,-2.755,24.496
499,1436966170493,-42.468,-3.894,24.496
500,1436966170513,-42.468,-4.441,23.889
501,1436966170535,-42.468,-4.441,23.347
502,1436966170556,-42.468,-4.054,23.347
503,1436966170575,-42.468,-4.054,23.347
504,1436966170594,-42.468,-3.393,23.753
505,1436966170616,-42.468,-3.393,23.753
506,1436966170634,-42.468,-2.969,23.384
507,1436966170655,-42.468,-2.374,23.384
508,1436966170675,-42.468,-2.737,22.836
509,1436966170695,-42.468,-4.765,23.968
510,1436966170716,-42.468,-5.674,25.367
511,1436966170736,-42.468,-4.032,26.879
512,1436966170766,-42.468,-2.249,26.284
513,1436966170846,-42.097,-1.878,25.949
514,1436966170847,-42.097,-1.878,25.949
