id,attr_time,attr_x,attr_y,attr_z
1,1436970288138,24.089,-16.792,-38.296
2,1436970288160,24.089,-16.792,-38.296
3,1436970288180,23.785,-16.792,-38.296
4,1436970288200,23.785,-16.792,-38.296
5,1436970288220,23.785,-16.792,-38.296
6,1436970288241,23.785,-16.792,-38.296
7,1436970288262,23.785,-16.792,-38.296
8,1436970288280,23.785,-16.792,-38.604
9,1436970288301,23.785,-16.792,-38.604
10,1436970288322,23.785,-16.792,-38.604
11,1436970288340,23.785,-16.792,-38.604
12,1436970288361,23.785,-16.792,-38.604
13,1436970288382,23.785,-16.792,-38.604
14,1436970288399,23.785,-16.792,-38.604
15,1436970288421,23.785,-16.792,-38.604
16,1436970288441,23.785,-16.792,-38.604
17,1436970288458,23.785,-16.792,-38.604
18,1436970288482,23.785,-16.792,-38.604
19,1436970288498,23.785,-16.792,-38.604
20,1436970288521,23.785,-16.792,-38.604
21,1436970288539,23.785,-16.792,-38.604
22,1436970288561,23.785,-16.792,-38.604
23,1436970288582,23.785,-16.792,-38.604
24,1436970288599,23.785,-16.792,-38.604
25,1436970288622,23.785,-16.792,-38.604
26,1436970288642,23.785,-16.792,-38.604
27,1436970288659,23.785,-16.792,-38.604
28,1436970288679,23.785,-16.792,-38.604
29,1436970288700,23.785,-16.792,-38.604
30,1436970288722,23.785,-16.792,-38.604
31,1436970288785,23.785,-16.792,-38.604
32,1436970288786,23.785,-16.792,-38.604
33,1436970288787,23.785,-16.792,-38.604
34,1436970288803,23.785,-16.792,-38.604
35,1436970288828,23.785,-16.792,-38.604
36,1436970288840,23.785,-16.792,-38.604
37,1436970288873,23.785,-16.792,-38.604
38,1436970288880,23.785,-16.792,-38.604
39,1436970288903,23.785,-16.792,-38.604
40,1436970288920,23.785,-16.792,-38.604
41,1436970288940,23.785,-16.792,-38.604
42,1436970288963,23.785,-16.792,-38.604
43,1436970288979,23.785,-16.792,-38.604
44,1436970289002,23.785,-16.792,-38.604
45,1436970289023,23.785,-16.792,-38.604
46,1436970289041,23.785,-16.792,-38.604
47,1436970289060,23.785,-16.792,-38.604
48,1436970289081,23.785,-16.792,-38.604
49,1436970289101,23.785,-16.792,-38.604
50,1436970289123,23.785,-16.792,-38.604
51,1436970289142,23.785,-16.792,-38.604
52,1436970289161,23.785,-16.792,-38.604
53,1436970289183,23.785,-16.792,-38.604
54,1436970289202,23.785,-16.792,-38.604
55,1436970289222,23.454,-16.792,-38.604
56,1436970289243,23.454,-16.792,-38.604
57,1436970289261,23.454,-16.792,-38.604
58,1436970289281,23.454,-16.792,-38.604
59,1436970289302,23.454,-16.792,-38.604
60,1436970289321,23.454,-16.792,-38.604
61,1436970289342,23.454,-16.792,-38.604
62,1436970289363,23.454,-16.792,-38.604
63,1436970289383,23.454,-16.792,-38.604
64,1436970289404,23.454,-16.792,-38.604
65,1436970289431,23.454,-16.792,-38.604
66,1436970289500,23.454,-16.792,-38.604
67,1436970289501,23.454,-16.792,-38.604
68,1436970289502,23.454,-16.792,-38.604
69,1436970289503,23.454,-16.792,-38.604
70,1436970289521,23.454,-16.792,-38.604
71,1436970289545,23.454,-16.792,-38.604
72,1436970289563,23.454,-16.792,-38.604
73,1436970289579,23.454,-16.792,-38.604
74,1436970289602,23.454,-16.792,-38.604
75,1436970289619,23.454,-16.792,-38.604
76,1436970289644,23.454,-16.792,-38.604
77,1436970289663,23.454,-16.792,-38.604
78,1436970289680,23.454,-16.792,-38.604
79,1436970289703,23.136,-16.792,-38.604
80,1436970289723,23.136,-16.792,-38.604
81,1436970289743,23.136,-16.792,-38.604
82,1436970289763,23.136,-16.792,-38.604
83,1436970289783,23.136,-16.792,-38.604
84,1436970289803,23.136,-16.792,-38.604
85,1436970289823,23.136,-16.792,-38.604
86,1436970289842,23.136,-16.792,-38.604
87,1436970289863,23.136,-16.792,-38.604
88,1436970289885,23.136,-16.792,-38.604
89,1436970289900,23.136,-16.792,-38.604
90,1436970289923,23.136,-16.792,-38.604
91,1436970289943,23.136,-16.792,-38.604
92,1436970289963,23.136,-16.792,-38.604
93,1436970289983,23.136,-16.792,-38.604
94,1436970290003,23.136,-16.792,-38.604
95,1436970290023,23.437,-16.792,-38.604
96,1436970290043,23.437,-16.792,-38.604
97,1436970290063,23.437,-16.792,-38.604
98,1436970290083,23.437,-16.792,-38.604
99,1436970290104,23.437,-16.792,-38.604
100,1436970290124,23.437,-16.792,-38.604
101,1436970290143,23.437,-16.792,-38.604
102,1436970290163,23.437,-16.792,-38.604
103,1436970290242,23.437,-16.792,-38.604
104,1436970290243,23.437,-16.792,-38.604
105,1436970290244,23.437,-16.792,-38.604
106,1436970290245,23.437,-16.792,-38.604
107,1436970290265,23.437,-16.792,-38.604
108,1436970290287,23.437,-16.792,-38.604
109,1436970290304,23.437,-16.792,-38.604
110,1436970290320,23.437,-16.792,-38.604
111,1436970290341,23.437,-16.792,-38.604
112,1436970290360,23.437,-16.792,-38.604
113,1436970290385,23.437,-16.792,-38.604
114,1436970290410,23.437,-16.792,-38.604
115,1436970290426,23.437,-16.792,-38.604
116,1436970290443,23.437,-16.792,-38.604
117,1436970290463,23.437,-16.792,-38.604
118,1436970290483,23.437,-16.792,-38.604
119,1436970290504,23.437,-16.792,-38.604
120,1436970292104,23.437,-16.792,-38.604
121,1436970292105,23.437,-16.792,-38.604
122,1436970292106,23.437,-16.792,-38.604
123,1436970292107,23.437,-16.792,-38.604
124,1436970292108,23.437,-16.792,-38.604
125,1436970292109,23.437,-16.792,-38.604
126,1436970292110,23.437,-16.792,-38.604
127,1436970292111,23.757,-16.792,-38.604
128,1436970292112,23.757,-16.792,-38.604
129,1436970292113,23.757,-16.792,-38.604
130,1436970292114,23.757,-16.792,-38.604
131,1436970292115,23.757,-16.792,-38.604
132,1436970292116,23.757,-16.792,-38.604
133,1436970292117,23.757,-16.792,-38.604
134,1436970292118,23.757,-16.792,-38.604
135,1436970292119,23.757,-16.792,-38.604
136,1436970292120,23.757,-16.792,-38.604
137,1436970292121,23.757,-16.792,-38.604
138,1436970292122,23.757,-16.792,-38.604
139,1436970292123,23.757,-16.792,-38.604
140,1436970292124,23.757,-16.792,-38.604
141,1436970292125,23.757,-16.792,-38.604
142,1436970292126,23.757,-16.792,-38.604
143,1436970292127,23.757,-16.792,-38.604
144,1436970292128,23.757,-16.792,-38.604
145,1436970292129,23.757,-16.792,-38.604
146,1436970292130,23.757,-16.792,-38.604
147,1436970292131,23.439,-16.792,-38.604
148,1436970292132,23.439,-16.792,-38.604
149,1436970292133,23.439,-16.792,-38.604
150,1436970292134,23.439,-16.792,-38.604
151,1436970292135,23.439,-16.792,-38.604
152,1436970292136,23.439,-16.792,-38.301
153,1436970292137,23.439,-16.792,-38.301
154,1436970292138,23.439,-16.792,-38.301
155,1436970292139,23.439,-16.792,-38.301
156,1436970292140,23.439,-16.792,-38.301
157,1436970292141,23.439,-16.792,-38.301
158,1436970292142,23.439,-16.792,-38.301
159,1436970292143,23.439,-16.792,-38.301
160,1436970292144,23.439,-16.792,-38.301
161,1436970292145,23.439,-16.792,-38.301
162,1436970292146,23.439,-16.792,-38.301
163,1436970292147,23.439,-16.792,-38.301
164,1436970292148,23.439,-16.792,-38.301
165,1436970292149,23.439,-16.792,-38.301
166,1436970292150,23.439,-16.792,-38.301
167,1436970292151,23.439,-16.792,-38.301
168,1436970292152,23.439,-16.792,-38.301
169,1436970292153,23.439,-16.792,-38.301
170,1436970292154,23.439,-16.792,-38.301
171,1436970292155,23.439,-16.792,-38.301
172,1436970292156,23.439,-16.792,-38.604
173,1436970292157,23.439,-16.792,-38.604
174,1436970292158,23.439,-16.792,-38.604
175,1436970292159,23.439,-16.792,-38.604
176,1436970292160,23.439,-16.792,-38.604
177,1436970292161,23.439,-16.792,-38.604
178,1436970292162,23.439,-16.792,-38.604
179,1436970292163,23.439,-16.792,-38.952
180,1436970292164,23.439,-16.792,-38.952
181,1436970292165,23.439,-16.792,-38.952
182,1436970292166,23.439,-16.792,-38.952
183,1436970292167,23.439,-16.792,-38.952
184,1436970292168,23.439,-16.792,-38.952
185,1436970292169,23.439,-16.792,-38.952
186,1436970292170,23.439,-16.792,-38.952
187,1436970292171,23.439,-16.792,-38.952
188,1436970292172,23.439,-16.792,-38.952
189,1436970292173,23.439,-16.792,-38.952
190,1436970292174,23.439,-16.792,-38.952
191,1436970292175,23.439,-16.792,-38.952
192,1436970292176,23.439,-16.792,-38.952
193,1436970292177,23.439,-16.792,-38.952
194,1436970292178,23.439,-16.792,-38.952
195,1436970292179,23.121,-16.792,-38.952
196,1436970292180,23.121,-16.792,-38.598
197,1436970292181,23.121,-16.792,-38.598
198,1436970292182,23.121,-16.792,-38.598
199,1436970292183,22.755,-16.792,-38.598
200,1436970292184,22.755,-16.792,-38.598
201,1436970292185,22.755,-16.792,-38.598
202,1436970292186,22.755,-16.792,-38.598
203,1436970292187,22.755,-16.792,-38.598
204,1436970292200,22.755,-16.792,-38.598
205,1436970292220,22.381,-17.097,-38.598
206,1436970292240,22.381,-17.097,-38.598
207,1436970292260,22.381,-17.097,-38.598
208,1436970292280,22.044,-17.097,-38.598
209,1436970292312,22.044,-17.097,-38.598
210,1436970292320,22.044,-17.097,-38.598
211,1436970292341,22.044,-17.097,-38.9
212,1436970292361,22.044,-17.097,-38.9
213,1436970292383,22.044,-17.097,-38.9
214,1436970292401,22.044,-17.097,-38.9
215,1436970292432,22.044,-17.097,-38.9
216,1436970292441,22.044,-17.097,-38.9
217,1436970292463,22.044,-17.097,-38.9
218,1436970292483,22.044,-17.097,-38.9
219,1436970292504,22.355,-17.097,-38.9
220,1436970292524,22.355,-17.097,-38.9
221,1436970292545,22.355,-17.097,-38.9
222,1436970292565,22.355,-17.097,-38.9
223,1436970292583,22.355,-17.097,-38.9
224,1436970292603,22.355,-17.097,-38.9
225,1436970292623,21.969,-17.097,-39.204
226,1436970292643,21.969,-17.097,-39.204
227,1436970292685,21.969,-17.097,-39.204
228,1436970292686,21.969,-17.097,-39.204
229,1436970292701,21.969,-17.097,-39.204
230,1436970292722,21.969,-17.097,-38.876
231,1436970292742,22.297,-17.097,-38.876
232,1436970292762,22.297,-17.097,-38.876
233,1436970292786,22.717,-16.778,-38.876
234,1436970292802,23.147,-16.778,-38.555
235,1436970292822,23.147,-16.778,-38.555
236,1436970292846,23.147,-16.778,-38.555
237,1436970292866,23.147,-16.778,-38.555
238,1436970292886,23.147,-16.778,-38.555
239,1436970292902,22.764,-16.778,-38.555
240,1436970292926,22.764,-16.778,-38.555
241,1436970292946,22.764,-16.778,-38.555
242,1436970292966,22.764,-16.778,-38.555
243,1436970292985,22.764,-16.778,-38.555
244,1436970293003,22.764,-16.778,-38.555
245,1436970293024,22.764,-16.476,-38.555
246,1436970293044,22.764,-16.476,-38.555
247,1436970293064,22.764,-16.476,-38.555
248,1436970293087,22.764,-16.476,-38.555
249,1436970293104,22.764,-16.476,-38.555
250,1436970293125,22.764,-16.476,-38.555
251,1436970293143,22.448,-16.476,-38.249
252,1436970293165,22.448,-16.476,-38.249
253,1436970293185,22.448,-16.476,-38.249
254,1436970293207,22.448,-16.476,-37.907
255,1436970293223,22.448,-16.476,-37.907
256,1436970293243,22.448,-16.476,-37.907
257,1436970293263,22.448,-16.476,-37.907
258,1436970293283,23.651,-16.476,-37.907
259,1436970293303,24.101,-16.476,-37.907
260,1436970293364,24.101,-16.476,-37.907
261,1436970293365,24.101,-16.476,-37.907
262,1436970293366,23.585,-16.476,-37.907
263,1436970293384,23.585,-16.476,-37.907
264,1436970293405,23.585,-16.476,-37.907
265,1436970293423,23.585,-16.476,-37.907
266,1436970293444,24.078,-16.476,-37.556
267,1436970293477,23.5,-16.476,-37.556
268,1436970293485,23.5,-16.476,-37.556
269,1436970293505,23.123,-16.476,-37.556
270,1436970293525,23.123,-16.168,-37.556
271,1436970293561,23.123,-16.168,-37.556
272,1436970293563,23.123,-16.168,-37.556
273,1436970293588,22.523,-16.168,-37.556
274,1436970293606,22.523,-16.168,-37.556
275,1436970293626,22.523,-16.168,-37.556
276,1436970293646,22.523,-16.168,-37.556
277,1436970293666,22.523,-16.168,-37.556
278,1436970293687,22.523,-16.168,-37.556
279,1436970293707,22.523,-16.168,-37.556
280,1436970293726,22.523,-16.168,-37.556
281,1436970293744,22.523,-16.168,-37.556
282,1436970293766,22.523,-16.168,-37.556
283,1436970293785,22.895,-16.168,-37.556
284,1436970293805,22.895,-16.168,-37.556
285,1436970293826,22.895,-16.168,-37.556
286,1436970293845,22.508,-16.168,-37.556
287,1436970293867,22.508,-16.168,-37.556
288,1436970293888,22.508,-16.168,-37.556
289,1436970293908,22.508,-16.168,-37.556
290,1436970293927,22.508,-16.168,-37.556
291,1436970293946,22.508,-16.168,-37.556
292,1436970293965,22.889,-16.168,-37.556
293,1436970293988,22.889,-16.168,-37.556
294,1436970294115,22.889,-16.168,-37.556
295,1436970294116,22.889,-16.168,-37.965
296,1436970294117,23.246,-16.168,-37.965
297,1436970294118,23.246,-16.168,-37.965
298,1436970294119,23.246,-16.168,-37.965
299,1436970294120,23.246,-16.168,-37.965
300,1436970294136,23.246,-16.168,-37.965
301,1436970294145,23.246,-16.168,-37.965
302,1436970294164,23.246,-16.168,-37.965
303,1436970294184,23.246,-16.168,-37.965
304,1436970294207,23.246,-16.168,-37.965
305,1436970294224,23.246,-16.168,-37.965
306,1436970294245,23.246,-16.168,-37.965
307,1436970294265,23.246,-16.168,-37.965
308,1436970294286,23.602,-16.168,-37.965
309,1436970294305,23.602,-16.168,-37.638
310,1436970294327,23.602,-16.168,-37.638
311,1436970294348,23.602,-16.168,-37.638
312,1436970294367,23.602,-16.168,-37.638
313,1436970294387,23.602,-16.168,-37.638
314,1436970294407,23.602,-16.168,-37.13
315,1436970294428,24.014,-16.168,-37.13
316,1436970294448,24.014,-16.168,-36.724
317,1436970294467,24.014,-16.168,-36.724
318,1436970294487,24.366,-16.168,-36.724
319,1436970294506,24.366,-16.168,-36.724
320,1436970294528,24.366,-16.168,-36.724
321,1436970294547,24.366,-16.168,-36.724
322,1436970294565,24.366,-16.168,-36.724
323,1436970294588,24.366,-16.168,-36.724
324,1436970294607,24.366,-16.168,-36.724
325,1436970294628,24.366,-16.168,-36.415
326,1436970294647,24.366,-16.168,-36.415
327,1436970294667,24.366,-16.168,-36.415
328,1436970294687,24.366,-16.168,-36.415
329,1436970294708,24.366,-16.168,-36.415
330,1436970294727,24.366,-16.168,-36.415
331,1436970294745,24.366,-16.168,-36.415
332,1436970294773,24.746,-16.168,-36.415
333,1436970294830,24.746,-16.168,-36.415
334,1436970294831,24.746,-16.168,-36.415
335,1436970294832,24.746,-15.827,-36.415
336,1436970294852,24.746,-15.827,-36.415
337,1436970294865,24.746,-15.827,-36.415
338,1436970294885,24.746,-15.827,-36.415
339,1436970294904,24.746,-15.827,-36.415
340,1436970294935,24.746,-15.827,-35.948
341,1436970294944,24.746,-15.827,-35.948
342,1436970294965,24.746,-15.827,-35.948
343,1436970294985,24.746,-15.827,-35.948
344,1436970295007,24.746,-15.827,-35.948
345,1436970295027,24.746,-15.827,-35.948
346,1436970295045,24.746,-15.827,-35.948
347,1436970295067,24.746,-15.827,-35.948
348,1436970295086,24.746,-15.827,-35.948
349,1436970295106,24.746,-15.827,-35.53
350,1436970295128,24.746,-16.151,-35.53
351,1436970295148,24.389,-16.151,-35.53
352,1436970295166,24.389,-16.151,-35.208
353,1436970295188,24.389,-16.151,-35.208
354,1436970295208,24.389,-16.151,-35.208
355,1436970295225,24.389,-16.151,-35.208
356,1436970295248,24.389,-16.151,-35.208
357,1436970295268,24.389,-16.151,-35.208
358,1436970295288,24.389,-16.151,-35.208
359,1436970295308,24.389,-16.151,-35.551
360,1436970296711,24.389,-16.151,-35.551
361,1436970296712,24.389,-16.151,-35.551
362,1436970296713,24.389,-16.151,-35.908
363,1436970296714,24.389,-15.846,-35.908
364,1436970296715,24.389,-15.846,-35.908
365,1436970296716,24.389,-15.846,-35.908
366,1436970296717,24.723,-15.846,-35.908
367,1436970296718,24.723,-15.846,-35.908
368,1436970296719,24.723,-15.846,-35.908
369,1436970296720,24.723,-15.846,-36.248
370,1436970296721,24.723,-15.846,-36.248
371,1436970296722,24.723,-15.846,-36.248
372,1436970296723,24.723,-15.846,-36.248
373,1436970296724,24.723,-15.846,-36.248
374,1436970296725,24.723,-15.846,-36.248
375,1436970296726,24.723,-15.846,-36.248
376,1436970296727,24.723,-15.846,-36.248
377,1436970296728,24.398,-16.149,-36.248
378,1436970296729,24.398,-16.149,-36.248
379,1436970296730,24.398,-16.149,-36.248
380,1436970296731,24.398,-16.149,-36.248
381,1436970296732,24.398,-16.149,-36.248
382,1436970296733,24.398,-16.149,-36.248
383,1436970296734,24.398,-16.149,-36.248
384,1436970296735,24.398,-16.149,-36.248
385,1436970296736,24.398,-16.149,-36.248
386,1436970296737,24.398,-16.149,-36.248
387,1436970296738,24.398,-15.808,-36.599
388,1436970296739,24.752,-15.808,-36.599
389,1436970296740,24.752,-15.808,-36.599
390,1436970296741,24.752,-15.808,-36.599
391,1436970296742,24.752,-15.808,-36.231
392,1436970296743,24.752,-15.808,-36.231
393,1436970296744,24.752,-15.808,-36.231
394,1436970296745,24.304,-15.808,-36.634
395,1436970296746,23.365,-15.808,-36.634
396,1436970296747,22.668,-15.808,-36.634
397,1436970296748,22.668,-15.808,-36.634
398,1436970296749,22.132,-15.808,-36.634
399,1436970296750,22.132,-15.808,-36.634
400,1436970296751,22.132,-15.808,-36.634
401,1436970296752,22.132,-15.808,-36.634
402,1436970296753,22.605,-15.808,-36.634
403,1436970296754,22.937,-16.117,-36.634
404,1436970296755,23.652,-16.117,-37.585
405,1436970296756,24.566,-16.117,-38.238
406,1436970296757,25.402,-16.117,-38.238
407,1436970296758,25.402,-16.117,-37.628
408,1436970296759,25.402,-16.117,-37.628
409,1436970296760,24.398,-15.759,-37.628
410,1436970296761,24.398,-15.759,-37.628
411,1436970296762,24.398,-15.759,-37.628
412,1436970296763,24.398,-15.759,-37.628
413,1436970296764,25.059,-15.759,-36.906
414,1436970296765,25.059,-15.759,-36.906
415,1436970296766,25.059,-15.759,-36.477
416,1436970296767,24.584,-15.759,-36.477
417,1436970296768,24.584,-15.759,-37.031
418,1436970296769,24.584,-15.431,-37.031
419,1436970296770,24.584,-15.431,-37.031
420,1436970296771,24.584,-15.431,-37.358
421,1436970296772,24.946,-15.431,-37.04
422,1436970296773,24.946,-15.431,-36.631
423,1436970296774,24.946,-15.431,-36.317
424,1436970296775,24.946,-15.431,-36.679
425,1436970296776,24.946,-15.431,-36.679
426,1436970296777,24.946,-15.783,-36.679
427,1436970296778,24.946,-15.783,-36.679
428,1436970296779,24.575,-15.783,-36.679
429,1436970296780,24.575,-15.783,-36.679
430,1436970296781,24.575,-15.783,-36.679
431,1436970296782,24.575,-15.783,-36.679
432,1436970296783,24.575,-15.783,-36.679
433,1436970296785,24.575,-15.783,-36.679
434,1436970296805,24.575,-15.783,-36.679
435,1436970296825,24.575,-15.783,-36.679
436,1436970296845,24.575,-15.783,-36.679
437,1436970296865,24.575,-15.417,-36.679
438,1436970296885,24.575,-15.417,-36.679
439,1436970296905,24.575,-15.417,-36.679
440,1436970296925,24.575,-15.417,-36.679
441,1436970296945,24.575,-15.417,-36.679
442,1436970296972,24.575,-15.417,-36.679
443,1436970297009,24.575,-15.417,-36.679
444,1436970297010,24.575,-15.417,-36.679
445,1436970297026,24.575,-15.417,-36.679
446,1436970297046,24.575,-15.417,-36.679
447,1436970297067,24.575,-15.417,-36.679
448,1436970297085,24.575,-15.417,-36.679
449,1436970297105,24.575,-15.417,-36.679
450,1436970297125,24.575,-15.417,-36.679
451,1436970297145,24.575,-15.417,-36.679
452,1436970297165,24.575,-15.75,-36.679
453,1436970297185,24.575,-15.75,-36.679
454,1436970297205,24.267,-15.75,-36.679
455,1436970297225,24.267,-15.75,-37.12
456,1436970297245,24.267,-15.75,-38.22
457,1436970297267,24.574,-15.75,-37.715
458,1436970297296,24.574,-15.75,-37.21
459,1436970297306,24.574,-15.75,-37.8
460,1436970297325,24.574,-15.75,-37.8
461,1436970297346,24.574,-15.397,-37.8
462,1436970297366,24.574,-15.397,-37.342
463,1436970297387,24.574,-15.397,-37.042
464,1436970297407,24.574,-15.397,-37.042
465,1436970297427,24.9,-15.397,-37.042
466,1436970297447,24.9,-15.397,-37.042
467,1436970297470,24.9,-15.397,-37.042
468,1436970297488,24.9,-15.397,-37.48
469,1436970297506,25.205,-15.397,-37.48
470,1436970297527,25.205,-15.397,-37.48
471,1436970297547,25.205,-15.397,-37.48
472,1436970297567,25.205,-15.397,-36.926
473,1436970297587,25.555,-15.397,-36.926
474,1436970297609,25.555,-15.397,-36.926
475,1436970297627,25.555,-15.705,-36.926
476,1436970297648,25.555,-15.705,-36.926
477,1436970297667,25.555,-15.705,-36.618
478,1436970297686,25.555,-15.705,-36.618
479,1436970297706,25.555,-15.705,-36.618
480,1436970297726,25.895,-15.705,-36.618
481,1436970297747,25.895,-15.705,-36.618
482,1436970297766,27.252,-15.705,-36.967
483,1436970297786,28.205,-15.705,-36.967
484,1436970297807,28.205,-15.705,-36.967
485,1436970297830,27.824,-15.705,-36.967
486,1436970297850,27.436,-15.705,-36.967
487,1436970297868,27.436,-15.705,-36.967
488,1436970297889,27.436,-15.368,-36.967
489,1436970297916,27.436,-15.368,-36.581
490,1436970297977,27.436,-15.368,-36.119
491,1436970297978,27.436,-15.368,-36.119
