id,attr_time,attr_x,attr_y,attr_z
1,1436970288142,3.047,-42.669,-12.284
2,1436970288162,3.047,-42.669,-12.284
3,1436970288184,3.047,-42.669,-12.284
4,1436970288201,3.047,-42.669,-12.284
5,1436970288222,3.047,-42.669,-12.284
6,1436970288243,3.047,-42.669,-12.284
7,1436970288263,3.047,-42.669,-12.284
8,1436970288282,3.047,-42.669,-12.284
9,1436970288303,3.047,-42.669,-12.284
10,1436970288321,3.047,-42.97,-12.284
11,1436970288342,3.047,-42.97,-12.284
12,1436970288363,3.047,-42.97,-12.284
13,1436970288383,3.047,-42.97,-12.284
14,1436970288404,3.047,-42.97,-12.284
15,1436970288423,3.047,-42.97,-12.284
16,1436970288443,3.047,-42.97,-12.284
17,1436970288529,3.047,-42.97,-12.284
18,1436970288530,3.047,-42.97,-12.284
19,1436970288531,3.047,-42.97,-12.284
20,1436970288532,3.047,-42.97,-12.284
21,1436970288540,3.047,-42.97,-12.284
22,1436970288570,3.047,-42.97,-12.284
23,1436970288582,3.047,-42.97,-12.284
24,1436970288614,3.047,-42.97,-12.284
25,1436970288633,3.047,-42.97,-12.284
26,1436970288642,3.047,-42.97,-12.284
27,1436970288661,3.047,-42.97,-12.284
28,1436970288682,3.047,-42.97,-12.284
29,1436970288702,3.047,-42.97,-12.284
30,1436970288722,3.047,-42.97,-12.284
31,1436970288742,3.047,-42.97,-12.284
32,1436970288763,3.047,-42.97,-12.284
33,1436970288783,3.047,-42.97,-12.284
34,1436970288802,3.047,-42.97,-12.284
35,1436970288822,3.047,-42.97,-12.284
36,1436970288844,3.047,-42.97,-12.284
37,1436970288864,3.047,-42.97,-12.284
38,1436970288883,3.047,-42.97,-12.284
39,1436970288901,3.047,-42.97,-12.284
40,1436970288924,3.047,-42.97,-12.284
41,1436970288944,3.047,-42.97,-12.284
42,1436970288964,3.047,-42.97,-12.284
43,1436970288983,3.047,-42.97,-12.284
44,1436970289004,3.047,-42.97,-12.284
45,1436970289024,3.047,-42.97,-12.284
46,1436970289047,3.047,-42.97,-12.284
47,1436970289163,3.047,-42.97,-12.284
48,1436970289164,3.047,-42.97,-12.284
49,1436970289165,3.047,-42.97,-12.284
50,1436970289166,3.047,-42.97,-12.284
51,1436970289167,3.047,-42.97,-12.284
52,1436970289168,3.047,-42.97,-12.284
53,1436970289188,3.047,-42.97,-12.284
54,1436970289254,3.047,-42.97,-12.284
55,1436970289255,3.047,-42.97,-12.284
56,1436970289256,3.047,-42.97,-12.284
57,1436970289268,3.047,-42.97,-12.284
58,1436970289282,3.047,-42.97,-12.284
59,1436970289305,3.047,-42.97,-12.284
60,1436970289321,3.047,-42.97,-12.284
61,1436970289341,2.728,-42.97,-12.284
62,1436970289362,2.728,-42.97,-12.284
63,1436970289382,2.728,-42.97,-12.284
64,1436970289402,2.728,-42.97,-12.284
65,1436970289422,2.728,-42.97,-12.284
66,1436970289444,2.728,-42.97,-12.284
67,1436970289462,2.728,-42.97,-12.284
68,1436970289484,2.728,-42.97,-12.284
69,1436970289503,2.728,-42.97,-12.284
70,1436970289522,2.728,-42.97,-12.284
71,1436970289544,2.728,-42.97,-12.284
72,1436970289564,2.728,-42.97,-12.284
73,1436970289584,2.728,-42.97,-12.284
74,1436970289602,2.728,-42.97,-12.284
75,1436970289622,2.728,-42.97,-12.284
76,1436970289643,2.728,-42.97,-12.284
77,1436970289662,2.728,-42.97,-12.284
78,1436970289684,2.728,-42.97,-12.284
79,1436970289702,2.728,-42.97,-12.284
80,1436970289722,2.728,-42.97,-12.284
81,1436970289742,2.728,-42.97,-12.284
82,1436970289762,2.728,-42.97,-12.284
83,1436970289782,2.728,-42.97,-12.284
84,1436970289803,2.728,-42.97,-12.284
85,1436970289822,2.728,-42.97,-12.284
86,1436970289845,2.728,-42.97,-12.284
87,1436970289862,2.728,-42.97,-12.284
88,1436970289990,2.728,-42.97,-12.284
89,1436970289991,2.728,-42.97,-12.284
90,1436970289992,2.728,-42.97,-12.284
91,1436970289993,2.728,-42.97,-12.284
92,1436970289994,2.728,-42.97,-12.284
93,1436970289995,2.728,-42.97,-12.284
94,1436970290015,2.728,-42.97,-12.284
95,1436970290070,2.728,-42.97,-12.284
96,1436970290071,2.728,-42.97,-12.284
97,1436970290072,2.728,-42.97,-12.284
98,1436970290116,2.728,-42.97,-12.284
99,1436970290145,2.728,-42.97,-12.284
100,1436970290148,2.728,-42.97,-12.284
101,1436970290149,2.728,-42.97,-12.284
102,1436970290165,2.728,-42.97,-12.284
103,1436970290183,2.728,-42.97,-12.284
104,1436970290202,2.728,-42.97,-12.284
105,1436970290222,2.728,-42.97,-12.284
106,1436970290244,2.728,-42.97,-12.284
107,1436970290263,2.728,-42.97,-12.284
108,1436970290285,2.728,-42.97,-12.284
109,1436970290302,2.728,-42.97,-12.284
110,1436970290323,2.728,-42.97,-12.284
111,1436970290345,2.728,-42.97,-12.284
112,1436970290365,2.728,-42.97,-12.284
113,1436970290383,2.728,-42.97,-12.284
114,1436970290403,2.728,-42.97,-12.284
115,1436970290425,2.728,-42.97,-12.284
116,1436970290443,2.728,-42.97,-12.284
117,1436970290465,2.728,-42.97,-12.284
118,1436970290485,2.728,-42.97,-12.284
119,1436970290504,2.728,-42.97,-12.284
120,1436970290525,2.728,-42.97,-12.284
121,1436970290544,2.728,-42.97,-12.284
122,1436970290564,2.728,-42.97,-11.978
123,1436970290585,2.728,-42.97,-11.978
124,1436970290604,2.728,-42.97,-11.978
125,1436970290626,2.728,-42.97,-11.978
126,1436970290644,2.728,-42.97,-11.978
127,1436970290672,2.728,-42.97,-11.978
128,1436970290728,2.728,-42.97,-11.978
129,1436970290729,2.728,-42.97,-11.978
130,1436970290730,2.728,-42.97,-11.978
131,1436970290746,2.728,-42.97,-11.978
132,1436970290763,2.728,-42.97,-11.978
133,1436970290783,2.728,-42.97,-11.978
134,1436970290802,2.728,-42.97,-11.978
135,1436970290822,2.728,-42.97,-11.978
136,1436970290844,2.728,-42.97,-11.978
137,1436970290863,2.728,-42.97,-11.978
138,1436970290883,2.728,-42.97,-11.978
139,1436970290903,2.728,-42.97,-12.297
140,1436970290925,2.728,-42.97,-12.297
141,1436970290943,2.728,-42.97,-12.297
142,1436970290964,2.728,-42.97,-12.297
143,1436970290985,2.728,-42.97,-12.297
144,1436970291006,2.728,-42.97,-12.297
145,1436970291024,2.728,-42.97,-12.297
146,1436970291046,2.728,-42.97,-12.297
147,1436970291064,2.728,-42.97,-12.297
148,1436970291087,2.728,-42.97,-12.297
149,1436970291107,2.728,-42.97,-12.297
150,1436970291123,2.728,-42.97,-12.297
151,1436970291170,2.728,-42.97,-12.297
152,1436970291171,2.728,-42.97,-12.297
153,1436970291183,2.728,-42.97,-12.297
154,1436970291203,2.728,-42.97,-12.297
155,1436970291310,2.728,-42.97,-12.297
156,1436970291311,2.728,-42.97,-12.297
157,1436970291312,2.728,-42.97,-12.297
158,1436970291313,2.728,-42.97,-12.297
159,1436970291314,2.728,-42.97,-12.297
160,1436970291323,2.728,-42.97,-12.297
161,1436970291345,2.728,-42.97,-11.972
162,1436970291363,2.728,-42.97,-11.972
163,1436970291453,2.728,-42.97,-11.972
164,1436970291458,2.42,-42.97,-11.972
165,1436970291459,2.42,-42.97,-11.972
166,1436970291460,2.42,-42.97,-11.972
167,1436970291464,2.42,-42.97,-11.972
168,1436970291483,2.42,-42.97,-11.972
169,1436970291503,2.42,-42.97,-11.972
170,1436970291523,2.42,-42.97,-11.972
171,1436970291543,2.42,-42.97,-11.972
172,1436970291563,2.42,-42.97,-11.972
173,1436970291588,2.42,-42.97,-11.972
174,1436970291608,2.42,-42.97,-11.972
175,1436970291626,2.42,-42.97,-11.972
176,1436970291644,2.42,-42.97,-11.972
177,1436970291663,2.42,-42.97,-11.972
178,1436970291685,2.42,-42.97,-11.972
179,1436970291702,2.42,-42.97,-11.972
180,1436970291727,2.42,-42.97,-11.972
181,1436970291745,2.42,-42.97,-11.972
182,1436970291766,2.42,-42.97,-11.972
183,1436970291786,2.42,-42.97,-12.287
184,1436970291807,2.42,-42.97,-12.287
185,1436970291827,2.42,-42.97,-12.287
186,1436970291844,2.42,-42.97,-12.287
187,1436970291866,2.42,-42.97,-12.287
188,1436970291887,2.42,-42.97,-12.287
189,1436970291903,2.42,-42.97,-12.287
190,1436970291924,2.42,-42.97,-12.287
191,1436970291944,2.42,-42.97,-12.287
192,1436970291968,2.116,-42.97,-12.287
193,1436970291988,2.116,-42.97,-12.287
194,1436970292008,2.116,-42.97,-12.287
195,1436970292027,2.116,-42.97,-12.287
196,1436970292044,2.116,-42.97,-12.287
197,1436970292064,2.116,-42.97,-11.985
198,1436970292083,1.753,-42.97,-11.985
199,1436970292107,1.753,-42.97,-11.985
200,1436970292123,1.753,-42.97,-11.985
201,1436970292154,1.753,-42.97,-11.669
202,1436970292171,1.44,-42.97,-11.669
203,1436970292188,1.44,-42.97,-11.669
204,1436970292204,1.44,-42.97,-11.669
205,1436970292231,1.44,-42.97,-11.669
206,1436970292245,1.06,-42.97,-11.276
207,1436970292267,1.06,-42.97,-11.276
208,1436970292284,1.06,-42.97,-11.276
209,1436970292306,0.744,-42.97,-11.276
210,1436970292327,0.744,-42.97,-10.913
211,1436970292347,0.744,-42.97,-10.913
212,1436970292364,0.39,-42.97,-10.913
213,1436970292387,0.39,-42.97,-10.913
214,1436970292408,0.39,-42.97,-10.913
215,1436970292427,0.39,-42.97,-10.913
216,1436970292447,0.39,-42.97,-10.913
217,1436970292468,0.39,-42.97,-10.61
218,1436970292487,0.39,-43.287,-10.61
219,1436970292507,0.39,-43.287,-10.61
220,1436970292529,0.39,-43.287,-10.61
221,1436970292546,0.39,-43.287,-10.61
222,1436970292567,0.39,-43.287,-10.61
223,1436970292585,0.39,-43.287,-10.61
224,1436970292607,0.39,-43.287,-10.61
225,1436970292625,0.708,-43.287,-10.61
226,1436970292650,0.708,-43.609,-10.61
227,1436970292676,1.045,-43.609,-10.61
228,1436970292691,1.045,-43.609,-10.61
229,1436970292707,1.611,-43.609,-10.61
230,1436970292724,1.611,-43.609,-10.61
231,1436970292744,1.611,-43.609,-10.61
232,1436970292764,1.968,-43.609,-10.975
233,1436970292788,1.968,-43.609,-10.975
234,1436970292806,2.276,-43.609,-10.975
235,1436970292870,2.276,-43.609,-10.975
236,1436970292871,2.276,-43.609,-11.314
237,1436970292872,2.276,-43.609,-11.314
238,1436970292884,2.276,-43.609,-11.314
239,1436970292905,2.276,-43.609,-11.314
240,1436970292927,2.276,-43.609,-11.314
241,1436970292947,2.276,-43.609,-11.616
242,1436970292982,2.276,-43.609,-11.616
243,1436970292983,2.276,-43.609,-11.616
244,1436970293010,2.276,-43.609,-11.616
245,1436970293025,2.624,-43.609,-11.923
246,1436970293048,2.624,-43.609,-11.923
247,1436970293065,2.624,-43.609,-11.923
248,1436970293088,2.624,-43.609,-11.923
249,1436970293108,2.624,-43.609,-11.923
250,1436970293128,2.624,-43.609,-11.923
251,1436970293148,2.624,-43.609,-11.923
252,1436970293168,2.98,-43.609,-11.923
253,1436970293187,2.98,-43.609,-11.923
254,1436970293208,3.286,-43.609,-11.923
255,1436970293228,3.286,-43.609,-11.923
256,1436970293250,3.286,-43.609,-11.923
257,1436970293266,3.619,-43.609,-11.923
258,1436970293288,3.619,-43.609,-11.923
259,1436970293308,3.619,-43.609,-11.923
260,1436970293328,3.619,-43.609,-11.923
261,1436970293348,3.619,-43.609,-11.923
262,1436970293368,3.619,-43.609,-11.923
263,1436970293388,3.619,-43.609,-11.923
264,1436970293406,3.619,-43.609,-11.923
265,1436970293427,3.619,-43.609,-11.923
266,1436970293448,3.619,-43.609,-11.923
267,1436970293469,3.927,-43.609,-11.923
268,1436970293488,3.927,-43.609,-11.923
269,1436970293508,3.927,-43.609,-11.923
270,1436970293599,3.927,-43.609,-11.923
271,1436970293600,3.927,-43.609,-11.923
272,1436970293601,3.927,-43.609,-11.923
273,1436970293602,3.927,-43.609,-11.923
274,1436970293606,3.927,-43.609,-11.923
275,1436970293625,3.927,-43.609,-11.923
276,1436970293645,3.927,-43.609,-11.923
277,1436970293665,3.927,-43.609,-11.923
278,1436970293697,3.927,-43.609,-11.923
279,1436970293740,3.927,-43.609,-11.923
280,1436970293741,3.927,-43.609,-11.923
281,1436970293749,3.927,-43.609,-11.923
282,1436970293765,3.927,-43.609,-11.923
283,1436970293785,3.927,-43.609,-11.923
284,1436970293805,3.927,-43.609,-11.923
285,1436970293826,3.927,-43.609,-12.246
286,1436970293847,3.579,-43.609,-12.246
287,1436970293868,3.579,-43.609,-12.246
288,1436970293886,3.579,-43.609,-12.246
289,1436970293905,3.579,-43.609,-12.246
290,1436970293928,3.579,-43.609,-12.246
291,1436970293947,3.268,-43.609,-12.246
292,1436970293968,3.268,-43.609,-12.246
293,1436970293988,3.268,-43.609,-12.611
294,1436970294008,3.268,-43.609,-12.611
295,1436970294028,3.268,-43.304,-12.611
296,1436970294047,3.268,-43.304,-12.611
297,1436970294067,3.268,-43.304,-12.611
298,1436970294088,3.268,-43.304,-12.611
299,1436970294108,3.735,-43.304,-12.611
300,1436970294130,3.735,-43.304,-12.611
301,1436970294149,4.173,-43.304,-12.611
302,1436970294242,4.173,-43.304,-12.611
303,1436970294243,4.173,-43.304,-12.611
304,1436970294244,4.173,-43.304,-12.611
305,1436970294245,4.173,-43.304,-12.611
306,1436970294249,4.173,-43.304,-12.611
307,1436970294266,4.541,-43.304,-12.611
308,1436970294289,4.541,-43.304,-12.611
309,1436970294354,4.541,-43.304,-12.611
310,1436970294355,4.541,-43.304,-12.611
311,1436970294356,4.541,-43.304,-12.611
312,1436970294366,4.541,-43.304,-12.611
313,1436970294393,4.541,-43.304,-12.611
314,1436970294425,4.541,-43.304,-12.611
315,1436970294427,4.541,-43.304,-12.611
316,1436970294448,4.541,-43.304,-12.611
317,1436970294468,4.93,-43.304,-12.611
318,1436970294488,4.93,-43.304,-12.611
319,1436970294507,4.93,-43.304,-12.93
320,1436970294528,5.355,-43.304,-12.93
321,1436970294546,5.355,-43.304,-12.93
322,1436970294568,5.355,-43.304,-12.93
323,1436970294588,5.918,-43.304,-13.233
324,1436970294608,5.918,-43.304,-13.233
325,1436970294628,6.347,-43.304,-13.233
326,1436970294648,6.347,-43.304,-13.233
327,1436970294668,6.347,-43.304,-13.534
328,1436970294689,6.347,-43.304,-13.534
329,1436970294707,6.347,-43.304,-13.534
330,1436970294729,6.347,-43.304,-13.534
331,1436970294748,6.347,-43.304,-13.534
332,1436970294768,6.347,-43.304,-13.534
333,1436970294788,6.347,-42.991,-13.534
334,1436970294808,6.347,-42.991,-13.534
335,1436970294832,6.347,-42.991,-13.534
336,1436970294852,6.347,-42.991,-13.534
337,1436970294872,6.347,-42.991,-13.534
338,1436970294889,6.347,-42.991,-13.534
339,1436970294908,6.347,-42.991,-13.534
340,1436970294926,6.347,-42.991,-13.534
341,1436970294949,6.347,-42.991,-13.534
342,1436970294967,6.347,-42.991,-13.534
343,1436970294988,6.347,-42.991,-13.534
344,1436970295054,6.347,-42.991,-13.534
345,1436970295055,6.347,-42.991,-13.218
346,1436970295056,6.347,-42.991,-13.218
347,1436970295066,6.347,-42.991,-13.218
348,1436970295090,6.347,-42.991,-13.218
349,1436970295108,6.347,-42.991,-13.218
350,1436970295127,6.347,-42.991,-13.218
351,1436970295148,6.347,-42.991,-13.218
352,1436970295168,6.347,-42.991,-13.218
353,1436970295194,6.736,-42.991,-13.218
354,1436970295207,6.736,-42.991,-13.218
355,1436970295230,6.736,-42.991,-13.218
356,1436970295247,6.736,-42.991,-13.218
357,1436970295268,6.736,-42.991,-13.218
358,1436970295289,6.736,-42.991,-13.218
359,1436970295309,6.736,-42.991,-13.218
360,1436970295329,6.736,-42.991,-13.218
361,1436970295349,6.362,-42.991,-13.218
362,1436970295371,6.362,-42.991,-13.218
363,1436970295389,6.362,-42.991,-13.218
364,1436970295407,6.362,-42.991,-13.218
365,1436970295428,6.062,-42.991,-13.218
366,1436970295449,6.062,-42.991,-13.218
367,1436970295469,6.062,-42.991,-13.218
368,1436970295489,6.062,-42.991,-13.218
369,1436970295509,6.062,-42.991,-13.218
370,1436970295529,6.062,-42.991,-13.218
371,1436970295549,6.062,-42.991,-13.218
372,1436970295570,6.062,-42.991,-13.218
373,1436970295590,6.062,-42.991,-13.218
374,1436970295609,6.062,-42.991,-13.218
375,1436970295629,6.062,-42.991,-13.218
376,1436970295649,6.062,-42.991,-13.218
377,1436970295668,6.062,-42.991,-13.218
378,1436970295778,6.062,-42.991,-13.218
379,1436970295779,6.362,-42.991,-13.218
380,1436970295780,6.362,-42.991,-13.218
381,1436970295781,6.362,-42.991,-13.218
382,1436970295782,6.362,-42.991,-13.218
383,1436970295798,5.717,-42.991,-13.218
384,1436970295807,5.329,-42.991,-13.218
385,1436970295827,5.329,-42.991,-13.218
386,1436970295848,5.329,-42.991,-13.218
387,1436970295875,5.329,-42.991,-13.218
388,1436970295894,5.329,-42.991,-13.218
389,1436970295907,5.68,-42.991,-13.218
390,1436970295928,5.68,-42.991,-13.218
391,1436970295948,5.68,-42.991,-13.218
392,1436970295967,5.68,-42.991,-13.218
393,1436970295988,5.68,-42.991,-13.218
394,1436970296011,5.68,-42.991,-13.218
395,1436970296031,5.68,-42.991,-13.218
396,1436970296051,5.68,-42.991,-13.218
397,1436970296071,5.68,-42.991,-13.218
398,1436970296088,5.68,-42.991,-13.218
399,1436970296111,5.68,-42.991,-13.218
400,1436970296130,5.68,-42.991,-13.218
401,1436970296149,5.68,-42.991,-13.218
402,1436970296175,5.68,-42.991,-13.218
403,1436970296188,6.076,-42.991,-13.218
404,1436970296208,6.076,-42.991,-13.218
405,1436970296228,6.076,-42.991,-13.218
406,1436970296251,6.076,-42.991,-13.218
407,1436970296269,6.076,-42.991,-13.218
408,1436970296290,6.076,-42.991,-12.85
409,1436970296310,6.076,-42.991,-12.85
410,1436970296330,6.076,-42.991,-12.85
411,1436970296349,5.728,-42.991,-12.85
412,1436970296369,5.728,-42.991,-12.85
413,1436970296388,5.728,-42.991,-12.85
414,1436970296408,5.728,-42.991,-12.85
415,1436970296492,5.728,-42.991,-12.85
416,1436970296493,5.728,-42.991,-12.85
417,1436970296494,5.728,-42.991,-12.85
418,1436970296495,6.04,-42.991,-12.85
419,1436970296509,6.04,-42.991,-12.85
420,1436970296530,6.04,-42.991,-12.85
421,1436970296548,6.04,-42.991,-12.85
422,1436970296568,6.04,-42.991,-12.85
423,1436970296590,6.04,-42.991,-12.85
424,1436970296609,6.427,-42.991,-12.85
425,1436970296629,6.427,-42.991,-12.85
426,1436970296649,6.427,-42.991,-12.85
427,1436970296671,6.427,-42.991,-12.85
428,1436970296688,6.427,-42.991,-12.85
429,1436970296711,6.427,-42.991,-12.85
430,1436970296731,6.427,-42.991,-12.85
431,1436970296752,6.427,-42.991,-12.85
432,1436970296771,6.427,-42.991,-12.85
433,1436970296791,6.427,-42.991,-12.85
434,1436970296811,6.024,-42.991,-12.85
435,1436970296831,5.688,-42.991,-12.85
436,1436970296851,5.688,-42.991,-12.85
437,1436970296869,5.688,-42.991,-12.85
438,1436970296891,5.688,-42.669,-12.85
439,1436970296909,5.688,-42.669,-12.85
440,1436970296930,5.688,-42.669,-12.85
441,1436970296950,5.688,-42.669,-12.85
442,1436970296969,5.688,-42.669,-13.177
443,1436970296992,6.105,-42.669,-13.177
444,1436970297012,6.105,-42.669,-13.177
445,1436970297032,6.105,-42.669,-13.177
446,1436970297051,6.105,-42.669,-13.499
447,1436970297071,6.105,-42.669,-13.499
448,1436970297090,6.105,-42.669,-13.499
449,1436970297110,6.105,-42.669,-13.499
450,1436970297129,6.105,-42.669,-13.499
451,1436970297212,6.105,-42.669,-13.499
452,1436970297213,6.105,-42.669,-13.499
453,1436970297214,6.105,-42.669,-13.499
454,1436970297215,6.105,-42.669,-13.499
455,1436970297229,6.105,-42.669,-13.499
456,1436970297256,5.232,-42.669,-13.499
457,1436970297269,4.379,-42.669,-13.499
458,1436970297290,3.97,-42.669,-13.499
459,1436970297323,3.97,-42.669,-13.499
460,1436970297330,3.97,-42.669,-13.499
461,1436970297350,4.525,-42.669,-13.499
462,1436970297370,4.945,-42.669,-13.499
463,1436970297392,5.265,-42.669,-13.499
464,1436970297409,5.265,-42.669,-13.499
465,1436970297431,5.715,-42.669,-13.499
466,1436970297452,5.715,-42.669,-13.499
467,1436970297471,5.715,-42.669,-13.499
468,1436970297488,5.715,-42.669,-13.499
469,1436970297510,5.715,-42.669,-13.499
470,1436970297532,5.715,-42.669,-13.499
471,1436970297598,5.715,-42.669,-13.499
472,1436970297599,5.715,-42.669,-13.809
473,1436970297600,5.715,-42.669,-13.809
474,1436970297610,6.048,-42.669,-13.809
475,1436970297637,6.048,-42.669,-13.809
476,1436970297649,6.048,-42.669,-13.809
477,1436970297672,6.048,-42.973,-13.809
478,1436970297689,6.048,-42.973,-13.809
479,1436970297709,6.048,-42.973,-13.809
480,1436970297729,6.048,-42.973,-13.809
481,1436970297780,6.048,-42.973,-13.809
482,1436970297781,6.048,-42.973,-13.809
483,1436970297801,6.048,-42.973,-13.809
484,1436970297818,6.048,-42.973,-13.809
485,1436970297829,6.048,-42.973,-13.809
486,1436970297849,6.048,-42.973,-13.809
487,1436970297869,5.657,-42.973,-13.809
488,1436970297889,5.657,-42.973,-13.809
489,1436970297910,5.657,-42.973,-13.809
490,1436970297929,5.657,-42.973,-13.809
491,1436970297949,5.657,-42.973,-13.809
492,1436970297969,5.657,-42.973,-13.809
493,1436970297990,5.657,-42.973,-13.809
494,1436970298009,5.357,-42.973,-13.809
495,1436970298036,5.357,-42.973,-13.809
496,1436970298049,5.357,-42.973,-13.809
497,1436970298069,5.357,-42.973,-13.809
498,1436970298089,5.357,-42.973,-13.809
499,1436970298109,5.357,-42.973,-13.809
500,1436970298131,5.357,-42.973,-13.809
501,1436970298150,5.357,-42.973,-13.809
502,1436970298169,5.357,-42.973,-13.809
503,1436970298189,5.357,-42.973,-13.809
504,1436970298209,5.357,-42.973,-13.809
505,1436970298229,5.357,-42.973,-13.809
506,1436970298250,5.357,-42.973,-13.809
507,1436970298268,5.357,-42.973,-13.809
508,1436970298289,5.357,-42.973,-13.809
509,1436970298308,5.357,-42.973,-13.809
510,1436970298328,5.036,-42.973,-13.809
