id,attr_time,attr_db
1,1436965111106,15.5522476188317
2,1436965111924,14.5185178659559
3,1436965112643,15.5437462630908
4,1436965113371,17.109813551029
5,1436965114087,35.7082383286164
6,1436965114778,39.8929342115331
7,1436965115507,54.7131307900561
8,1436965116231,58.1891095388695
9,1436965116968,66.3864313980606
10,1436965117700,58.1087206030205
11,1436965118435,31.0442243902155
12,1436965119168,40.2985438281316
13,1436965119881,52.1405120102602
14,1436965120539,60.7625124825454
15,1436965121232,48.4712325254202
16,1436965121978,41.3164362394217
17,1436965122752,39.0866123128941
18,1436965123500,41.7959638489312
19,1436965124211,39.5539064351041
20,1436965124965,43.6321918016955
21,1436965125629,26.1981150056519
22,1436965126352,21.3638422085785
23,1436965127079,32.5741201194308
24,1436965127811,38.7432740868186
25,1436965128536,43.0776654472739
26,1436965129301,24.7028393788286
27,1436965130028,44.6984404610898
28,1436965130683,48.4846386152667
29,1436965131422,16.2007323167924
30,1436965132132,22.2779496588054
31,1436965132890,25.3786351361361
32,1436965133629,42.8663978312969
33,1436965134366,44.723819803309
34,1436965135087,39.2427492545613
35,1436965135789,18.4967857368672
36,1436965136530,47.7325123188552
37,1436965137299,40.2755952090661
38,1436965138027,27.2877167268383
39,1436965138753,20.8958525435479
40,1436965139502,55.6531421476174
41,1436965140181,43.590702915204
42,1436965140792,21.0883961803061
43,1436965141476,34.6507580116357
44,1436965142200,19.3494445419896
45,1436965142961,50.0524819620206
46,1436965143699,43.078728526138
47,1436965144438,43.2188449042798
48,1436965145185,18.3695951809844
49,1436965145915,24.2648712041112
50,1436965146641,27.0094167605492
51,1436965147391,37.5537654156465
52,1436965148113,43.6507578416799
53,1436965148839,46.9858234622206
54,1436965149572,35.5281978374941
55,1436965150294,40.893466701697
56,1436965151033,30.0661980627272
57,1436965151685,20.9960308319826
58,1436965152398,45.3201896891587
59,1436965153114,23.5040219951093
60,1436965153864,16.4783845734008
61,1436965154585,15.4722035961808
62,1436965155309,16.6769968456171
63,1436965156027,30.9120944186489
64,1436965156721,68.6082524791433
65,1436965157396,66.9802967995696
66,1436965158131,22.3480502366227
67,1436965158872,42.4857319265844
68,1436965159609,38.0066414365554
69,1436965160363,22.7789481770641
70,1436965160964,55.3156367218116
71,1436965161624,24.6018353344799
72,1436965162395,20.1499962439673
73,1436965164098,39.359602360392
74,1436965164859,39.1470846081511
75,1436965165558,40.0572344938939
76,1436965166289,57.91095803258
77,1436965167010,30.780406975684
78,1436965167801,35.4957461513986
79,1436965168505,19.2285506109353
80,1436965170276,36.6618594414018
81,1436965170952,26.9613309334248
82,1436965171674,17.0780557503655
83,1436965172465,32.2040922411961
84,1436965173159,40.3439649354622
85,1436965173860,41.4066829589566
86,1436965174597,45.4587275585493
87,1436965175310,48.8750008781835
88,1436965177163,20.0336800735962
89,1436965178007,17.3196749087085
90,1436965178680,16.456586184303
91,1436965179395,18.1554256787293
92,1436965180086,20.5170828281969
93,1436965181928,18.6355905658851
94,1436965182618,20.4060896657912
95,1436965183302,21.1458743138854
96,1436965183908,22.0278423255168
97,1436965184560,20.987210185295
98,1436965185300,24.1484091239857
99,1436965186026,26.1426781771439
100,1436965186746,24.1783813749736
101,1436965187484,23.7201641975294
102,1436965188213,23.7074104121674
103,1436965188956,28.5157091198492
104,1436965189639,24.3566572528936
105,1436965190352,22.4468663752846
106,1436965191077,22.995783428422
107,1436965191784,29.2250428486494
108,1436965192573,25.428544791682
109,1436965193231,22.5029554736306
110,1436965193873,25.789195141367
111,1436965194536,33.8761357257428
112,1436965195222,28.91605342057
113,1436965195977,34.882762167096
114,1436965196631,44.4443171762556
115,1436965197395,44.1444182141695
116,1436965198135,55.4257671725854
117,1436965198848,36.5635073552679
118,1436965199537,43.0364457137656
119,1436965200275,43.4433046253909
120,1436965201013,24.7345221914349
121,1436965201609,31.7973270269172
122,1436965202305,41.815247061898
123,1436965203066,50.6759760947744
124,1436965203785,43.757244756679
125,1436965204496,36.2847543893691
126,1436965205166,18.5768249237755
127,1436965205914,43.8135339322267
128,1436965206624,48.6997359967361
129,1436965207359,42.5641863346408
130,1436965208151,38.9161724796888
131,1436965208866,43.8474293103569
132,1436965209485,17.873484073936
133,1436965210172,46.667542987907
134,1436965210914,43.4956851188125
135,1436965211642,23.6829987771726
136,1436965212392,45.2696624912064
137,1436965213166,26.8382991243482
138,1436965213813,44.8118467864943
139,1436965214525,37.3578875172036
140,1436965215193,25.7070380944935
141,1436965215846,24.4357629506375
142,1436965216565,40.1975186349898
143,1436965217279,42.1916882329839
144,1436965218031,26.2671652168909
145,1436965218746,25.7477969223613
146,1436965219485,35.0804493491222
147,1436965220203,22.5355659826646
148,1436965220931,41.1368953106942
149,1436965221619,26.062824573785
150,1436965222291,45.0986848607582
151,1436965223030,32.3734878799949
152,1436965223765,35.0999090216177
153,1436965224513,42.9052795124685
154,1436965225212,46.0629372032103
155,1436965225856,50.9429132837885
156,1436965226580,61.499736427822
157,1436965227300,49.5003432156632
158,1436965228039,56.070209782297
159,1436965228803,58.4791296239811
160,1436965229545,44.4311938727016
161,1436965230268,62.058688548568
162,1436965230992,49.0730294513926
163,1436965231730,41.2954248924246
164,1436965232461,39.4910789951976
165,1436965233178,35.167059664072
166,1436965233914,36.8521695950606
167,1436965234671,38.0399108506169
168,1436965235342,46.1678262239488
169,1436965236033,32.911321872386
170,1436965236713,53.8590007157794
171,1436965237357,54.8689986121436
172,1436965238043,46.5874927343404
173,1436965238794,47.6732745560112
174,1436965239514,47.863532783518
175,1436965240279,55.0034381260465
176,1436965241011,52.2655437438932
177,1436965241612,44.9108440128628
178,1436965242225,43.0520042540805
179,1436965242915,46.5097173356569
180,1436965243607,61.8648937246289
181,1436965244342,58.849837259552
182,1436965245042,52.8917605342548
183,1436965245680,55.9510739516004
184,1436965246358,60.3100081304878
185,1436965247078,58.2211454156149
186,1436965247855,60.7013747383023
187,1436965248584,60.811789746073
188,1436965249274,62.7013847375991
189,1436965250004,60.8746888186783
190,1436965250738,57.273596207869
191,1436965251458,54.6784857942569
192,1436965252189,53.9046648297216
193,1436965252915,52.8623607642042
194,1436965253614,56.4447941397205
195,1436965254352,58.5808850688635
196,1436965255090,61.1758599884637
197,1436965255774,60.2981733662918
198,1436965256435,61.175123842182
199,1436965257179,63.2889516106233
200,1436965257923,68.8293781647152
201,1436965258629,71.8111620362777
202,1436965259349,69.1880138737928
203,1436965260071,67.9123334584851
204,1436965260821,67.8321303158924
205,1436965261504,73.2495850277849
206,1436965262151,74.5881924621502
207,1436965262901,67.4804837552571
208,1436965263608,70.9489852082169
209,1436965264322,69.5216297402414
210,1436965265046,65.36748342205
211,1436965265767,58.1177402156796
212,1436965266482,56.2772860502873
213,1436965267140,46.962570611968
214,1436965267823,49.1142709845314
215,1436965268543,46.1151376505067
216,1436965269271,47.9459705201644
217,1436965270005,47.297921010667
218,1436965270722,49.8048974826057
219,1436965271381,49.4030376071615
220,1436965271984,44.545014875138
221,1436965272731,51.1027651542202
222,1436965273447,38.9435888226293
223,1436965274183,35.6280173911884
224,1436965274915,52.0320425233223
225,1436965275652,49.5392178009599
226,1436965276406,45.2718554891205
227,1436965277137,41.7283675474643
228,1436965277837,24.4651497924209
229,1436965278529,46.6493729525419
230,1436965279255,40.7708529698363
231,1436965279988,49.1743155815482
232,1436965280702,38.2217582461783
233,1436965281431,24.7374282355277
234,1436965282090,42.7796858430994
235,1436965282758,41.4438916019817
236,1436965283447,39.7602201805909
237,1436965284172,19.794550335654
238,1436965284920,57.3772867632727
239,1436965285646,16.6936003237338
240,1436965286379,44.777772620656
241,1436965287131,27.7723526806489
242,1436965287869,16.6757309790293
243,1436965288586,45.4494921049817
244,1436965289276,29.7339017209277
245,1436965289904,26.9377617778176
246,1436965290583,34.5703189891784
247,1436965291309,55.6238194383685
248,1436965292036,38.554555176305
249,1436965292864,15.7116369059983
250,1436965293558,31.0840875575193
251,1436965294272,33.4215245676892
252,1436965295035,43.9300394337817
253,1436965295764,14.0476638859058
254,1436965296485,13.9811012471979
255,1436965297208,48.1146336636765
256,1436965297946,34.2517739083354
257,1436965298664,43.8081673512049
258,1436965299414,54.769110874728
259,1436965300168,51.020100336481
260,1436965300909,51.8589324549813
261,1436965301642,47.1885856491296
262,1436965302356,33.3716119567999
263,1436965303159,58.6119919797035
264,1436965303912,47.049200762061
265,1436965304631,33.2698418747317
266,1436965305346,55.3049091262089
267,1436965306052,61.2650541171082
268,1436965306740,58.4929713969492
269,1436965307498,45.7800971070602
270,1436965308227,54.4185676560816
271,1436965308958,43.2199949905998
272,1436965309674,59.4261797796256
273,1436965310400,44.9903111117687
274,1436965311124,48.6237375948101
275,1436965311869,44.9861469923578
276,1436965312600,44.1727679469731
277,1436965313313,58.6736675699071
278,1436965314019,54.3976950257158
279,1436965314734,40.2271587397256
280,1436965315474,44.0979365185043
281,1436965316220,49.879060204176
282,1436965316968,35.6921551119474
283,1436965317674,41.3674205650546
284,1436965318406,55.4258732506073
285,1436965319104,49.1007484406796
286,1436965319815,56.2595525785043
287,1436965320513,50.3581180835992
288,1436965321176,60.4276844253805
289,1436965321906,52.8374773999071
290,1436965322521,39.5466308416535
291,1436965323263,55.3134036516937
292,1436965324010,53.8058809509098
293,1436965324749,43.7192380321291
294,1436965325462,39.7489153884544
295,1436965326201,46.9019225758332
296,1436965326919,53.1427825534887
297,1436965327634,51.7549533687756
298,1436965328378,47.1877276121458
299,1436965329091,46.8366639467739
300,1436965329834,50.4227078084247
301,1436965330547,35.5203441093322
302,1436965331258,54.7268754192684
303,1436965331969,50.2255711900284
304,1436965332705,71.1371476687235
305,1436965333420,74.994284552988
306,1436965334137,42.9031400577778
307,1436965334876,37.4399957172882
308,1436965335598,55.8381161360932
309,1436965336321,60.7290138138172
310,1436965337071,26.4694706091774
311,1436965337760,53.052662012649
312,1436965338395,44.0342203005671
313,1436965339067,27.966805876242
314,1436965339787,37.0047089788074
315,1436965340506,31.595460936846
316,1436965341244,33.3629090603748
317,1436965341988,24.6247365176653
318,1436965342652,13.7096134182617
319,1436965343350,17.9868207938308
320,1436965344019,21.4633026486459
321,1436965344756,16.9685269761605
322,1436965345488,20.7316296883466
323,1436965346221,44.9615108475991
324,1436965346969,36.226199297461
325,1436965347677,38.6043672011013
326,1436965348384,38.9540298075304
327,1436965349047,45.1725108566264
328,1436965349750,41.8220401703289
329,1436965350475,51.3218933966593
330,1436965351209,45.3794356377875
331,1436965351967,38.3320893286395
332,1436965352704,40.8967550971089
333,1436965353415,17.6372952959197
334,1436965354076,41.8934991394871
335,1436965354661,25.7543350395526
336,1436965355354,56.0223498066826
337,1436965356089,19.8176315370943
338,1436965356804,24.3994749398966
339,1436965357584,32.4885110739896
340,1436965358310,15.7983129846116
341,1436965359072,16.2150767006385
342,1436965359831,16.7435982884495
343,1436965360607,43.4021949277629
344,1436965361348,59.8727002397139
345,1436965362066,59.4839922087489
346,1436965362769,52.7244835981548
347,1436965363499,57.1610578635217
348,1436965364210,48.4867327882599
349,1436965364919,43.3735578041591
350,1436965365659,29.4082697457215
351,1436965366392,58.5856668825333
352,1436965368176,44.4814693850478
353,1436965368839,46.0664234955759
354,1436965369497,29.3605876650696
355,1436965370232,40.9682623299436
356,1436965370955,40.9514107676382
357,1436965371723,46.6972501748919
358,1436965372478,39.0632718553827
359,1436965373195,39.7206880341154
360,1436965374005,11.1512914406198
361,1436965374674,42.0099210357772
362,1436965375422,45.4194070334033
363,1436965376154,37.2239911767134
364,1436965376851,12.984266245345
365,1436965378358,11.9305275856706
366,1436965379022,10.5017487401529
367,1436965379694,11.3525020888509
368,1436965380421,41.3648169116062
369,1436965381132,8.21929047508618
370,1436965381920,6.4246177220803
371,1436965382744,38.211901094626
372,1436965383400,30.0546591353101
373,1436965384106,21.8189763697114
374,1436965384816,25.6327808518154
375,1436965385486,18.333957733123
376,1436965386223,61.1188531294203
377,1436965386951,55.0755380554285
378,1436965387681,48.6362042445136
379,1436965388409,49.1249407108975
380,1436965389160,50.9537668845777
381,1436965389857,43.2525287941019
382,1436965390545,52.641981470261
383,1436965391280,54.6494740687734
384,1436965391938,37.0667516618111
385,1436965393292,58.4416385724819
386,1436965393982,54.9601206693916
387,1436965394727,45.3215854739178
388,1436965395457,60.1469004109003
389,1436965396198,41.8532618428347
390,1436965396925,46.4305886129189
391,1436965397659,41.094585633156
392,1436965398389,42.0467698840531
393,1436965399120,12.3287661785578
394,1436965399793,54.3325661291159
395,1436965400486,51.5602536821162
396,1436965401967,22.8395140941795
397,1436965402679,46.3137002268771
398,1436965403414,42.3005543669932
399,1436965404135,37.8742533757581
400,1436965404892,16.1767721036263
401,1436965405630,49.082315527316
402,1436965406350,40.5662122770051
403,1436965407041,42.5804104743825
404,1436965407735,51.7185973898878
405,1436965408409,54.8024909793428
406,1436965409148,53.2084049684957
407,1436965409849,43.0486931482274
408,1436965410490,56.3500135770681
409,1436965411194,25.231416794995
410,1436965411929,52.0915897729378
411,1436965412830,43.7363505198936
412,1436965413557,51.2988151422478
413,1436965414269,21.1442139323486
414,1436965414970,13.6016271409112
415,1436965415741,12.2581394023233
416,1436965416443,11.8852092696614
417,1436965417137,13.5113745970623
418,1436965417828,11.2024759360916
419,1436965418561,31.6697347251057
420,1436965419291,25.8601551462236
421,1436965420020,11.0472659971723
422,1436965420804,16.2542453297276
423,1436965421512,15.7504133920367
424,1436965422231,15.03225190244
425,1436965422954,22.4447272364932
426,1436965423688,57.6608315067764
427,1436965424370,51.2220473689256
428,1436965425085,39.3851794584711
429,1436965425756,64.8039309159038
430,1436965426500,50.3243598397978
431,1436965427248,43.8543131041989
432,1436965427980,59.234784102476
433,1436965428717,49.1573849514342
434,1436965429445,24.4671435896232
435,1436965430162,36.9911250280479
436,1436965430890,39.3231735654092
437,1436965431526,38.1466953289286
438,1436965432276,47.0864133860444
439,1436965433081,15.2396502824378
440,1436965433782,44.4726651791338
441,1436965434499,9.76490310548758
442,1436965435209,6.18510594951534
443,1436965435951,38.799469445547
444,1436965436616,32.6337491905175
445,1436965437463,54.9998154364611
446,1436965438147,59.4884231748417
447,1436965438864,43.5630886685045
448,1436965439609,50.7257524442617
449,1436965440320,48.5518405378951
450,1436965441013,67.1015585683256
451,1436965441702,40.0932836770592
452,1436965442496,51.9147838375436
453,1436965443228,59.0583750641683
454,1436965443885,35.8822434552305
455,1436965444605,29.5673885522036
456,1436965445328,50.5330103366407
457,1436965446105,40.4677377720422
458,1436965446835,45.3990044934545
459,1436965447572,15.4174073315816
460,1436965448302,46.47155510255
461,1436965449043,14.7547538263881
462,1436965449782,46.5200346673933
463,1436965450506,35.7489888092837
464,1436965451189,34.5575101384351
465,1436965451837,27.7207531336665
466,1436965452565,10.6096568251514
467,1436965453281,38.3937512705982
468,1436965454004,14.1422205595353
469,1436965454698,10.428265310778
470,1436965455403,18.5557928391496
471,1436965456142,43.1225622580423
472,1436965456860,42.6503593172116
473,1436965457525,40.3713336636434
474,1436965458246,54.5801712895099
475,1436965458992,42.6661554064077
476,1436965459749,63.2558070861406
477,1436965460485,46.3129468066386
478,1436965461239,45.7171671598038
479,1436965461972,14.4536579366352
480,1436965462694,19.5197254004376
481,1436965463430,24.3332610270777
482,1436965464147,10.0701282215681
483,1436965464884,10.3114312919812
484,1436965465620,32.5339754183665
485,1436965466347,41.9811620009162
486,1436965467073,51.7964767126448
487,1436965467752,62.2974070156476
488,1436965468487,35.4753152592895
489,1436965469215,12.7120140381665
490,1436965469961,12.2886376356161
491,1436965470709,29.4434412134594
492,1436965471420,12.5145014731221
493,1436965472171,9.67720815738544
494,1436965472944,8.09373819645035
495,1436965473686,41.8638282663988
496,1436965474409,45.4022541597786
497,1436965475096,45.3352726781629
498,1436965475725,37.0652443938681
499,1436965476458,31.0623089162992
500,1436965477222,34.2759380231416
501,1436965477988,41.33670264193
502,1436965478740,9.80274071927045
503,1436965479467,38.3659702101077
504,1436965480217,50.8358166496401
505,1436965480991,41.0926654783947
506,1436965481732,42.1450062552301
507,1436965482494,15.3329780061636
508,1436965483214,48.0016995610397
509,1436965483886,42.1552480718954
510,1436965484606,59.4044943384429
511,1436965485301,52.1975012258097
512,1436965485991,51.9870765115673
513,1436965486654,60.7482733009378
514,1436965487448,59.2793319509943
515,1436965488186,55.1681975531345
516,1436965488930,47.1957699803124
517,1436965489651,20.8835073675186
518,1436965490388,38.9714791642702
519,1436965491117,47.2716679741641
520,1436965491849,53.2641156136792
521,1436965492549,51.9145146346059
522,1436965493340,42.7536339592017
523,1436965494090,42.9602955456535
524,1436965494807,45.0543967885966
525,1436965495487,39.2586213494292
526,1436965496166,35.788006365418
527,1436965496874,26.4022507339544
528,1436965497618,40.400217518241
529,1436965498340,45.8277321036549
530,1436965499085,13.8295225704652
531,1436965499803,42.9934684656472
532,1436965500529,14.2136436682776
533,1436965501270,12.974609653439
534,1436965502012,39.5498483866239
535,1436965502735,15.5051770070806
536,1436965503449,41.6674167959652
537,1436965504058,37.9108449696778
538,1436965504756,49.0424798957088
539,1436965505490,14.4447798221692
540,1436965506234,34.7527721051921
541,1436965506971,14.1189583006914
542,1436965507665,44.5764623911898
543,1436965508326,11.8488904644905
544,1436965509077,35.3753810041283
545,1436965509673,44.9312485752439
546,1436965510356,33.0538908617824
547,1436965511067,15.6633554952923
548,1436965511814,42.7695657812192
549,1436965512602,43.1639694156903
550,1436965513318,30.4799196037842
551,1436965514062,21.5580054211849
552,1436965514796,45.6088940440768
553,1436965515514,16.4362056792604
554,1436965516251,43.7830467386762
555,1436965517008,31.2504561691405
556,1436965517738,15.4662801560192
557,1436965518456,44.1658845175031
558,1436965519171,42.961050715261
559,1436965519852,37.7999064404158
560,1436965520496,31.2407801173493
561,1436965521245,45.9705283136883
562,1436965522017,28.3726441764399
563,1436965522813,12.6080402211171
564,1436965523542,49.7902281291579
565,1436965524292,56.2987458763587
566,1436965525014,41.7354875417655
567,1436965525769,48.7515347344305
568,1436965526466,51.4912288063199
569,1436965527225,46.0465393368741
570,1436965527965,63.734579268547
571,1436965528648,54.0453560824574
572,1436965529386,60.4107942236292
573,1436965530100,21.3356597635068
574,1436965530877,11.9684158370805
575,1436965531607,11.4789734347406
