id,attr_time,attr_x,attr_y,attr_z
1,1437992082039,-43.847,-20.832,-10.85
2,1437992082060,-43.847,-20.832,-10.85
3,1437992082079,-43.847,-20.832,-10.85
4,1437992082099,-43.847,-20.832,-10.85
5,1437992082120,-43.847,-20.832,-10.85
6,1437992082138,-43.847,-20.832,-10.85
7,1437992082160,-43.847,-20.832,-10.85
8,1437992082180,-43.847,-20.832,-10.85
9,1437992082201,-43.847,-20.832,-10.85
10,1437992082218,-43.847,-20.832,-10.85
11,1437992082239,-43.847,-20.832,-10.85
12,1437992082258,-43.847,-20.832,-10.85
13,1437992082282,-43.847,-20.832,-10.85
14,1437992082300,-43.847,-20.832,-10.85
15,1437992082319,-43.847,-20.832,-10.85
16,1437992082339,-43.847,-20.832,-10.85
17,1437992082358,-43.847,-20.832,-10.85
18,1437992082380,-43.847,-20.832,-10.85
19,1437992082398,-43.847,-20.832,-10.85
20,1437992082420,-43.847,-20.832,-10.85
21,1437992082443,-43.847,-20.832,-10.85
22,1437992082460,-43.847,-20.832,-10.85
23,1437992082480,-43.847,-20.832,-10.85
24,1437992082501,-43.847,-20.832,-10.85
25,1437992082520,-43.847,-20.832,-10.85
26,1437992082538,-43.847,-20.832,-10.85
27,1437992082560,-43.847,-20.832,-10.85
28,1437992082581,-43.847,-20.832,-10.85
29,1437992082601,-43.847,-20.832,-10.85
30,1437992082622,-43.847,-20.832,-10.85
31,1437992082638,-43.847,-20.832,-10.85
32,1437992082661,-43.847,-20.832,-10.85
33,1437992082681,-43.847,-20.832,-10.85
34,1437992082703,-43.847,-20.832,-10.85
35,1437992082724,-43.847,-20.832,-10.85
36,1437992082741,-43.847,-20.832,-10.85
37,1437992082761,-43.847,-20.832,-10.85
38,1437992082782,-43.847,-20.832,-10.85
39,1437992082801,-43.847,-20.832,-10.85
40,1437992082821,-43.847,-20.832,-10.85
41,1437992082842,-43.847,-20.832,-10.85
42,1437992082862,-43.847,-20.832,-10.85
43,1437992082881,-43.847,-20.832,-10.85
44,1437992082902,-43.847,-20.832,-10.85
45,1437992082964,-43.847,-20.832,-10.85
46,1437992082975,-43.847,-20.832,-10.85
47,1437992082976,-43.847,-20.832,-10.85
48,1437992082982,-43.847,-20.832,-10.85
49,1437992083001,-43.847,-20.832,-10.85
50,1437992083022,-43.847,-20.832,-10.85
51,1437992083042,-43.847,-20.832,-10.85
52,1437992083070,-43.847,-20.832,-10.85
53,1437992083093,-43.847,-20.832,-10.85
54,1437992083099,-43.847,-20.832,-10.85
55,1437992083126,-43.847,-20.832,-10.498
56,1437992083139,-43.847,-20.832,-10.498
57,1437992083165,-43.847,-20.832,-10.498
58,1437992083181,-43.847,-20.832,-10.498
59,1437992083201,-43.847,-20.832,-10.498
60,1437992083221,-43.847,-20.832,-10.498
61,1437992083242,-43.847,-20.832,-10.498
62,1437992083258,-43.847,-20.832,-10.498
63,1437992083281,-43.847,-20.832,-10.498
64,1437992083302,-43.847,-20.832,-10.498
65,1437992083322,-43.847,-20.832,-10.498
66,1437992083343,-43.847,-20.832,-10.498
67,1437992083359,-43.847,-20.832,-10.498
68,1437992083381,-43.847,-20.832,-10.498
69,1437992083402,-43.847,-20.832,-10.498
70,1437992083421,-43.847,-20.832,-10.498
71,1437992083443,-43.847,-20.832,-10.498
72,1437992083461,-43.847,-20.832,-10.498
73,1437992083482,-43.847,-20.832,-10.498
74,1437992083500,-43.847,-20.832,-10.498
75,1437992083522,-43.847,-20.832,-10.498
76,1437992083543,-43.847,-20.832,-10.498
77,1437992083562,-43.847,-20.832,-10.498
78,1437992083582,-43.847,-20.832,-10.498
79,1437992083601,-43.847,-20.832,-10.498
80,1437992083624,-43.847,-20.832,-10.498
81,1437992083694,-43.847,-20.832,-10.498
82,1437992083695,-43.847,-20.832,-10.498
83,1437992083696,-43.847,-20.832,-10.498
84,1437992083712,-43.847,-20.832,-10.498
85,1437992083725,-43.847,-20.832,-10.498
86,1437992083744,-43.847,-20.832,-10.498
87,1437992083774,-43.847,-20.832,-10.498
88,1437992083781,-43.847,-20.832,-10.498
89,1437992083799,-43.847,-20.832,-10.498
90,1437992083823,-43.847,-20.832,-10.498
91,1437992083847,-43.847,-20.832,-10.498
92,1437992083859,-43.847,-20.832,-10.498
93,1437992083888,-43.847,-20.832,-10.498
94,1437992083900,-43.847,-20.832,-10.498
95,1437992083920,-43.847,-20.832,-10.498
96,1437992083942,-43.847,-20.832,-10.498
97,1437992083961,-43.847,-20.832,-10.498
98,1437992083982,-43.847,-20.832,-10.498
99,1437992084002,-43.847,-20.832,-10.498
100,1437992084022,-43.847,-20.832,-10.498
101,1437992084042,-43.847,-20.832,-10.498
102,1437992084061,-43.847,-20.832,-10.498
103,1437992084082,-43.847,-20.832,-10.498
104,1437992084103,-43.847,-20.832,-10.498
105,1437992084119,-43.847,-20.832,-10.498
106,1437992084142,-43.847,-20.832,-10.498
107,1437992084161,-43.847,-20.832,-10.498
108,1437992084179,-43.847,-20.832,-10.498
109,1437992084201,-43.847,-20.832,-10.498
110,1437992084222,-43.847,-20.832,-10.498
111,1437992084243,-43.847,-20.832,-10.498
112,1437992084260,-43.847,-20.832,-10.498
113,1437992084283,-43.847,-20.832,-10.498
114,1437992084303,-43.847,-20.832,-10.498
115,1437992084323,-43.847,-20.832,-10.498
116,1437992084343,-43.847,-20.832,-10.498
117,1437992084361,-43.847,-20.832,-10.498
118,1437992084381,-43.847,-20.832,-10.498
119,1437992084440,-43.847,-20.832,-10.498
120,1437992084441,-43.847,-20.832,-10.498
121,1437992084442,-43.847,-20.832,-10.498
122,1437992084463,-43.847,-20.832,-10.498
123,1437992084480,-43.847,-20.832,-10.498
124,1437992084504,-43.847,-20.832,-10.498
125,1437992084520,-43.847,-20.832,-10.498
126,1437992084546,-43.847,-20.832,-10.498
127,1437992084561,-43.847,-20.832,-10.498
128,1437992084581,-43.847,-20.832,-10.498
129,1437992084608,-43.847,-20.832,-10.498
130,1437992084621,-43.847,-20.832,-10.498
131,1437992084644,-43.847,-20.832,-10.498
132,1437992084662,-43.847,-20.832,-10.498
133,1437992084683,-43.847,-20.832,-10.498
134,1437992084703,-43.847,-20.832,-10.498
135,1437992084720,-43.847,-20.832,-10.498
136,1437992084741,-43.847,-20.832,-10.498
137,1437992084764,-43.847,-20.832,-10.498
138,1437992084782,-43.847,-20.832,-10.498
139,1437992084802,-43.847,-20.832,-10.498
140,1437992084823,-43.847,-20.832,-10.498
141,1437992084841,-43.847,-20.832,-10.498
142,1437992084863,-43.847,-20.832,-10.498
143,1437992084882,-43.847,-20.832,-10.498
144,1437992084902,-43.847,-20.832,-10.498
145,1437992084923,-43.847,-20.832,-10.498
146,1437992084943,-43.847,-20.832,-10.498
147,1437992084964,-43.847,-20.832,-10.498
148,1437992084983,-43.847,-20.832,-10.498
149,1437992085004,-43.847,-20.832,-10.498
150,1437992085023,-43.847,-20.832,-10.498
151,1437992085043,-43.847,-20.832,-10.498
152,1437992085063,-43.847,-20.832,-10.498
153,1437992085082,-43.847,-20.832,-10.498
154,1437992085109,-43.847,-20.832,-10.498
155,1437992085183,-43.847,-20.832,-10.498
156,1437992085184,-43.847,-20.832,-10.498
157,1437992085185,-43.847,-20.832,-10.498
158,1437992085186,-43.847,-20.832,-10.498
159,1437992085202,-43.847,-20.832,-10.498
160,1437992085225,-43.847,-20.832,-10.498
161,1437992085242,-43.847,-20.832,-10.498
162,1437992085261,-43.847,-20.832,-10.498
163,1437992085281,-43.847,-20.832,-10.498
164,1437992085302,-43.847,-20.832,-10.498
165,1437992085322,-43.847,-20.832,-10.498
166,1437992085368,-43.847,-20.832,-10.498
167,1437992085369,-43.847,-20.832,-10.498
168,1437992085387,-43.847,-20.832,-10.498
169,1437992085414,-43.847,-20.832,-10.498
170,1437992085423,-43.847,-20.832,-10.498
171,1437992085441,-43.847,-20.832,-10.498
172,1437992085461,-43.847,-20.832,-10.498
173,1437992085481,-43.847,-20.832,-10.498
174,1437992085501,-43.847,-20.832,-10.498
175,1437992085573,-43.847,-20.832,-10.498
176,1437992085574,-43.847,-20.832,-10.498
177,1437992085575,-43.847,-20.832,-10.498
178,1437992085581,-43.847,-20.832,-10.498
179,1437992085601,-43.847,-20.832,-10.498
180,1437992085622,-43.847,-20.832,-10.498
181,1437992085641,-43.847,-20.832,-10.498
182,1437992085661,-43.847,-20.832,-10.498
183,1437992085681,-43.847,-20.832,-10.498
184,1437992085701,-43.847,-20.832,-10.498
185,1437992085725,-43.847,-20.832,-10.498
186,1437992085743,-43.847,-20.832,-10.498
187,1437992085760,-43.847,-20.832,-10.498
188,1437992085780,-43.847,-20.832,-10.498
189,1437992085803,-43.847,-20.832,-10.498
190,1437992085821,-43.847,-20.832,-10.498
191,1437992085844,-43.847,-20.832,-10.498
192,1437992085863,-43.847,-20.832,-10.498
193,1437992085882,-43.847,-20.832,-10.498
194,1437992085900,-43.847,-20.832,-10.498
195,1437992085921,-43.847,-20.832,-10.498
196,1437992085945,-43.847,-20.832,-10.498
197,1437992085961,-43.847,-20.832,-10.498
198,1437992085980,-43.847,-20.832,-10.498
199,1437992086003,-43.847,-20.832,-10.498
200,1437992086026,-43.847,-20.832,-10.498
201,1437992086045,-43.847,-20.832,-10.498
202,1437992086062,-43.847,-20.832,-10.498
203,1437992086085,-43.847,-20.832,-10.498
204,1437992086105,-43.847,-20.832,-10.498
205,1437992086126,-43.847,-20.832,-10.498
206,1437992086142,-43.847,-20.832,-10.498
207,1437992086165,-43.847,-20.832,-10.498
208,1437992086185,-43.847,-20.832,-10.498
209,1437992086205,-43.847,-20.832,-10.498
210,1437992086221,-43.847,-20.832,-10.498
211,1437992086242,-43.847,-20.832,-10.498
212,1437992086262,-43.847,-20.832,-10.498
213,1437992086284,-43.847,-20.832,-10.498
214,1437992086304,-43.847,-20.832,-10.498
215,1437992086325,-43.847,-20.832,-10.498
216,1437992086343,-43.847,-20.832,-10.498
217,1437992086365,-43.847,-20.832,-10.498
218,1437992086383,-43.847,-20.832,-10.498
219,1437992086402,-43.847,-20.832,-10.498
220,1437992086423,-43.847,-20.832,-10.498
221,1437992086442,-43.847,-20.832,-10.498
222,1437992086462,-43.847,-20.832,-10.498
223,1437992086482,-43.847,-20.832,-10.498
224,1437992086549,-43.847,-20.832,-10.498
225,1437992086550,-43.847,-20.832,-10.498
226,1437992086551,-43.847,-20.832,-10.498
227,1437992086569,-43.847,-20.832,-10.498
228,1437992086582,-43.847,-20.832,-10.498
229,1437992086606,-43.847,-20.832,-10.498
230,1437992086621,-43.847,-20.832,-10.498
231,1437992086642,-43.847,-20.832,-10.498
232,1437992086664,-43.847,-20.832,-10.498
233,1437992086683,-43.847,-20.832,-10.498
234,1437992086703,-43.847,-20.832,-10.498
235,1437992086724,-43.847,-20.832,-10.498
236,1437992086742,-43.847,-20.832,-10.498
237,1437992086765,-43.847,-20.832,-10.498
238,1437992086787,-43.847,-20.832,-10.498
239,1437992086805,-43.847,-20.832,-10.498
240,1437992086826,-43.847,-20.832,-10.498
241,1437992086845,-43.847,-20.832,-10.498
242,1437992086865,-43.847,-20.832,-10.498
243,1437992086886,-43.847,-20.832,-10.498
244,1437992086906,-43.847,-20.832,-10.498
245,1437992086925,-43.847,-20.832,-10.498
246,1437992086945,-43.847,-20.832,-10.498
247,1437992086963,-43.847,-20.832,-10.498
248,1437992086985,-43.847,-20.832,-10.498
249,1437992087005,-43.847,-20.832,-10.498
250,1437992087024,-43.847,-20.832,-10.498
251,1437992087045,-43.847,-20.832,-10.498
252,1437992087062,-43.847,-20.832,-10.498
253,1437992087085,-43.847,-20.832,-10.498
254,1437992087107,-43.847,-20.832,-10.498
255,1437992087126,-43.847,-20.832,-10.498
256,1437992087142,-43.847,-20.832,-10.498
257,1437992087163,-43.847,-20.832,-10.498
258,1437992087184,-43.847,-20.832,-10.498
259,1437992087204,-43.847,-20.832,-10.498
260,1437992087223,-43.847,-20.832,-10.498
261,1437992087243,-43.847,-20.832,-10.876
262,1437992087316,-43.847,-20.832,-10.876
263,1437992087317,-43.847,-20.832,-10.876
264,1437992087318,-43.847,-20.504,-10.876
265,1437992087325,-43.847,-20.504,-11.28
266,1437992087343,-43.847,-20.504,-11.28
267,1437992087364,-43.847,-20.504,-11.28
268,1437992087382,-43.847,-20.504,-11.674
269,1437992087402,-43.547,-20.504,-11.674
270,1437992087425,-43.547,-20.153,-11.987
271,1437992087444,-43.547,-20.153,-11.987
272,1437992087463,-43.547,-20.153,-12.292
273,1437992087484,-43.547,-20.153,-12.292
274,1437992087505,-43.547,-20.153,-12.292
275,1437992087526,-43.547,-20.153,-12.594
276,1437992087546,-43.547,-20.153,-12.594
277,1437992087566,-43.547,-20.153,-12.594
278,1437992087586,-43.547,-20.153,-12.594
279,1437992087606,-43.547,-20.153,-13.002
280,1437992087626,-43.547,-20.153,-13.002
281,1437992087646,-43.547,-20.153,-13.002
282,1437992087666,-43.547,-20.153,-13.002
283,1437992087686,-43.547,-20.153,-13.002
284,1437992087704,-43.547,-20.153,-13.002
285,1437992087724,-43.547,-20.153,-13.002
286,1437992087742,-43.223,-20.153,-13.002
287,1437992087765,-43.223,-20.153,-13.002
288,1437992087783,-43.223,-20.527,-12.637
289,1437992087804,-43.223,-20.527,-12.637
290,1437992087827,-43.223,-20.527,-12.637
291,1437992087848,-43.223,-20.906,-12.295
292,1437992087868,-43.223,-20.906,-12.295
293,1437992087883,-43.223,-20.906,-12.295
294,1437992087903,-43.223,-21.315,-12.295
295,1437992087923,-43.223,-21.315,-12.295
296,1437992087943,-43.223,-21.315,-12.295
297,1437992087963,-42.869,-21.719,-12.295
298,1437992087986,-42.869,-21.719,-12.295
299,1437992088055,-42.869,-22.023,-12.295
300,1437992088056,-42.372,-22.023,-12.295
301,1437992088057,-42.057,-22.329,-12.295
302,1437992088065,-41.709,-22.329,-13.185
303,1437992088083,-41.358,-22.329,-14.274
304,1437992088105,-40.884,-22.721,-15.264
305,1437992088123,-40.443,-22.721,-16.059
306,1437992088144,-40.443,-22.721,-16.851
307,1437992088165,-39.546,-23.083,-17.639
308,1437992088184,-39.228,-23.083,-18.385
309,1437992088205,-39.228,-23.083,-19.264
310,1437992088224,-39.228,-23.083,-18.865
311,1437992088246,-39.624,-23.083,-18.453
312,1437992088264,-39.624,-23.083,-18.453
313,1437992088287,-39.624,-23.083,-18.453
314,1437992088305,-39.624,-23.083,-17.965
315,1437992088326,-39.624,-23.083,-17.965
316,1437992088346,-39.624,-21.685,-17.965
317,1437992088366,-39.624,-20.355,-18.325
318,1437992088386,-39.624,-19.415,-18.899
319,1437992088405,-39.306,-18.368,-19.346
320,1437992088426,-39.306,-17.535,-19.729
321,1437992088446,-39.306,-17.535,-21.015
322,1437992088464,-39.004,-16.903,-21.899
323,1437992088487,-39.004,-16.903,-23.634
324,1437992088503,-39.004,-16.259,-25.076
325,1437992088524,-38.545,-15.718,-26.489
326,1437992088544,-37.532,-15.718,-27.864
327,1437992088568,-36.288,-15.266,-28.72
328,1437992088588,-34.962,-15.266,-30.015
329,1437992088607,-33.508,-15.266,-30.828
330,1437992088626,-32.539,-15.266,-31.861
331,1437992088644,-31.48,-15.603,-32.305
332,1437992088664,-30.926,-15.603,-33.18
333,1437992088684,-29.975,-16.078,-33.18
334,1437992088705,-29.228,-16.078,-34.271
335,1437992088817,-28.324,-16.078,-34.271
336,1437992088818,-27.796,-16.078,-34.822
337,1437992088819,-26.724,-16.078,-35.591
338,1437992088820,-26.019,-16.078,-35.591
339,1437992088821,-25.148,-16.078,-36.288
340,1437992088830,-24.534,-16.078,-36.288
341,1437992088845,-23.854,-16.078,-36.744
342,1437992088864,-22.792,-16.078,-37.077
343,1437992088884,-21.902,-16.523,-37.664
344,1437992088904,-21.023,-16.523,-38.073
345,1437992088926,-20.147,-17.074,-38.481
346,1437992088945,-19.247,-17.074,-38.481
347,1437992088965,-18.467,-17.381,-38.481
348,1437992088986,-17.478,-17.381,-39.231
349,1437992089005,-16.577,-17.381,-39.561
350,1437992089026,-15.391,-17.381,-39.933
351,1437992089047,-14.21,-17.381,-40.553
352,1437992089069,-12.902,-17.811,-40.884
353,1437992089087,-11.79,-17.811,-40.884
354,1437992089106,-10.122,-17.811,-40.884
355,1437992089125,-8.636,-18.257,-40.884
356,1437992089145,-7.061,-18.257,-41.564
357,1437992089167,-5.947,-18.595,-41.564
358,1437992089187,-3.956,-18.595,-41.564
359,1437992089208,-1.467,-18.916,-41.877
360,1437992089225,0.065,-18.916,-41.877
361,1437992089247,1.629,-18.916,-42.254
362,1437992089265,3.085,-18.916,-42.254
363,1437992089285,4.624,-18.916,-42.254
364,1437992089304,6.246,-18.916,-42.988
365,1437992089328,7.907,-18.916,-42.988
366,1437992089348,9.761,-17.495,-42.649
367,1437992089368,11.511,-15.647,-42.649
368,1437992089387,13.059,-14.143,-42.649
369,1437992089405,14.324,-12.701,-43.009
370,1437992089424,15.776,-11.422,-43.009
371,1437992089445,17.034,-10.034,-43.009
372,1437992089465,18.493,-8.671,-43.009
373,1437992089485,19.83,-7.716,-43.009
374,1437992089552,20.687,-6.634,-43.009
375,1437992089553,21.032,-5.673,-43.009
376,1437992089554,21.769,-4.82,-43.009
377,1437992089564,21.769,-4.292,-43.009
378,1437992089584,21.769,-3.758,-43.009
379,1437992089605,21.769,-3.358,-43.009
380,1437992089624,21.769,-3.358,-43.009
381,1437992089646,22.805,-3.358,-43.009
382,1437992089664,22.805,-3.358,-43.009
383,1437992089688,22.805,-3.001,-42.514
384,1437992089709,22.805,-3.637,-42.514
385,1437992089725,22.805,-3.637,-42.514
386,1437992089745,22.805,-4.188,-42.196
387,1437992089766,23.41,-4.933,-42.196
388,1437992089788,23.814,-5.43,-41.787
389,1437992089805,23.814,-5.43,-41.787
390,1437992089826,23.814,-6.298,-41.38
391,1437992089845,23.814,-6.298,-41.38
392,1437992089866,23.814,-5.975,-41.03
393,1437992089888,23.814,-6.292,-41.03
394,1437992089905,23.814,-6.292,-41.03
395,1437992089926,24.574,-6.9,-40.588
396,1437992089946,25.28,-6.9,-40.588
397,1437992089966,25.634,-6.9,-40.266
398,1437992089988,26.068,-6.9,-40.266
399,1437992090005,26.068,-6.9,-39.842
400,1437992090026,26.502,-6.9,-39.431
401,1437992090046,26.502,-6.9,-39.431
402,1437992090066,26.502,-7.35,-39.431
403,1437992090086,26.502,-7.35,-39.431
404,1437992090107,26.502,-7.35,-39.076
405,1437992090129,26.502,-7.35,-39.076
406,1437992090147,26.502,-7.35,-39.076
407,1437992090166,26.502,-7.748,-38.76
408,1437992090186,26.502,-7.748,-38.76
409,1437992090210,26.502,-8.056,-38.76
410,1437992090279,26.502,-8.056,-38.76
411,1437992090280,26.502,-8.056,-38.76
412,1437992090281,26.119,-8.056,-38.76
413,1437992090288,24.983,-8.056,-38.76
414,1437992090305,24.018,-8.056,-38.76
415,1437992090325,23.158,-8.056,-38.76
416,1437992090345,22.351,-8.056,-39.195
417,1437992090368,21.583,-8.056,-39.779
418,1437992090385,21.057,-8.056,-39.779
419,1437992090408,20.71,-8.393,-40.345
420,1437992090431,20.71,-8.393,-40.345
421,1437992090446,20.71,-8.393,-40.345
422,1437992090465,20.71,-8.393,-40.669
423,1437992090489,21.2,-8.393,-40.669
424,1437992090508,21.505,-8.393,-40.669
425,1437992090529,21.505,-8.393,-40.669
426,1437992090546,21.984,-8.393,-41.056
427,1437992090567,21.984,-8.393,-41.056
428,1437992090589,21.984,-8.393,-41.056
429,1437992090609,21.984,-8.393,-41.056
430,1437992090629,21.984,-8.393,-41.358
431,1437992090648,21.984,-8.393,-41.358
432,1437992090671,21.681,-8.393,-41.358
433,1437992090689,21.681,-8.393,-41.358
434,1437992090711,21.981,-8.393,-41.358
435,1437992090726,21.981,-8.393,-41.358
436,1437992090751,21.981,-8.393,-41.358
437,1437992090766,21.981,-8.393,-41.358
438,1437992090788,21.981,-8.702,-41.358
439,1437992090805,21.981,-8.702,-41.358
440,1437992090825,22.357,-8.702,-41.358
441,1437992090845,22.357,-9.046,-41.02
442,1437992090866,22.357,-9.046,-41.02
443,1437992090886,22.669,-9.046,-41.02
444,1437992090907,22.669,-9.439,-41.02
445,1437992090930,22.669,-9.439,-41.02
446,1437992090987,22.669,-9.439,-40.705
447,1437992090988,22.669,-9.877,-40.705
448,1437992090989,22.669,-9.877,-40.705
449,1437992091007,22.669,-9.877,-40.705
450,1437992091027,22.669,-10.258,-40.705
451,1437992091050,22.669,-10.258,-40.705
452,1437992091066,22.669,-10.258,-40.705
453,1437992091087,22.669,-10.258,-40.705
454,1437992091107,22.669,-10.258,-40.705
455,1437992091127,22.669,-10.258,-40.705
456,1437992091149,22.669,-10.258,-40.705
457,1437992091168,22.669,-9.69,-40.705
458,1437992091187,22.669,-8.911,-40.705
459,1437992091238,22.669,-8.325,-40.705
460,1437992091239,22.669,-8.009,-40.705
461,1437992091251,22.669,-8.009,-40.705
462,1437992091267,22.669,-8.009,-40.705
463,1437992091288,22.669,-8.009,-40.705
464,1437992091309,23.019,-8.009,-40.705
465,1437992091328,23.019,-8.009,-40.705
466,1437992091349,23.019,-8.009,-40.705
467,1437992091367,23.019,-8.009,-40.705
468,1437992091388,23.019,-8.009,-40.705
469,1437992091408,23.019,-8.009,-40.705
470,1437992091428,23.019,-8.009,-40.705
471,1437992091449,23.365,-8.009,-40.705
472,1437992091467,23.365,-8.009,-40.705
473,1437992091490,23.365,-8.009,-40.705
474,1437992091508,23.365,-8.009,-40.705
475,1437992091527,23.365,-8.009,-40.705
476,1437992091548,23.365,-8.009,-40.705
477,1437992091571,23.365,-8.512,-40.705
478,1437992091586,23.365,-8.859,-40.705
479,1437992091606,23.365,-9.257,-40.705
480,1437992091630,23.365,-9.257,-40.705
481,1437992091648,23.365,-9.727,-40.705
482,1437992091667,23.365,-9.727,-40.705
483,1437992091782,23.365,-10.032,-40.705
484,1437992091783,23.365,-10.032,-40.705
485,1437992091784,23.365,-10.032,-40.705
486,1437992091785,23.365,-10.032,-40.705
