id,attr_time,attr_light
1,1437227272039,18.0
2,1437227272040,18.0
3,1437227272041,18.0
4,1437227272048,18.0
5,1437227272065,18.0
6,1437227272088,18.0
7,1437227272106,18.0
8,1437227272127,18.0
9,1437227272145,18.0
10,1437227272167,18.0
11,1437227272186,18.0
12,1437227272208,18.0
13,1437227272229,18.0
14,1437227272248,18.0
15,1437227272268,18.0
16,1437227272288,18.0
17,1437227272308,18.0
18,1437227272328,18.0
19,1437227272348,18.0
20,1437227272368,18.0
21,1437227272388,18.0
22,1437227272408,18.0
23,1437227272429,18.0
24,1437227272448,18.0
25,1437227272469,18.0
26,1437227272489,18.0
27,1437227272509,18.0
28,1437227272528,18.0
29,1437227272548,18.0
30,1437227272568,18.0
31,1437227272589,18.0
32,1437227272609,18.0
33,1437227272629,18.0
34,1437227272647,18.0
35,1437227272760,18.0
36,1437227272761,18.0
37,1437227272762,18.0
38,1437227272763,18.0
39,1437227272764,18.0
40,1437227272788,18.0
41,1437227272789,18.0
42,1437227272811,18.0
43,1437227272826,18.0
44,1437227272847,18.0
45,1437227272874,18.0
46,1437227272885,18.0
47,1437227272908,18.0
48,1437227272926,18.0
49,1437227272949,18.0
50,1437227272969,18.0
51,1437227272988,18.0
52,1437227273009,18.0
53,1437227273029,18.0
54,1437227273049,18.0
55,1437227273069,18.0
56,1437227273089,18.0
57,1437227273109,18.0
58,1437227273131,18.0
59,1437227273146,18.0
60,1437227273171,18.0
61,1437227273188,18.0
62,1437227273207,18.0
63,1437227273227,18.0
64,1437227273252,18.0
65,1437227273272,18.0
66,1437227273293,18.0
67,1437227273309,18.0
68,1437227273328,18.0
69,1437227273348,18.0
70,1437227273368,18.0
71,1437227273389,18.0
72,1437227273412,18.0
73,1437227273478,18.0
74,1437227273479,18.0
75,1437227273480,18.0
76,1437227273487,18.0
77,1437227273516,18.0
78,1437227273530,18.0
79,1437227273546,18.0
80,1437227273567,18.0
81,1437227273587,18.0
82,1437227273608,18.0
83,1437227273638,18.0
84,1437227273647,18.0
85,1437227273672,18.0
86,1437227273694,18.0
87,1437227273708,18.0
88,1437227273728,18.0
89,1437227273749,18.0
90,1437227273770,18.0
91,1437227273790,18.0
92,1437227273810,18.0
93,1437227273830,18.0
94,1437227273850,18.0
95,1437227273873,18.0
96,1437227273890,18.0
97,1437227273910,18.0
98,1437227273936,18.0
99,1437227273947,18.0
100,1437227273967,18.0
101,1437227274044,18.0
102,1437227274045,18.0
103,1437227274049,18.0
104,1437227274050,18.0
105,1437227274067,18.0
106,1437227274088,18.0
107,1437227274108,18.0
108,1437227274128,18.0
109,1437227274200,18.0
110,1437227274201,18.0
111,1437227274202,18.0
112,1437227274219,18.0
113,1437227274228,19.0
114,1437227274247,19.0
115,1437227274270,19.0
116,1437227274287,19.0
117,1437227274312,19.0
118,1437227274328,19.0
119,1437227274349,19.0
120,1437227274368,19.0
121,1437227274389,19.0
122,1437227274408,19.0
123,1437227274428,19.0
124,1437227274480,19.0
125,1437227274481,19.0
126,1437227274489,19.0
127,1437227274510,19.0
128,1437227274530,19.0
129,1437227274550,19.0
130,1437227274571,19.0
131,1437227274590,19.0
132,1437227274609,19.0
133,1437227274628,19.0
134,1437227274648,19.0
135,1437227274670,19.0
136,1437227274696,19.0
137,1437227274709,19.0
138,1437227274728,19.0
139,1437227274749,19.0
140,1437227274774,19.0
141,1437227274791,19.0
142,1437227274809,19.0
143,1437227274848,19.0
144,1437227274849,19.0
145,1437227274868,19.0
146,1437227274887,19.0
147,1437227274922,19.0
148,1437227274932,19.0
149,1437227274948,19.0
150,1437227274968,19.0
151,1437227274988,19.0
152,1437227275008,19.0
153,1437227275028,19.0
154,1437227275061,19.0
155,1437227275078,19.0
156,1437227275088,19.0
157,1437227275108,19.0
158,1437227275128,19.0
159,1437227275150,19.0
160,1437227275171,19.0
161,1437227275191,19.0
162,1437227275211,19.0
163,1437227275231,19.0
164,1437227275251,19.0
165,1437227275271,19.0
166,1437227275291,19.0
167,1437227275311,19.0
168,1437227275332,19.0
169,1437227275348,19.0
170,1437227275371,19.0
171,1437227275391,19.0
172,1437227275410,19.0
173,1437227275431,19.0
174,1437227275451,19.0
175,1437227275472,19.0
176,1437227275491,19.0
177,1437227275512,19.0
178,1437227275531,19.0
179,1437227275552,19.0
180,1437227275572,19.0
181,1437227275592,19.0
182,1437227275613,19.0
183,1437227275758,19.0
184,1437227275759,19.0
185,1437227275760,19.0
186,1437227275761,19.0
187,1437227275762,19.0
188,1437227275763,19.0
189,1437227275764,19.0
190,1437227275769,19.0
191,1437227275789,19.0
192,1437227275809,19.0
193,1437227275830,19.0
194,1437227275848,19.0
195,1437227275871,19.0
196,1437227275893,19.0
197,1437227275910,19.0
198,1437227275932,19.0
199,1437227275949,19.0
200,1437227275969,19.0
201,1437227275989,19.0
202,1437227276010,19.0
203,1437227276031,19.0
204,1437227276051,19.0
205,1437227276072,19.0
206,1437227276092,19.0
207,1437227276112,19.0
208,1437227276130,19.0
209,1437227276152,19.0
210,1437227276171,19.0
211,1437227276191,19.0
212,1437227276212,19.0
213,1437227276231,19.0
214,1437227276249,19.0
215,1437227276272,19.0
216,1437227276290,19.0
217,1437227276311,19.0
218,1437227276332,19.0
219,1437227276350,19.0
220,1437227276371,19.0
221,1437227276398,19.0
222,1437227276461,19.0
223,1437227276462,19.0
224,1437227276463,19.0
225,1437227276470,19.0
226,1437227276497,19.0
227,1437227276510,19.0
228,1437227276530,19.0
229,1437227276551,19.0
230,1437227276570,19.0
231,1437227276591,19.0
232,1437227276610,19.0
233,1437227276631,19.0
234,1437227276652,19.0
235,1437227276670,19.0
236,1437227276694,20.0
237,1437227276710,20.0
238,1437227276733,20.0
239,1437227276751,20.0
240,1437227276771,20.0
241,1437227276793,20.0
242,1437227276813,20.0
243,1437227276832,20.0
244,1437227276851,20.0
245,1437227276873,19.0
246,1437227276892,19.0
247,1437227276912,19.0
248,1437227276929,19.0
249,1437227276952,19.0
250,1437227276973,19.0
251,1437227276994,19.0
252,1437227277013,19.0
253,1437227277033,19.0
254,1437227277050,19.0
255,1437227277071,19.0
256,1437227277091,19.0
257,1437227277157,19.0
258,1437227277158,19.0
259,1437227277159,19.0
260,1437227277178,19.0
261,1437227277190,19.0
262,1437227277210,20.0
263,1437227277230,20.0
264,1437227277250,21.0
265,1437227277271,21.0
266,1437227277292,22.0
267,1437227277312,20.0
268,1437227277331,20.0
269,1437227277351,17.0
270,1437227277371,17.0
271,1437227277393,16.0
272,1437227277412,16.0
273,1437227277431,17.0
274,1437227277453,17.0
275,1437227277473,17.0
276,1437227277493,17.0
277,1437227277513,17.0
278,1437227277533,16.0
279,1437227277552,16.0
280,1437227277571,15.0
281,1437227277594,15.0
282,1437227277614,14.0
283,1437227277638,14.0
284,1437227277654,13.0
285,1437227277675,13.0
286,1437227277696,12.0
287,1437227277716,12.0
288,1437227277733,12.0
289,1437227277753,12.0
290,1437227277773,12.0
291,1437227277793,12.0
292,1437227277812,12.0
293,1437227277877,11.0
294,1437227277878,11.0
295,1437227277879,11.0
296,1437227277901,11.0
297,1437227277911,11.0
298,1437227277933,11.0
299,1437227277952,11.0
300,1437227277971,11.0
301,1437227277993,11.0
302,1437227278011,11.0
303,1437227278032,11.0
304,1437227278052,11.0
305,1437227278073,11.0
306,1437227278091,11.0
307,1437227278114,11.0
308,1437227278132,11.0
309,1437227278154,11.0
310,1437227278174,12.0
311,1437227278192,12.0
312,1437227278214,12.0
313,1437227278233,12.0
314,1437227278252,12.0
315,1437227278274,11.0
316,1437227278292,11.0
317,1437227278314,11.0
318,1437227278335,11.0
319,1437227278352,12.0
320,1437227278372,12.0
321,1437227278393,12.0
322,1437227278414,12.0
323,1437227278432,12.0
324,1437227278454,12.0
325,1437227278475,12.0
326,1437227278492,12.0
327,1437227278511,12.0
328,1437227278541,12.0
329,1437227278612,12.0
330,1437227278613,11.0
331,1437227278614,11.0
332,1437227278615,11.0
333,1437227278644,11.0
334,1437227278688,11.0
335,1437227278689,11.0
336,1437227278692,11.0
337,1437227278712,11.0
338,1437227278765,11.0
339,1437227278766,11.0
340,1437227278771,11.0
341,1437227278792,10.0
342,1437227278812,10.0
343,1437227278832,9.0
344,1437227278852,9.0
345,1437227278873,9.0
346,1437227278892,8.0
347,1437227278912,8.0
348,1437227278931,8.0
349,1437227278952,8.0
350,1437227278972,8.0
351,1437227278992,8.0
352,1437227279012,8.0
353,1437227279032,8.0
354,1437227279052,8.0
355,1437227279071,8.0
356,1437227279090,8.0
357,1437227279112,8.0
358,1437227279134,8.0
359,1437227279154,8.0
360,1437227279171,8.0
361,1437227279194,8.0
362,1437227279211,8.0
363,1437227279235,8.0
364,1437227279252,8.0
365,1437227279275,8.0
366,1437227279297,8.0
367,1437227279311,8.0
368,1437227279331,8.0
369,1437227279351,8.0
370,1437227279375,8.0
371,1437227279392,8.0
372,1437227279412,8.0
373,1437227279433,8.0
374,1437227279456,8.0
375,1437227279476,8.0
376,1437227279498,8.0
377,1437227279513,8.0
378,1437227279536,8.0
379,1437227279556,9.0
380,1437227279571,9.0
381,1437227279596,9.0
382,1437227279613,9.0
383,1437227279637,9.0
384,1437227279654,9.0
385,1437227279679,9.0
386,1437227279695,9.0
387,1437227279712,9.0
388,1437227279733,9.0
389,1437227279755,9.0
390,1437227279772,9.0
391,1437227279792,9.0
392,1437227279816,9.0
393,1437227279836,9.0
394,1437227279855,9.0
395,1437227279873,9.0
396,1437227279900,9.0
397,1437227279941,9.0
398,1437227279942,9.0
399,1437227279957,8.0
400,1437227279978,8.0
401,1437227279996,8.0
402,1437227280012,8.0
403,1437227280032,7.0
404,1437227280053,7.0
405,1437227280073,7.0
406,1437227280093,7.0
407,1437227280117,7.0
408,1437227280136,7.0
409,1437227280153,7.0
410,1437227280175,7.0
411,1437227280196,7.0
412,1437227280217,7.0
413,1437227280236,7.0
414,1437227280256,7.0
415,1437227280275,7.0
416,1437227280296,7.0
417,1437227280315,7.0
418,1437227280334,7.0
419,1437227280356,7.0
420,1437227280375,7.0
421,1437227280396,7.0
422,1437227280414,7.0
423,1437227280436,7.0
424,1437227280456,7.0
425,1437227280476,7.0
426,1437227280496,7.0
427,1437227280517,7.0
428,1437227280537,7.0
429,1437227280557,7.0
430,1437227280574,7.0
431,1437227280597,8.0
432,1437227280721,8.0
433,1437227280722,8.0
434,1437227280746,8.0
435,1437227280747,8.0
436,1437227280748,8.0
437,1437227280749,8.0
438,1437227280750,8.0
439,1437227280785,8.0
440,1437227280786,8.0
441,1437227280800,8.0
442,1437227280825,8.0
443,1437227280844,8.0
444,1437227280853,8.0
445,1437227280877,8.0
446,1437227280893,8.0
447,1437227280916,8.0
448,1437227280936,8.0
449,1437227280957,8.0
450,1437227280977,8.0
451,1437227280997,8.0
452,1437227281017,8.0
453,1437227281034,8.0
454,1437227281054,7.0
455,1437227281072,7.0
456,1437227281095,7.0
457,1437227281117,7.0
458,1437227281136,6.0
459,1437227281155,6.0
460,1437227281174,7.0
461,1437227281193,7.0
462,1437227281218,7.0
463,1437227281238,7.0
464,1437227281256,7.0
465,1437227281276,7.0
466,1437227281294,7.0
467,1437227281314,7.0
468,1437227281333,7.0
469,1437227281356,7.0
470,1437227281376,7.0
471,1437227281401,7.0
472,1437227281433,7.0
473,1437227281434,7.0
474,1437227281457,7.0
475,1437227281475,7.0
476,1437227281493,7.0
477,1437227281514,7.0
478,1437227281535,7.0
479,1437227281554,7.0
480,1437227281577,7.0
481,1437227281597,7.0
482,1437227281614,7.0
483,1437227281641,7.0
484,1437227281660,7.0
485,1437227281678,7.0
486,1437227281697,7.0
487,1437227281717,8.0
488,1437227281737,8.0
489,1437227281757,8.0
490,1437227281776,8.0
491,1437227281796,8.0
492,1437227281818,8.0
493,1437227281836,9.0
494,1437227281857,9.0
495,1437227281875,9.0
496,1437227281898,10.0
497,1437227281918,10.0
498,1437227281938,10.0
499,1437227281958,10.0
500,1437227281976,10.0
501,1437227281997,10.0
502,1437227282017,10.0
503,1437227282037,10.0
504,1437227282056,11.0
505,1437227282129,11.0
506,1437227282130,12.0
507,1437227282131,12.0
508,1437227282137,12.0
509,1437227282164,11.0
510,1437227282178,11.0
511,1437227282195,11.0
512,1437227282217,11.0
513,1437227282235,10.0
514,1437227282260,10.0
515,1437227282275,10.0
516,1437227282298,10.0
517,1437227282320,10.0
518,1437227282338,10.0
519,1437227282358,10.0
520,1437227282378,10.0
521,1437227282398,10.0
522,1437227282418,10.0
523,1437227282438,10.0
524,1437227282458,10.0
525,1437227282478,10.0
526,1437227282500,10.0
527,1437227282517,10.0
528,1437227282538,10.0
529,1437227282557,11.0
530,1437227282577,11.0
531,1437227282597,11.0
532,1437227282619,11.0
533,1437227282641,11.0
534,1437227282663,11.0
535,1437227282678,11.0
536,1437227282701,11.0
537,1437227282719,11.0
538,1437227282737,11.0
539,1437227282764,11.0
540,1437227282836,11.0
541,1437227282837,11.0
542,1437227282838,11.0
543,1437227282839,11.0
544,1437227282857,11.0
545,1437227282877,11.0
546,1437227282897,12.0
547,1437227282917,12.0
548,1437227282941,14.0
549,1437227282963,14.0
550,1437227282978,15.0
551,1437227283002,17.0
552,1437227283020,17.0
553,1437227283039,19.0
554,1437227283059,19.0
555,1437227283079,21.0
556,1437227283099,21.0
557,1437227283119,23.0
558,1437227283139,23.0
559,1437227283159,25.0
560,1437227283179,25.0
561,1437227283199,26.0
562,1437227283219,26.0
563,1437227283238,26.0
564,1437227283259,27.0
565,1437227283279,27.0
566,1437227283299,27.0
567,1437227283319,27.0
568,1437227283339,26.0
569,1437227283358,26.0
570,1437227283379,26.0
571,1437227283399,26.0
572,1437227283419,26.0
573,1437227283439,26.0
574,1437227283458,26.0
575,1437227283478,26.0
576,1437227283506,26.0
577,1437227283577,26.0
578,1437227283578,26.0
579,1437227283579,26.0
580,1437227283580,26.0
581,1437227283597,26.0
582,1437227283616,26.0
583,1437227283638,26.0
584,1437227283658,26.0
585,1437227283688,26.0
586,1437227283719,26.0
587,1437227283720,26.0
588,1437227283743,26.0
589,1437227283759,26.0
590,1437227283778,26.0
591,1437227283800,26.0
592,1437227283820,25.0
593,1437227283840,25.0
594,1437227283860,25.0
595,1437227283880,25.0
596,1437227283900,25.0
597,1437227283920,24.0
598,1437227283940,24.0
599,1437227283960,24.0
600,1437227283977,24.0
601,1437227284000,23.0
602,1437227284020,23.0
603,1437227284040,23.0
604,1437227284058,23.0
605,1437227284079,23.0
606,1437227284106,23.0
607,1437227284119,23.0
608,1437227284140,24.0
609,1437227284160,24.0
610,1437227284183,24.0
611,1437227284197,24.0
612,1437227284218,24.0
613,1437227284238,24.0
614,1437227284327,24.0
615,1437227284328,24.0
616,1437227284329,24.0
617,1437227284330,26.0
618,1437227284343,26.0
619,1437227284358,27.0
620,1437227284377,27.0
621,1437227284397,30.0
622,1437227284434,30.0
623,1437227284438,31.0
624,1437227284490,31.0
625,1437227284491,32.0
626,1437227284497,32.0
627,1437227284517,32.0
628,1437227284537,31.0
629,1437227284558,31.0
630,1437227284576,31.0
631,1437227284596,31.0
632,1437227284616,31.0
633,1437227284636,31.0
634,1437227284656,31.0
635,1437227284676,31.0
636,1437227284696,32.0
637,1437227284722,32.0
638,1437227284736,32.0
639,1437227284756,32.0
640,1437227284776,32.0
641,1437227284796,32.0
642,1437227284816,32.0
643,1437227284836,32.0
644,1437227284856,32.0
645,1437227284876,31.0
646,1437227284896,31.0
647,1437227284916,31.0
648,1437227284936,31.0
649,1437227284983,30.0
650,1437227284984,29.0
651,1437227285000,29.0
652,1437227285016,29.0
653,1437227285036,29.0
654,1437227285056,28.0
655,1437227285078,28.0
656,1437227285099,28.0
657,1437227285117,28.0
658,1437227285141,27.0
659,1437227285161,27.0
660,1437227285180,27.0
661,1437227285198,27.0
662,1437227285221,27.0
663,1437227285241,27.0
664,1437227285261,27.0
665,1437227285281,27.0
666,1437227285301,27.0
667,1437227285321,27.0
668,1437227285338,27.0
669,1437227285361,27.0
670,1437227285381,27.0
671,1437227285401,27.0
672,1437227285421,27.0
673,1437227285441,27.0
674,1437227285458,27.0
675,1437227285479,27.0
676,1437227285498,26.0
677,1437227285521,26.0
678,1437227285541,25.0
679,1437227285561,25.0
680,1437227285581,24.0
681,1437227285603,24.0
682,1437227285705,22.0
683,1437227285710,20.0
684,1437227285711,20.0
685,1437227285712,20.0
686,1437227285713,20.0
687,1437227285727,19.0
688,1437227285739,19.0
689,1437227285758,19.0
690,1437227285778,19.0
691,1437227285798,19.0
692,1437227285818,19.0
693,1437227285841,19.0
694,1437227285865,19.0
695,1437227285880,19.0
696,1437227285902,19.0
697,1437227285921,19.0
698,1437227285942,19.0
699,1437227285961,19.0
700,1437227285978,19.0
701,1437227286007,19.0
702,1437227286051,18.0
703,1437227286052,18.0
704,1437227286060,18.0
705,1437227286081,18.0
706,1437227286099,18.0
707,1437227286120,18.0
708,1437227286142,18.0
709,1437227286159,18.0
710,1437227286179,18.0
711,1437227286199,18.0
712,1437227286224,18.0
713,1437227286240,18.0
714,1437227286264,18.0
715,1437227286283,18.0
716,1437227286299,18.0
717,1437227286318,18.0
718,1437227286339,18.0
719,1437227286361,18.0
720,1437227286469,19.0
721,1437227286470,19.0
722,1437227286471,19.0
723,1437227286472,19.0
724,1437227286473,19.0
725,1437227286483,19.0
726,1437227286509,20.0
727,1437227286519,22.0
728,1437227286539,22.0
729,1437227286560,22.0
730,1437227286579,22.0
731,1437227286599,22.0
732,1437227286620,22.0
733,1437227286639,23.0
734,1437227286662,23.0
735,1437227286679,24.0
736,1437227286700,24.0
737,1437227286719,27.0
738,1437227286740,30.0
739,1437227286761,30.0
740,1437227286782,31.0
741,1437227286802,31.0
742,1437227286822,32.0
743,1437227286846,32.0
744,1437227286862,32.0
745,1437227286882,32.0
746,1437227286903,31.0
747,1437227286922,31.0
748,1437227286941,31.0
749,1437227286961,31.0
750,1437227286981,31.0
751,1437227287002,32.0
752,1437227287023,32.0
753,1437227287043,32.0
754,1437227287062,32.0
755,1437227287081,32.0
756,1437227287105,32.0
757,1437227287167,32.0
758,1437227287168,32.0
759,1437227287169,32.0
760,1437227287185,32.0
761,1437227287199,32.0
762,1437227287221,31.0
763,1437227287240,31.0
764,1437227287260,31.0
765,1437227287281,31.0
766,1437227287301,31.0
767,1437227287320,31.0
768,1437227287340,31.0
769,1437227287361,31.0
770,1437227287381,30.0
771,1437227287403,30.0
772,1437227287423,30.0
773,1437227287443,30.0
774,1437227287461,30.0
775,1437227287481,30.0
776,1437227287503,30.0
777,1437227287523,30.0
778,1437227287543,30.0
779,1437227287568,29.0
780,1437227287583,29.0
781,1437227287603,29.0
782,1437227287623,29.0
783,1437227287644,29.0
784,1437227287662,30.0
785,1437227287684,30.0
786,1437227287708,31.0
787,1437227287724,31.0
788,1437227287742,33.0
789,1437227287761,33.0
790,1437227287781,36.0
791,1437227287802,36.0
792,1437227287827,40.0
793,1437227287902,43.0
794,1437227287903,43.0
795,1437227287904,45.0
796,1437227287905,45.0
797,1437227287929,46.0
798,1437227287941,46.0
799,1437227287960,46.0
800,1437227287983,46.0
801,1437227288000,45.0
802,1437227288023,45.0
803,1437227288041,44.0
804,1437227288061,43.0
805,1437227288081,43.0
806,1437227288104,41.0
807,1437227288124,41.0
808,1437227288144,41.0
809,1437227288161,41.0
810,1437227288182,42.0
811,1437227288204,42.0
812,1437227288224,42.0
813,1437227288241,42.0
814,1437227288263,43.0
815,1437227288281,43.0
816,1437227288304,43.0
817,1437227288321,43.0
818,1437227288342,43.0
819,1437227288362,42.0
820,1437227288382,42.0
821,1437227288404,42.0
822,1437227288422,42.0
823,1437227288444,42.0
824,1437227288462,42.0
825,1437227288481,42.0
826,1437227288501,42.0
827,1437227288522,42.0
828,1437227288545,43.0
829,1437227288597,43.0
830,1437227288598,43.0
831,1437227288604,43.0
832,1437227288621,44.0
833,1437227288643,44.0
834,1437227288672,45.0
835,1437227288687,45.0
836,1437227288702,47.0
837,1437227288724,49.0
838,1437227288741,49.0
839,1437227288762,50.0
840,1437227288787,50.0
841,1437227288802,51.0
842,1437227288824,51.0
843,1437227288845,53.0
844,1437227288862,53.0
845,1437227288884,55.0
846,1437227288905,55.0
847,1437227288923,54.0
848,1437227288945,51.0
849,1437227288961,51.0
850,1437227288983,49.0
851,1437227289005,49.0
852,1437227289024,45.0
853,1437227289042,45.0
854,1437227289062,42.0
855,1437227289081,42.0
856,1437227289102,39.0
857,1437227289121,39.0
858,1437227289144,37.0
859,1437227289162,39.0
860,1437227289188,39.0
861,1437227289204,39.0
862,1437227289223,39.0
863,1437227289244,40.0
864,1437227289262,40.0
865,1437227289283,40.0
866,1437227289305,40.0
867,1437227289374,40.0
868,1437227289375,40.0
869,1437227289376,40.0
870,1437227289383,41.0
871,1437227289402,41.0
872,1437227289423,41.0
873,1437227289442,41.0
874,1437227289464,42.0
875,1437227289482,42.0
876,1437227289507,42.0
877,1437227289522,42.0
878,1437227289545,42.0
879,1437227289562,42.0
