id,attr_time,attr_light
1,1437227272053,12.0
2,1437227272072,12.0
3,1437227272093,12.0
4,1437227272115,12.0
5,1437227272135,12.0
6,1437227272153,12.0
7,1437227272175,12.0
8,1437227272195,12.0
9,1437227272213,12.0
10,1437227272235,12.0
11,1437227272255,12.0
12,1437227272274,12.0
13,1437227272293,12.0
14,1437227272312,12.0
15,1437227272332,12.0
16,1437227272354,12.0
17,1437227272372,12.0
18,1437227272392,12.0
19,1437227272412,12.0
20,1437227272523,12.0
21,1437227272524,12.0
22,1437227272525,12.0
23,1437227272526,12.0
24,1437227272527,12.0
25,1437227272543,12.0
26,1437227272557,12.0
27,1437227272572,12.0
28,1437227272593,12.0
29,1437227272613,12.0
30,1437227272632,12.0
31,1437227272655,12.0
32,1437227272673,12.0
33,1437227272695,12.0
34,1437227272716,12.0
35,1437227272733,12.0
36,1437227272753,12.0
37,1437227272773,12.0
38,1437227272794,12.0
39,1437227272815,12.0
40,1437227272836,12.0
41,1437227272856,12.0
42,1437227272873,12.0
43,1437227272894,12.0
44,1437227272916,12.0
45,1437227272935,12.0
46,1437227272959,12.0
47,1437227272974,12.0
48,1437227272999,12.0
49,1437227273013,12.0
50,1437227273034,12.0
51,1437227273054,12.0
52,1437227273072,12.0
53,1437227273093,12.0
54,1437227273113,12.0
55,1437227273139,12.0
56,1437227273153,12.0
57,1437227273173,12.0
58,1437227273194,12.0
59,1437227273217,12.0
60,1437227273270,12.0
61,1437227273271,12.0
62,1437227273273,12.0
63,1437227273293,12.0
64,1437227273313,12.0
65,1437227273333,12.0
66,1437227273354,12.0
67,1437227273374,12.0
68,1437227273393,12.0
69,1437227273414,12.0
70,1437227273440,12.0
71,1437227273453,12.0
72,1437227273473,12.0
73,1437227273496,12.0
74,1437227273514,12.0
75,1437227273535,12.0
76,1437227273557,12.0
77,1437227273574,12.0
78,1437227273596,12.0
79,1437227273616,12.0
80,1437227273635,12.0
81,1437227273656,12.0
82,1437227273678,12.0
83,1437227273696,12.0
84,1437227273719,12.0
85,1437227273738,12.0
86,1437227273759,12.0
87,1437227273774,12.0
88,1437227273793,12.0
89,1437227273813,12.0
90,1437227273833,12.0
91,1437227273868,12.0
92,1437227273873,12.0
93,1437227273894,12.0
94,1437227273914,12.0
95,1437227273934,12.0
96,1437227273960,12.0
97,1437227273987,12.0
98,1437227273993,12.0
99,1437227274014,12.0
100,1437227274035,12.0
101,1437227274059,12.0
102,1437227274074,12.0
103,1437227274094,12.0
104,1437227274126,12.0
105,1437227274144,12.0
106,1437227274154,12.0
107,1437227274174,12.0
108,1437227274194,12.0
109,1437227274214,12.0
110,1437227274234,12.0
111,1437227274254,12.0
112,1437227274274,12.0
113,1437227274294,12.0
114,1437227274314,12.0
115,1437227274334,12.0
116,1437227274356,12.0
117,1437227274374,12.0
118,1437227274400,12.0
119,1437227274414,12.0
120,1437227274434,12.0
121,1437227274454,12.0
122,1437227274474,12.0
123,1437227274494,12.0
124,1437227274514,12.0
125,1437227274534,12.0
126,1437227274555,13.0
127,1437227274573,13.0
128,1437227274599,13.0
129,1437227274617,13.0
130,1437227274634,13.0
131,1437227274655,13.0
132,1437227274675,13.0
133,1437227274693,13.0
134,1437227274714,13.0
135,1437227274735,13.0
136,1437227274757,13.0
137,1437227274775,13.0
138,1437227274795,13.0
139,1437227274818,13.0
140,1437227274838,13.0
141,1437227274858,13.0
142,1437227274879,13.0
143,1437227274898,13.0
144,1437227274918,13.0
145,1437227274938,13.0
146,1437227274958,13.0
147,1437227274976,13.0
148,1437227274998,13.0
149,1437227275015,13.0
150,1437227275036,13.0
151,1437227275058,13.0
152,1437227275076,13.0
153,1437227275097,13.0
154,1437227275115,13.0
155,1437227275141,13.0
156,1437227275160,13.0
157,1437227275181,13.0
158,1437227275197,13.0
159,1437227275215,13.0
160,1437227275235,13.0
161,1437227275255,13.0
162,1437227275278,13.0
163,1437227275297,13.0
164,1437227275368,13.0
165,1437227275369,13.0
166,1437227275370,13.0
167,1437227275379,13.0
168,1437227275397,13.0
169,1437227275416,13.0
170,1437227275435,13.0
171,1437227275458,13.0
172,1437227275475,13.0
173,1437227275496,13.0
174,1437227275521,13.0
175,1437227275536,13.0
176,1437227275561,13.0
177,1437227275578,13.0
178,1437227275598,13.0
179,1437227275618,13.0
180,1437227275638,13.0
181,1437227275658,13.0
182,1437227275677,13.0
183,1437227275698,13.0
184,1437227275718,13.0
185,1437227275740,13.0
186,1437227275755,13.0
187,1437227275778,13.0
188,1437227275799,13.0
189,1437227275819,13.0
190,1437227275839,13.0
191,1437227275858,13.0
192,1437227275878,13.0
193,1437227275898,13.0
194,1437227275919,13.0
195,1437227275939,13.0
196,1437227275959,13.0
197,1437227275979,13.0
198,1437227275999,13.0
199,1437227276018,13.0
200,1437227276104,13.0
201,1437227276105,13.0
202,1437227276106,13.0
203,1437227276107,13.0
204,1437227276118,13.0
205,1437227276145,13.0
206,1437227276158,13.0
207,1437227276178,13.0
208,1437227276199,13.0
209,1437227276216,13.0
210,1437227276238,13.0
211,1437227276256,13.0
212,1437227276278,13.0
213,1437227276296,13.0
214,1437227276319,13.0
215,1437227276339,13.0
216,1437227276359,13.0
217,1437227276379,13.0
218,1437227276399,13.0
219,1437227276419,13.0
220,1437227276439,13.0
221,1437227276459,13.0
222,1437227276480,13.0
223,1437227276498,12.0
224,1437227276518,12.0
225,1437227276536,12.0
226,1437227276556,12.0
227,1437227276576,12.0
228,1437227276596,12.0
229,1437227276619,12.0
230,1437227276639,11.0
231,1437227276659,11.0
232,1437227276677,11.0
233,1437227276698,11.0
234,1437227276719,11.0
235,1437227276739,11.0
236,1437227276759,11.0
237,1437227276829,11.0
238,1437227276830,12.0
239,1437227276831,12.0
240,1437227276839,12.0
241,1437227276865,12.0
242,1437227276879,11.0
243,1437227276897,11.0
244,1437227276919,11.0
245,1437227276937,11.0
246,1437227276959,11.0
247,1437227276977,11.0
248,1437227277000,11.0
249,1437227277019,11.0
250,1437227277039,11.0
251,1437227277060,12.0
252,1437227277079,12.0
253,1437227277100,12.0
254,1437227277120,12.0
255,1437227277140,12.0
256,1437227277160,12.0
257,1437227277180,12.0
258,1437227277201,12.0
259,1437227277217,12.0
260,1437227277240,12.0
261,1437227277260,12.0
262,1437227277280,12.0
263,1437227277299,12.0
264,1437227277320,12.0
265,1437227277340,12.0
266,1437227277360,12.0
267,1437227277380,12.0
268,1437227277400,12.0
269,1437227277421,12.0
270,1437227277442,12.0
271,1437227277459,12.0
272,1437227277550,12.0
273,1437227277551,12.0
274,1437227277552,12.0
275,1437227277553,12.0
276,1437227277561,12.0
277,1437227277579,12.0
278,1437227277598,12.0
279,1437227277618,12.0
280,1437227277651,12.0
281,1437227277657,12.0
282,1437227277678,12.0
283,1437227277697,12.0
284,1437227277718,12.0
285,1437227277737,12.0
286,1437227277757,12.0
287,1437227277781,12.0
288,1437227277800,12.0
289,1437227277820,12.0
290,1437227277840,12.0
291,1437227277860,13.0
292,1437227277880,13.0
293,1437227277900,13.0
294,1437227277922,13.0
295,1437227277937,14.0
296,1437227277960,14.0
297,1437227277979,13.0
298,1437227277998,13.0
299,1437227278019,13.0
300,1437227278039,13.0
301,1437227278060,12.0
302,1437227278084,13.0
303,1437227278101,13.0
304,1437227278119,13.0
305,1437227278139,13.0
306,1437227278159,13.0
307,1437227278179,13.0
308,1437227278199,13.0
309,1437227278252,13.0
310,1437227278265,13.0
311,1437227278266,13.0
312,1437227278279,13.0
313,1437227278301,13.0
314,1437227278318,13.0
315,1437227278339,13.0
316,1437227278358,13.0
317,1437227278379,13.0
318,1437227278399,13.0
319,1437227278419,13.0
320,1437227278440,13.0
321,1437227278459,13.0
322,1437227278482,13.0
323,1437227278500,13.0
324,1437227278520,13.0
325,1437227278540,13.0
326,1437227278560,13.0
327,1437227278580,13.0
328,1437227278600,13.0
329,1437227278620,13.0
330,1437227278642,13.0
331,1437227278660,13.0
332,1437227278680,13.0
333,1437227278700,13.0
334,1437227278721,13.0
335,1437227278740,14.0
336,1437227278761,14.0
337,1437227278782,14.0
338,1437227278802,14.0
339,1437227278819,14.0
340,1437227278841,14.0
341,1437227278859,14.0
342,1437227278880,14.0
343,1437227278899,14.0
344,1437227278919,14.0
345,1437227278971,14.0
346,1437227278975,14.0
347,1437227278990,14.0
348,1437227278998,14.0
349,1437227279029,14.0
350,1437227279038,14.0
351,1437227279078,14.0
352,1437227279079,14.0
353,1437227279101,14.0
354,1437227279122,14.0
355,1437227279139,14.0
356,1437227279161,14.0
357,1437227279182,14.0
358,1437227279201,14.0
359,1437227279220,14.0
360,1437227279241,14.0
361,1437227279261,14.0
362,1437227279283,14.0
363,1437227279302,15.0
364,1437227279322,15.0
365,1437227279342,15.0
366,1437227279360,15.0
367,1437227279381,15.0
368,1437227279402,15.0
369,1437227279420,15.0
370,1437227279440,15.0
371,1437227279459,15.0
372,1437227279485,15.0
373,1437227279505,15.0
374,1437227279519,15.0
375,1437227279543,15.0
376,1437227279560,15.0
377,1437227279580,15.0
378,1437227279600,15.0
379,1437227279620,15.0
380,1437227279645,15.0
381,1437227279702,15.0
382,1437227279703,16.0
383,1437227279704,16.0
384,1437227279724,16.0
385,1437227279741,16.0
386,1437227279759,16.0
387,1437227279779,16.0
388,1437227279802,16.0
389,1437227279819,16.0
390,1437227279840,16.0
391,1437227279861,16.0
392,1437227279881,16.0
393,1437227279902,16.0
394,1437227279920,16.0
395,1437227279942,16.0
396,1437227279962,16.0
397,1437227279983,16.0
398,1437227280003,16.0
399,1437227280022,16.0
400,1437227280039,16.0
401,1437227280062,16.0
402,1437227280082,16.0
403,1437227280100,16.0
404,1437227280123,16.0
405,1437227280143,16.0
406,1437227280163,16.0
407,1437227280181,16.0
408,1437227280201,16.0
409,1437227280222,16.0
410,1437227280242,16.0
411,1437227280267,17.0
412,1437227280284,17.0
413,1437227280303,17.0
414,1437227280320,18.0
415,1437227280427,18.0
416,1437227280428,19.0
417,1437227280429,19.0
418,1437227280430,19.0
419,1437227280431,19.0
420,1437227280446,20.0
421,1437227280461,20.0
422,1437227280488,20.0
423,1437227280501,20.0
424,1437227280521,21.0
425,1437227280542,21.0
426,1437227280560,21.0
427,1437227280581,21.0
428,1437227280601,21.0
429,1437227280621,21.0
430,1437227280642,21.0
431,1437227280662,21.0
432,1437227280682,22.0
433,1437227280702,22.0
434,1437227280722,22.0
435,1437227280742,22.0
436,1437227280762,22.0
437,1437227280782,22.0
438,1437227280802,22.0
439,1437227280827,21.0
440,1437227280843,21.0
441,1437227280863,21.0
442,1437227280883,21.0
443,1437227280903,21.0
444,1437227280923,21.0
445,1437227280941,21.0
446,1437227280961,21.0
447,1437227280982,21.0
448,1437227281006,21.0
449,1437227281023,21.0
450,1437227281047,21.0
451,1437227281061,21.0
452,1437227281087,21.0
453,1437227281151,21.0
454,1437227281152,21.0
455,1437227281153,21.0
456,1437227281160,21.0
457,1437227281191,21.0
458,1437227281202,21.0
459,1437227281220,21.0
460,1437227281242,21.0
461,1437227281261,21.0
462,1437227281281,22.0
463,1437227281301,22.0
464,1437227281323,22.0
465,1437227281343,22.0
466,1437227281362,23.0
467,1437227281384,23.0
468,1437227281404,23.0
469,1437227281424,23.0
470,1437227281444,23.0
471,1437227281462,23.0
472,1437227281481,23.0
473,1437227281501,22.0
474,1437227281522,22.0
475,1437227281541,22.0
476,1437227281561,22.0
477,1437227281581,22.0
478,1437227281602,22.0
479,1437227281622,22.0
480,1437227281645,22.0
481,1437227281665,21.0
482,1437227281685,21.0
483,1437227281704,21.0
484,1437227281723,21.0
485,1437227281741,22.0
486,1437227281763,22.0
487,1437227281782,22.0
488,1437227281845,22.0
489,1437227281846,22.0
490,1437227281847,22.0
491,1437227281869,22.0
492,1437227281881,22.0
493,1437227281901,22.0
494,1437227281921,22.0
495,1437227281942,22.0
496,1437227281969,21.0
497,1437227281989,21.0
498,1437227282001,21.0
499,1437227282023,21.0
500,1437227282063,20.0
501,1437227282064,20.0
502,1437227282081,20.0
503,1437227282103,20.0
504,1437227282124,20.0
505,1437227282144,20.0
506,1437227282164,20.0
507,1437227282183,20.0
508,1437227282202,21.0
509,1437227282223,21.0
510,1437227282245,21.0
511,1437227282265,21.0
512,1437227282282,21.0
513,1437227282305,22.0
514,1437227282325,22.0
515,1437227282345,22.0
516,1437227282363,22.0
517,1437227282383,23.0
518,1437227282404,23.0
519,1437227282425,24.0
520,1437227282445,24.0
521,1437227282462,24.0
522,1437227282483,24.0
523,1437227282502,25.0
524,1437227282522,25.0
525,1437227282553,25.0
526,1437227282606,25.0
527,1437227282607,25.0
528,1437227282608,25.0
529,1437227282629,25.0
530,1437227282643,25.0
531,1437227282662,25.0
532,1437227282682,25.0
533,1437227282704,25.0
534,1437227282723,25.0
535,1437227282744,25.0
536,1437227282763,25.0
537,1437227282784,25.0
538,1437227282804,25.0
539,1437227282825,25.0
540,1437227282845,25.0
541,1437227282865,25.0
542,1437227282883,25.0
543,1437227282903,25.0
544,1437227282925,25.0
545,1437227282945,24.0
546,1437227282962,24.0
547,1437227282983,23.0
548,1437227283005,23.0
549,1437227283023,23.0
550,1437227283045,23.0
551,1437227283062,23.0
552,1437227283085,23.0
553,1437227283104,23.0
554,1437227283125,23.0
555,1437227283146,22.0
556,1437227283166,22.0
557,1437227283186,22.0
558,1437227283205,22.0
559,1437227283235,22.0
560,1437227283242,22.0
561,1437227283263,22.0
562,1437227283282,22.0
563,1437227283302,22.0
564,1437227283333,22.0
565,1437227283349,22.0
566,1437227283363,22.0
567,1437227283383,22.0
568,1437227283408,22.0
569,1437227283423,22.0
570,1437227283443,22.0
571,1437227283475,22.0
572,1437227283494,22.0
573,1437227283505,22.0
574,1437227283523,22.0
575,1437227283544,22.0
576,1437227283566,22.0
577,1437227283583,22.0
578,1437227283606,22.0
579,1437227283626,22.0
580,1437227283644,22.0
581,1437227283666,22.0
582,1437227283686,22.0
583,1437227283705,23.0
584,1437227283726,23.0
585,1437227283746,23.0
586,1437227283764,23.0
587,1437227283786,23.0
588,1437227283809,23.0
589,1437227283825,24.0
590,1437227283849,24.0
591,1437227283866,25.0
592,1437227283883,25.0
593,1437227283903,26.0
594,1437227283924,26.0
595,1437227283950,28.0
596,1437227283965,28.0
597,1437227283985,29.0
598,1437227284005,29.0
599,1437227284111,31.0
600,1437227284112,31.0
601,1437227284113,33.0
602,1437227284114,35.0
603,1437227284115,35.0
604,1437227284126,36.0
605,1437227284144,36.0
606,1437227284164,37.0
607,1437227284186,37.0
608,1437227284206,37.0
609,1437227284224,37.0
610,1437227284245,37.0
611,1437227284264,37.0
612,1437227284285,38.0
613,1437227284303,38.0
614,1437227284327,40.0
615,1437227284346,40.0
616,1437227284367,40.0
617,1437227284387,40.0
618,1437227284406,39.0
619,1437227284427,39.0
620,1437227284447,38.0
621,1437227284466,38.0
622,1437227284486,38.0
623,1437227284504,37.0
624,1437227284526,37.0
625,1437227284545,37.0
626,1437227284564,37.0
627,1437227284584,36.0
628,1437227284609,36.0
629,1437227284630,36.0
630,1437227284646,36.0
631,1437227284668,35.0
632,1437227284685,35.0
633,1437227284705,34.0
634,1437227284724,34.0
635,1437227284746,33.0
636,1437227284766,33.0
637,1437227284817,32.0
638,1437227284818,32.0
639,1437227284825,31.0
640,1437227284844,30.0
641,1437227284867,30.0
642,1437227284886,28.0
643,1437227284906,28.0
644,1437227284927,27.0
645,1437227284945,27.0
646,1437227284966,26.0
647,1437227284985,26.0
648,1437227285007,25.0
649,1437227285028,25.0
650,1437227285047,25.0
651,1437227285068,25.0
652,1437227285088,25.0
653,1437227285108,25.0
654,1437227285128,24.0
655,1437227285147,24.0
656,1437227285168,24.0
657,1437227285186,24.0
658,1437227285206,24.0
659,1437227285229,24.0
660,1437227285247,24.0
661,1437227285268,24.0
662,1437227285287,24.0
663,1437227285308,24.0
664,1437227285328,24.0
665,1437227285344,25.0
666,1437227285366,25.0
667,1437227285386,25.0
668,1437227285407,25.0
669,1437227285428,26.0
670,1437227285447,26.0
671,1437227285466,26.0
672,1437227285495,26.0
673,1437227285551,26.0
674,1437227285552,26.0
675,1437227285553,27.0
676,1437227285572,27.0
677,1437227285585,29.0
678,1437227285613,31.0
679,1437227285628,31.0
680,1437227285645,32.0
681,1437227285669,32.0
682,1437227285685,32.0
683,1437227285708,32.0
684,1437227285726,32.0
685,1437227285746,32.0
686,1437227285765,30.0
687,1437227285788,30.0
688,1437227285808,28.0
689,1437227285828,28.0
690,1437227285848,27.0
691,1437227285869,27.0
692,1437227285888,27.0
693,1437227285908,27.0
694,1437227285928,27.0
695,1437227285950,27.0
696,1437227285968,26.0
697,1437227285988,26.0
698,1437227286006,26.0
699,1437227286029,25.0
700,1437227286048,25.0
701,1437227286070,25.0
702,1437227286090,25.0
703,1437227286111,25.0
704,1437227286128,25.0
705,1437227286146,25.0
706,1437227286166,25.0
707,1437227286188,25.0
708,1437227286206,25.0
709,1437227286272,25.0
710,1437227286273,25.0
711,1437227286274,26.0
712,1437227286293,26.0
713,1437227286305,26.0
714,1437227286326,26.0
715,1437227286345,26.0
716,1437227286368,27.0
717,1437227286388,27.0
718,1437227286407,27.0
719,1437227286428,27.0
720,1437227286447,27.0
721,1437227286469,27.0
722,1437227286485,26.0
723,1437227286509,26.0
724,1437227286529,25.0
725,1437227286549,25.0
726,1437227286571,25.0
727,1437227286586,25.0
728,1437227286606,25.0
729,1437227286626,25.0
730,1437227286648,26.0
731,1437227286669,26.0
732,1437227286687,27.0
733,1437227286709,28.0
734,1437227286729,28.0
735,1437227286749,28.0
736,1437227286769,28.0
737,1437227286789,27.0
738,1437227286809,27.0
739,1437227286829,27.0
740,1437227286849,27.0
741,1437227286870,28.0
742,1437227286890,28.0
743,1437227286910,28.0
744,1437227286929,28.0
745,1437227286949,29.0
746,1437227287029,29.0
747,1437227287030,28.0
748,1437227287031,28.0
749,1437227287032,27.0
750,1437227287046,27.0
751,1437227287075,27.0
752,1437227287088,27.0
753,1437227287107,27.0
754,1437227287129,28.0
755,1437227287148,28.0
756,1437227287168,29.0
757,1437227287186,29.0
758,1437227287210,30.0
759,1437227287230,30.0
760,1437227287250,31.0
761,1437227287270,31.0
762,1437227287290,32.0
763,1437227287310,32.0
764,1437227287330,33.0
765,1437227287350,33.0
766,1437227287369,35.0
767,1437227287390,35.0
768,1437227287408,38.0
769,1437227287428,38.0
770,1437227287450,41.0
771,1437227287468,45.0
772,1437227287558,45.0
773,1437227287559,50.0
774,1437227287560,50.0
775,1437227287561,55.0
776,1437227287578,55.0
777,1437227287590,56.0
778,1437227287634,56.0
779,1437227287635,53.0
780,1437227287650,53.0
781,1437227287678,53.0
782,1437227287749,53.0
783,1437227287750,55.0
784,1437227287751,55.0
785,1437227287752,58.0
786,1437227287791,58.0
787,1437227287792,60.0
788,1437227287807,60.0
789,1437227287827,61.0
790,1437227287878,63.0
791,1437227287879,63.0
792,1437227287888,66.0
793,1437227287910,66.0
794,1437227287935,70.0
795,1437227287947,70.0
796,1437227287974,74.0
797,1437227287987,74.0
798,1437227288010,79.0
799,1437227288029,79.0
800,1437227288051,84.0
801,1437227288068,84.0
802,1437227288086,90.0
803,1437227288106,90.0
804,1437227288126,96.0
805,1437227288146,96.0
806,1437227288169,103.0
807,1437227288186,103.0
808,1437227288206,110.0
809,1437227288226,119.0
810,1437227288246,119.0
811,1437227288266,131.0
812,1437227288286,131.0
813,1437227288306,147.0
814,1437227288326,147.0
815,1437227288346,163.0
816,1437227288366,163.0
817,1437227288388,172.0
818,1437227288409,172.0
819,1437227288427,175.0
820,1437227288448,175.0
821,1437227288470,176.0
822,1437227288489,176.0
823,1437227288511,175.0
824,1437227288528,175.0
825,1437227288547,174.0
826,1437227288567,174.0
827,1437227288589,174.0
828,1437227288611,175.0
829,1437227288631,175.0
830,1437227288650,177.0
831,1437227288668,177.0
832,1437227288691,180.0
833,1437227288711,180.0
834,1437227288731,182.0
835,1437227288751,182.0
836,1437227288771,188.0
837,1437227288789,188.0
838,1437227288811,195.0
839,1437227288831,195.0
840,1437227288852,200.0
841,1437227288871,200.0
842,1437227288889,205.0
843,1437227288910,205.0
844,1437227288931,209.0
845,1437227288951,209.0
846,1437227288971,213.0
847,1437227288989,213.0
848,1437227289009,213.0
849,1437227289030,213.0
850,1437227289047,213.0
851,1437227289149,213.0
852,1437227289150,213.0
853,1437227289151,212.0
854,1437227289152,212.0
855,1437227289153,211.0
856,1437227289168,211.0
857,1437227289190,210.0
858,1437227289208,210.0
859,1437227289242,208.0
860,1437227289260,208.0
861,1437227289268,206.0
862,1437227289289,206.0
863,1437227289308,205.0
864,1437227289329,205.0
865,1437227289350,206.0
866,1437227289371,208.0
867,1437227289392,208.0
868,1437227289412,214.0
869,1437227289432,214.0
870,1437227289452,223.0
