id,attr_time,attr_light
1,1436463450033,7.0
2,1436463450054,7.0
3,1436463450071,7.0
4,1436463450092,7.0
5,1436463450114,7.0
6,1436463450134,7.0
7,1436463450154,7.0
8,1436463450171,7.0
9,1436463450192,7.0
10,1436463450213,7.0
11,1436463450234,7.0
12,1436463450252,7.0
13,1436463450272,7.0
14,1436463450292,7.0
15,1436463450314,7.0
16,1436463450332,7.0
17,1436463450354,7.0
18,1436463450374,7.0
19,1436463450392,7.0
20,1436463450412,7.0
21,1436463450434,7.0
22,1436463450451,7.0
23,1436463450548,7.0
24,1436463450549,7.0
25,1436463450550,7.0
26,1436463450551,7.0
27,1436463450554,7.0
28,1436463450572,7.0
29,1436463450591,7.0
30,1436463450611,7.0
31,1436463450633,7.0
32,1436463450652,7.0
33,1436463450671,7.0
34,1436463450702,7.0
35,1436463450720,7.0
36,1436463450743,7.0
37,1436463450753,7.0
38,1436463450773,7.0
39,1436463450791,7.0
40,1436463450813,7.0
41,1436463450831,7.0
42,1436463450851,7.0
43,1436463450871,7.0
44,1436463450891,7.0
45,1436463450911,7.0
46,1436463450931,7.0
47,1436463450951,7.0
48,1436463450971,7.0
49,1436463450991,7.0
50,1436463451011,7.0
51,1436463451031,7.0
52,1436463451051,7.0
53,1436463451071,7.0
54,1436463451091,7.0
55,1436463451111,7.0
56,1436463451131,7.0
57,1436463451159,7.0
58,1436463451171,7.0
59,1436463451192,7.0
60,1436463451213,7.0
61,1436463451232,7.0
62,1436463451253,7.0
63,1436463451293,7.0
64,1436463451294,7.0
65,1436463451311,7.0
66,1436463451330,7.0
67,1436463451351,7.0
68,1436463451371,7.0
69,1436463451391,7.0
70,1436463451412,7.0
71,1436463451431,7.0
72,1436463451451,7.0
73,1436463451471,7.0
74,1436463451491,7.0
75,1436463451512,7.0
76,1436463451533,7.0
77,1436463451551,7.0
78,1436463451572,7.0
79,1436463451591,7.0
80,1436463451614,7.0
81,1436463451632,7.0
82,1436463451653,7.0
83,1436463451671,7.0
84,1436463451694,7.0
85,1436463451714,7.0
86,1436463451736,7.0
87,1436463451752,7.0
88,1436463451773,7.0
89,1436463451792,7.0
90,1436463451814,7.0
91,1436463451833,7.0
92,1436463451853,7.0
93,1436463451873,7.0
94,1436463451893,7.0
95,1436463451932,7.0
96,1436463451933,7.0
97,1436463451951,7.0
98,1436463451972,7.0
99,1436463451992,7.0
100,1436463452012,7.0
101,1436463452033,7.0
102,1436463452052,7.0
103,1436463452072,7.0
104,1436463452092,7.0
105,1436463452112,7.0
106,1436463452133,7.0
107,1436463452155,7.0
108,1436463452176,7.0
109,1436463452194,7.0
110,1436463452215,7.0
111,1436463452233,7.0
112,1436463452253,7.0
113,1436463452275,7.0
114,1436463452299,7.0
115,1436463452316,7.0
116,1436463452333,7.0
117,1436463452357,7.0
118,1436463452379,7.0
119,1436463452394,7.0
120,1436463452413,7.0
121,1436463452433,7.0
122,1436463452452,7.0
123,1436463452479,7.0
124,1436463452494,7.0
125,1436463452515,7.0
126,1436463452537,7.0
127,1436463452562,7.0
128,1436463452674,7.0
129,1436463452675,7.0
130,1436463452676,7.0
131,1436463452680,7.0
132,1436463452681,7.0
133,1436463452682,7.0
134,1436463452697,7.0
135,1436463452713,7.0
136,1436463452741,7.0
137,1436463452753,7.0
138,1436463452774,7.0
139,1436463452800,7.0
140,1436463452814,7.0
141,1436463452833,7.0
142,1436463452856,7.0
143,1436463452876,7.0
144,1436463452896,7.0
145,1436463452916,7.0
146,1436463452935,7.0
147,1436463452955,7.0
148,1436463452976,7.0
149,1436463452995,7.0
150,1436463453016,7.0
151,1436463453035,7.0
152,1436463453055,7.0
153,1436463453076,7.0
154,1436463453096,7.0
155,1436463453115,7.0
156,1436463453137,7.0
157,1436463453157,7.0
158,1436463453177,7.0
159,1436463453197,7.0
160,1436463453216,7.0
161,1436463453237,7.0
162,1436463453256,7.0
163,1436463453276,7.0
164,1436463453294,7.0
165,1436463453349,7.0
166,1436463453350,7.0
167,1436463453361,7.0
168,1436463453373,7.0
169,1436463453398,7.0
170,1436463453418,7.0
171,1436463453433,7.0
172,1436463453455,7.0
173,1436463453473,7.0
174,1436463453498,7.0
175,1436463453515,7.0
176,1436463453536,7.0
177,1436463453558,7.0
178,1436463453576,7.0
179,1436463453599,7.0
180,1436463453616,7.0
181,1436463453639,7.0
182,1436463453654,7.0
183,1436463453677,7.0
184,1436463453698,7.0
185,1436463453717,7.0
186,1436463453737,7.0
187,1436463453754,7.0
188,1436463453776,7.0
189,1436463453797,7.0
190,1436463453817,7.0
191,1436463453837,7.0
192,1436463453858,7.0
193,1436463453877,7.0
194,1436463453898,7.0
195,1436463453918,7.0
196,1436463453937,7.0
197,1436463453959,7.0
198,1436463453976,7.0
199,1436463453997,7.0
200,1436463454015,7.0
201,1436463454071,7.0
202,1436463454085,7.0
203,1436463454086,7.0
204,1436463454095,7.0
205,1436463454117,7.0
206,1436463454138,7.0
207,1436463454154,7.0
208,1436463454174,7.0
209,1436463454196,7.0
210,1436463454216,7.0
211,1436463454236,7.0
212,1436463454255,7.0
213,1436463454274,7.0
214,1436463454298,7.0
215,1436463454318,7.0
216,1436463454338,7.0
217,1436463454358,7.0
218,1436463454377,7.0
219,1436463454398,7.0
220,1436463454418,7.0
221,1436463456340,7.0
222,1436463456341,7.0
223,1436463456342,7.0
224,1436463456343,7.0
225,1436463456344,7.0
226,1436463456345,7.0
227,1436463456346,7.0
228,1436463456347,7.0
229,1436463456348,7.0
230,1436463456349,7.0
231,1436463456350,7.0
232,1436463456351,7.0
233,1436463456352,7.0
234,1436463456353,7.0
235,1436463456354,7.0
236,1436463456355,7.0
237,1436463456356,7.0
238,1436463456357,7.0
239,1436463456358,7.0
240,1436463456359,7.0
241,1436463456360,7.0
242,1436463456361,7.0
243,1436463456362,7.0
244,1436463456363,7.0
245,1436463456364,7.0
246,1436463456365,7.0
247,1436463456366,7.0
248,1436463456367,7.0
249,1436463456368,7.0
250,1436463456369,7.0
251,1436463456370,7.0
252,1436463456371,7.0
253,1436463456372,7.0
254,1436463456373,7.0
255,1436463456374,7.0
256,1436463456375,7.0
257,1436463456376,7.0
258,1436463456377,7.0
259,1436463456378,7.0
260,1436463456379,7.0
261,1436463456380,7.0
262,1436463456381,7.0
263,1436463456382,7.0
264,1436463456383,7.0
265,1436463456384,8.0
266,1436463456385,8.0
267,1436463456386,8.0
268,1436463456387,8.0
269,1436463456388,8.0
270,1436463456389,8.0
271,1436463456390,8.0
272,1436463456391,8.0
273,1436463456392,8.0
274,1436463456393,8.0
275,1436463456394,8.0
276,1436463456395,8.0
277,1436463456396,8.0
278,1436463456397,8.0
279,1436463456398,8.0
280,1436463456399,8.0
281,1436463456400,8.0
282,1436463456401,8.0
283,1436463456402,8.0
284,1436463456403,8.0
285,1436463456404,8.0
286,1436463456405,8.0
287,1436463456406,8.0
288,1436463456407,8.0
289,1436463456408,8.0
290,1436463456409,8.0
291,1436463456410,8.0
292,1436463456411,8.0
293,1436463456412,8.0
294,1436463456413,8.0
295,1436463456414,8.0
296,1436463456415,8.0
297,1436463456416,8.0
298,1436463456417,8.0
299,1436463456418,8.0
300,1436463456419,8.0
301,1436463456420,8.0
302,1436463456421,8.0
303,1436463456422,8.0
304,1436463456423,8.0
305,1436463456424,8.0
306,1436463456425,8.0
307,1436463456426,8.0
308,1436463456427,8.0
309,1436463456428,8.0
310,1436463456429,8.0
311,1436463456430,8.0
312,1436463456431,9.0
313,1436463456432,9.0
314,1436463456433,9.0
315,1436463456434,9.0
316,1436463456435,9.0
317,1436463456436,9.0
318,1436463456437,9.0
319,1436463456438,9.0
320,1436463456439,9.0
321,1436463456440,9.0
322,1436463456455,9.0
323,1436463456475,10.0
324,1436463456495,10.0
325,1436463456515,10.0
326,1436463456535,10.0
327,1436463456555,10.0
328,1436463456575,10.0
329,1436463456598,11.0
330,1436463456617,11.0
331,1436463456641,11.0
332,1436463456661,11.0
333,1436463456683,11.0
334,1436463456697,11.0
335,1436463456721,11.0
336,1436463456738,11.0
337,1436463456758,10.0
338,1436463456776,10.0
339,1436463456797,9.0
340,1436463456821,9.0
341,1436463456841,10.0
342,1436463456861,10.0
343,1436463456882,11.0
344,1436463456907,11.0
345,1436463456920,11.0
346,1436463456936,11.0
347,1436463456957,12.0
348,1436463456978,12.0
349,1436463456999,12.0
350,1436463457018,12.0
351,1436463457043,12.0
352,1436463457056,12.0
353,1436463457078,12.0
354,1436463457100,12.0
355,1436463457121,12.0
356,1436463457141,12.0
357,1436463457161,12.0
358,1436463457181,12.0
359,1436463457201,12.0
360,1436463457221,12.0
361,1436463457241,12.0
362,1436463457257,12.0
363,1436463457281,12.0
364,1436463457300,12.0
365,1436463457321,12.0
366,1436463457341,12.0
367,1436463457361,12.0
368,1436463457381,12.0
369,1436463457401,12.0
370,1436463457419,12.0
371,1436463457439,12.0
372,1436463457461,12.0
373,1436463457479,12.0
374,1436463457501,11.0
375,1436463457532,11.0
376,1436463457539,11.0
377,1436463457558,11.0
378,1436463457578,11.0
379,1436463457598,11.0
380,1436463457624,11.0
381,1436463457638,11.0
382,1436463457661,10.0
383,1436463457679,10.0
384,1436463457702,9.0
385,1436463457718,9.0
386,1436463457741,9.0
387,1436463457761,9.0
388,1436463457781,8.0
389,1436463457801,8.0
390,1436463457818,7.0
391,1436463457841,8.0
392,1436463457861,8.0
393,1436463457881,8.0
394,1436463457901,8.0
395,1436463457919,8.0
396,1436463457939,8.0
397,1436463457961,8.0
398,1436463457981,8.0
399,1436463458001,9.0
400,1436463458021,9.0
401,1436463458040,11.0
402,1436463458061,11.0
403,1436463458081,11.0
404,1436463458101,11.0
405,1436463458118,12.0
406,1436463458138,12.0
407,1436463458159,13.0
408,1436463458178,13.0
409,1436463458198,13.0
410,1436463458218,13.0
411,1436463458250,16.0
412,1436463458267,16.0
413,1436463458278,16.0
414,1436463458298,16.0
415,1436463458319,16.0
416,1436463458338,16.0
417,1436463458360,17.0
418,1436463458378,17.0
419,1436463458398,16.0
420,1436463458423,16.0
421,1436463458438,16.0
422,1436463458459,16.0
423,1436463458478,15.0
424,1436463458499,15.0
425,1436463458519,15.0
426,1436463458539,15.0
427,1436463458559,18.0
428,1436463458579,18.0
429,1436463458599,20.0
430,1436463458618,23.0
431,1436463458639,23.0
432,1436463458658,20.0
433,1436463458683,20.0
434,1436463458702,17.0
435,1436463458721,17.0
436,1436463458739,16.0
437,1436463458762,16.0
438,1436463458783,16.0
439,1436463458802,16.0
440,1436463458823,17.0
441,1436463458841,17.0
442,1436463458861,17.0
443,1436463458881,17.0
444,1436463458903,17.0
445,1436463458922,17.0
446,1436463458940,17.0
447,1436463458959,17.0
448,1436463458979,17.0
449,1436463458998,17.0
450,1436463459019,17.0
451,1436463459042,17.0
452,1436463459058,17.0
453,1436463459079,17.0
454,1436463459103,17.0
455,1436463459123,17.0
456,1436463459142,18.0
457,1436463459159,18.0
458,1436463459182,19.0
459,1436463459202,19.0
460,1436463459222,19.0
461,1436463459243,19.0
462,1436463459262,19.0
463,1436463459282,19.0
464,1436463459302,20.0
465,1436463459322,20.0
466,1436463459342,22.0
467,1436463459361,22.0
468,1436463459381,25.0
469,1436463459403,28.0
470,1436463459423,28.0
471,1436463459442,27.0
472,1436463459463,27.0
473,1436463459482,28.0
474,1436463459500,28.0
475,1436463459520,27.0
476,1436463459542,27.0
477,1436463459560,27.0
478,1436463459613,27.0
479,1436463459614,27.0
480,1436463459632,27.0
481,1436463459639,27.0
482,1436463459660,27.0
483,1436463459679,25.0
484,1436463459699,25.0
485,1436463459720,23.0
486,1436463459740,23.0
487,1436463459761,24.0
488,1436463459784,24.0
489,1436463459800,23.0
490,1436463459822,23.0
491,1436463459842,24.0
492,1436463459863,24.0
493,1436463459883,22.0
494,1436463459903,22.0
495,1436463459923,21.0
496,1436463459943,21.0
497,1436463459964,20.0
498,1436463459982,20.0
499,1436463460003,19.0
500,1436463460020,19.0
501,1436463460042,19.0
502,1436463460063,19.0
503,1436463460080,20.0
504,1436463460102,20.0
505,1436463460123,20.0
506,1436463460143,20.0
507,1436463460163,20.0
508,1436463460184,20.0
509,1436463460204,20.0
510,1436463460223,20.0
511,1436463460240,20.0
512,1436463460261,19.0
513,1436463460281,19.0
514,1436463460302,19.0
515,1436463460349,19.0
516,1436463460350,20.0
517,1436463460372,20.0
518,1436463460380,20.0
519,1436463460400,20.0
520,1436463460421,21.0
521,1436463460440,21.0
522,1436463460476,25.0
523,1436463460482,25.0
524,1436463460500,26.0
525,1436463460524,26.0
526,1436463460543,29.0
527,1436463460561,29.0
528,1436463460580,30.0
529,1436463460600,30.0
530,1436463460620,30.0
531,1436463460641,30.0
532,1436463460662,31.0
533,1436463460689,31.0
534,1436463460700,30.0
535,1436463460722,30.0
536,1436463460743,29.0
537,1436463460763,29.0
538,1436463460782,28.0
539,1436463460802,28.0
540,1436463460823,28.0
541,1436463460843,28.0
542,1436463460863,27.0
543,1436463460882,27.0
544,1436463460903,25.0
545,1436463460923,25.0
546,1436463460946,24.0
547,1436463460975,24.0
548,1436463460983,25.0
549,1436463461001,27.0
550,1436463461021,27.0
551,1436463461041,26.0
552,1436463461061,26.0
553,1436463461083,23.0
554,1436463461103,23.0
555,1436463461121,21.0
556,1436463461141,21.0
557,1436463461164,20.0
558,1436463461187,20.0
559,1436463461201,18.0
560,1436463461232,18.0
561,1436463461243,18.0
562,1436463461261,18.0
563,1436463461300,18.0
564,1436463461303,18.0
565,1436463461324,17.0
566,1436463461341,17.0
567,1436463461361,15.0
568,1436463461381,15.0
569,1436463461402,13.0
570,1436463461421,13.0
571,1436463461441,13.0
572,1436463461462,13.0
573,1436463461482,13.0
574,1436463461502,13.0
575,1436463461521,14.0
576,1436463461541,14.0
577,1436463461563,14.0
578,1436463461581,14.0
579,1436463461603,14.0
580,1436463461624,14.0
581,1436463461644,15.0
582,1436463461664,15.0
583,1436463461682,14.0
584,1436463461702,14.0
585,1436463461722,15.0
586,1436463461740,15.0
587,1436463461761,18.0
588,1436463461781,16.0
589,1436463461801,16.0
590,1436463461821,15.0
591,1436463461841,15.0
592,1436463461863,14.0
593,1436463461882,14.0
594,1436463461903,13.0
595,1436463461922,13.0
596,1436463461942,12.0
597,1436463461962,12.0
598,1436463461982,12.0
599,1436463462001,12.0
600,1436463462022,10.0
601,1436463462043,10.0
602,1436463462066,10.0
603,1436463462081,10.0
604,1436463462102,9.0
605,1436463462122,9.0
606,1436463462144,10.0
607,1436463462163,10.0
608,1436463462182,11.0
609,1436463462203,11.0
610,1436463462222,10.0
611,1436463462245,10.0
612,1436463462262,8.0
613,1436463462282,8.0
614,1436463462303,7.0
615,1436463462323,7.0
616,1436463462343,8.0
617,1436463462363,8.0
618,1436463462383,7.0
619,1436463462406,7.0
620,1436463462472,7.0
621,1436463462473,7.0
622,1436463462474,7.0
623,1436463462482,7.0
624,1436463462507,7.0
625,1436463462524,7.0
626,1436463462542,6.0
627,1436463462572,6.0
628,1436463462582,6.0
629,1436463462602,6.0
630,1436463462623,6.0
631,1436463462643,6.0
632,1436463462662,6.0
633,1436463462686,6.0
634,1436463462704,6.0
635,1436463462726,6.0
636,1436463462744,6.0
637,1436463462764,6.0
638,1436463462786,6.0
639,1436463462805,7.0
640,1436463462826,7.0
641,1436463462843,8.0
642,1436463462863,8.0
643,1436463462886,9.0
644,1436463462905,9.0
645,1436463462926,10.0
646,1436463462945,10.0
647,1436463462965,10.0
648,1436463462985,10.0
649,1436463463005,10.0
650,1436463463026,10.0
651,1436463463043,9.0
652,1436463463066,9.0
653,1436463463086,9.0
654,1436463463106,9.0
655,1436463463126,8.0
656,1436463463143,8.0
657,1436463463209,8.0
658,1436463463210,8.0
659,1436463463211,8.0
660,1436463463223,8.0
661,1436463463246,7.0
662,1436463463264,7.0
663,1436463463283,7.0
664,1436463463305,7.0
665,1436463463325,7.0
666,1436463463346,7.0
667,1436463463364,8.0
668,1436463463386,7.0
669,1436463463406,7.0
670,1436463463425,6.0
671,1436463463447,6.0
672,1436463463465,6.0
673,1436463463486,6.0
674,1436463463507,5.0
675,1436463463526,5.0
676,1436463463543,5.0
677,1436463463567,5.0
678,1436463463598,5.0
679,1436463463607,5.0
680,1436463463635,5.0
681,1436463463644,5.0
682,1436463463667,4.0
683,1436463463686,4.0
684,1436463463706,4.0
685,1436463463726,4.0
686,1436463463747,4.0
687,1436463463766,4.0
688,1436463463787,4.0
689,1436463463806,4.0
690,1436463463826,4.0
691,1436463463844,4.0
692,1436463463865,3.0
693,1436463463912,3.0
694,1436463463913,3.0
695,1436463463931,3.0
696,1436463463945,3.0
697,1436463463968,3.0
698,1436463463987,4.0
699,1436463464004,4.0
700,1436463464034,4.0
701,1436463464050,4.0
702,1436463464071,5.0
703,1436463464100,5.0
704,1436463464105,5.0
705,1436463464124,5.0
706,1436463464152,6.0
707,1436463464164,6.0
708,1436463464184,6.0
709,1436463464204,6.0
710,1436463464227,6.0
711,1436463464247,6.0
712,1436463464263,6.0
713,1436463464287,6.0
714,1436463464308,6.0
715,1436463464328,5.0
716,1436463464348,5.0
717,1436463464364,5.0
718,1436463464387,5.0
719,1436463464405,5.0
720,1436463464425,5.0
721,1436463464445,4.0
722,1436463464465,4.0
723,1436463464488,5.0
724,1436463464508,5.0
725,1436463464528,6.0
726,1436463464546,6.0
727,1436463464566,5.0
728,1436463464584,5.0
729,1436463464608,4.0
730,1436463464626,4.0
731,1436463464655,4.0
732,1436463464666,4.0
733,1436463464685,4.0
734,1436463464724,4.0
735,1436463464725,4.0
736,1436463464745,4.0
737,1436463464764,4.0
738,1436463464784,4.0
739,1436463464804,4.0
740,1436463464825,4.0
741,1436463464845,3.0
742,1436463464865,3.0
743,1436463464885,3.0
744,1436463464905,3.0
745,1436463464925,3.0
746,1436463464948,3.0
747,1436463464968,3.0
748,1436463464988,3.0
749,1436463465008,3.0
750,1436463465028,2.0
751,1436463465050,2.0
752,1436463465066,2.0
753,1436463465086,2.0
754,1436463465107,3.0
755,1436463465125,3.0
756,1436463465145,3.0
757,1436463465165,3.0
758,1436463465187,3.0
759,1436463465208,3.0
760,1436463465228,4.0
761,1436463465245,4.0
762,1436463465266,4.0
763,1436463465285,4.0
764,1436463465308,5.0
765,1436463465326,5.0
766,1436463465397,5.0
767,1436463465398,5.0
768,1436463465399,5.0
769,1436463465407,5.0
770,1436463465427,5.0
771,1436463465448,5.0
772,1436463465465,5.0
773,1436463465491,5.0
774,1436463465507,4.0
775,1436463465527,4.0
776,1436463465546,4.0
777,1436463465566,4.0
778,1436463465586,4.0
779,1436463465608,4.0
780,1436463465628,3.0
781,1436463465649,3.0
782,1436463465668,4.0
783,1436463465689,4.0
784,1436463465707,4.0
785,1436463465729,4.0
786,1436463465749,4.0
787,1436463465768,4.0
788,1436463465787,4.0
789,1436463465806,3.0
790,1436463465829,3.0
791,1436463465849,3.0
792,1436463465868,3.0
793,1436463465888,3.0
794,1436463465908,3.0
795,1436463465928,2.0
796,1436463465949,2.0
797,1436463465969,2.0
798,1436463465989,2.0
799,1436463466009,2.0
800,1436463466029,2.0
801,1436463466049,2.0
802,1436463466071,2.0
803,1436463466123,2.0
804,1436463466124,2.0
805,1436463466142,2.0
806,1436463466149,2.0
807,1436463466166,2.0
808,1436463466190,2.0
809,1436463466206,2.0
810,1436463466226,2.0
811,1436463466246,2.0
812,1436463466269,2.0
813,1436463466287,2.0
814,1436463466308,2.0
815,1436463466326,2.0
816,1436463466349,2.0
817,1436463466369,3.0
818,1436463466389,3.0
819,1436463466409,3.0
820,1436463466429,3.0
821,1436463466448,4.0
822,1436463466469,4.0
823,1436463466489,5.0
824,1436463466509,5.0
825,1436463466529,4.0
826,1436463466546,4.0
827,1436463466569,4.0
828,1436463466591,4.0
829,1436463466610,4.0
830,1436463466630,4.0
831,1436463466650,4.0
832,1436463466669,4.0
833,1436463466691,4.0
834,1436463466706,4.0
835,1436463466730,4.0
836,1436463466752,4.0
837,1436463466771,4.0
838,1436463466811,3.0
839,1436463466860,3.0
840,1436463466877,3.0
841,1436463466878,3.0
842,1436463466879,3.0
843,1436463466899,3.0
844,1436463466907,4.0
845,1436463466930,4.0
846,1436463466948,4.0
847,1436463466969,4.0
848,1436463466987,4.0
849,1436463467007,4.0
850,1436463467028,3.0
851,1436463467047,3.0
852,1436463467069,3.0
853,1436463467087,3.0
854,1436463467108,3.0
855,1436463467127,3.0
856,1436463467147,2.0
857,1436463467167,2.0
858,1436463467188,3.0
859,1436463467210,3.0
860,1436463467230,3.0
861,1436463467249,3.0
862,1436463467268,2.0
863,1436463467291,2.0
864,1436463467307,2.0
865,1436463467328,2.0
866,1436463467348,2.0
867,1436463467370,2.0
868,1436463467390,2.0
869,1436463467411,2.0
870,1436463467431,2.0
871,1436463467447,2.0
872,1436463467469,2.0
873,1436463467488,2.0
874,1436463467509,2.0
875,1436463467527,2.0
876,1436463467560,2.0
877,1436463467572,2.0
878,1436463467588,2.0
879,1436463467607,2.0
880,1436463467627,2.0
881,1436463467647,2.0
882,1436463467667,2.0
883,1436463467689,3.0
884,1436463467711,3.0
885,1436463467731,3.0
886,1436463467751,3.0
887,1436463467767,3.0
888,1436463467791,3.0
889,1436463467811,3.0
890,1436463467831,3.0
891,1436463467851,3.0
892,1436463467871,3.0
893,1436463467891,3.0
894,1436463467908,3.0
895,1436463467931,2.0
896,1436463467951,2.0
897,1436463467971,2.0
898,1436463467990,2.0
899,1436463468011,2.0
900,1436463468030,2.0
