id,attr_time,attr_light
1,1436463450020,19.0
2,1436463450037,19.0
3,1436463450094,19.0
4,1436463450095,19.0
5,1436463450099,19.0
6,1436463450118,19.0
7,1436463450137,19.0
8,1436463450158,19.0
9,1436463450176,19.0
10,1436463450196,19.0
11,1436463450216,20.0
12,1436463450237,20.0
13,1436463450258,20.0
14,1436463450282,20.0
15,1436463450297,20.0
16,1436463450321,20.0
17,1436463450341,20.0
18,1436463450359,20.0
19,1436463450379,20.0
20,1436463450397,20.0
21,1436463450421,20.0
22,1436463450441,20.0
23,1436463450461,20.0
24,1436463450479,21.0
25,1436463450497,21.0
26,1436463450523,21.0
27,1436463450539,21.0
28,1436463450560,21.0
29,1436463450579,21.0
30,1436463450597,21.0
31,1436463450617,21.0
32,1436463450638,21.0
33,1436463450662,21.0
34,1436463450681,21.0
35,1436463450697,21.0
36,1436463450718,21.0
37,1436463450742,21.0
38,1436463450762,21.0
39,1436463450781,21.0
40,1436463450798,21.0
41,1436463450822,21.0
42,1436463450842,21.0
43,1436463450862,21.0
44,1436463450881,21.0
45,1436463450900,21.0
46,1436463450919,21.0
47,1436463450938,21.0
48,1436463450962,21.0
49,1436463450979,21.0
50,1436463451001,21.0
51,1436463451019,21.0
52,1436463451044,21.0
53,1436463451064,21.0
54,1436463451084,21.0
55,1436463451101,21.0
56,1436463451118,21.0
57,1436463451138,20.0
58,1436463451160,20.0
59,1436463451180,20.0
60,1436463451210,20.0
61,1436463451274,20.0
62,1436463451275,20.0
63,1436463451276,20.0
64,1436463451282,20.0
65,1436463451303,20.0
66,1436463451326,20.0
67,1436463451339,20.0
68,1436463451359,20.0
69,1436463451379,20.0
70,1436463451410,20.0
71,1436463451468,20.0
72,1436463451470,20.0
73,1436463451471,20.0
74,1436463451488,20.0
75,1436463451499,20.0
76,1436463451519,20.0
77,1436463451539,20.0
78,1436463451560,20.0
79,1436463451579,20.0
80,1436463451599,20.0
81,1436463451619,20.0
82,1436463451641,20.0
83,1436463451662,20.0
84,1436463451680,20.0
85,1436463451702,20.0
86,1436463451720,20.0
87,1436463451740,20.0
88,1436463451760,20.0
89,1436463451779,20.0
90,1436463451804,20.0
91,1436463451823,20.0
92,1436463451843,20.0
93,1436463451863,20.0
94,1436463451880,20.0
95,1436463451902,20.0
96,1436463451918,20.0
97,1436463451940,20.0
98,1436463451960,20.0
99,1436463451984,21.0
100,1436463451998,21.0
101,1436463452019,21.0
102,1436463452038,21.0
103,1436463452059,21.0
104,1436463452083,21.0
105,1436463452099,21.0
106,1436463452119,21.0
107,1436463452143,21.0
108,1436463452163,21.0
109,1436463452182,21.0
110,1436463452200,21.0
111,1436463452221,21.0
112,1436463452243,21.0
113,1436463452263,20.0
114,1436463452282,20.0
115,1436463452307,20.0
116,1436463452323,20.0
117,1436463452340,20.0
118,1436463452363,20.0
119,1436463452380,20.0
120,1436463452402,20.0
121,1436463452426,20.0
122,1436463452442,20.0
123,1436463452463,20.0
124,1436463452484,20.0
125,1436463452522,20.0
126,1436463452523,20.0
127,1436463452578,20.0
128,1436463452579,20.0
129,1436463452580,20.0
130,1436463452603,20.0
131,1436463452654,20.0
132,1436463452655,20.0
133,1436463452664,20.0
134,1436463452680,20.0
135,1436463452700,20.0
136,1436463452720,20.0
137,1436463452740,20.0
138,1436463452760,20.0
139,1436463452780,20.0
140,1436463452800,20.0
141,1436463452820,20.0
142,1436463452840,20.0
143,1436463452861,20.0
144,1436463452880,20.0
145,1436463452902,20.0
146,1436463452923,20.0
147,1436463452942,20.0
148,1436463452963,20.0
149,1436463452983,20.0
150,1436463453001,20.0
151,1436463453021,20.0
152,1436463453040,20.0
153,1436463453061,20.0
154,1436463453082,20.0
155,1436463453100,20.0
156,1436463453120,20.0
157,1436463453140,20.0
158,1436463453191,20.0
159,1436463453192,20.0
160,1436463453202,20.0
161,1436463453221,20.0
162,1436463453241,20.0
163,1436463453260,20.0
164,1436463453280,20.0
165,1436463453301,20.0
166,1436463453324,20.0
167,1436463453372,20.0
168,1436463453373,20.0
169,1436463453381,20.0
170,1436463453400,20.0
171,1436463453420,20.0
172,1436463453441,20.0
173,1436463453460,20.0
174,1436463453480,20.0
175,1436463453500,20.0
176,1436463453522,20.0
177,1436463453544,20.0
178,1436463453562,20.0
179,1436463453584,20.0
180,1436463453601,20.0
181,1436463453621,20.0
182,1436463453643,20.0
183,1436463453663,20.0
184,1436463453683,20.0
185,1436463453704,20.0
186,1436463453724,20.0
187,1436463453744,20.0
188,1436463453764,20.0
189,1436463453782,20.0
190,1436463453803,20.0
191,1436463453821,20.0
192,1436463453843,20.0
193,1436463453864,20.0
194,1436463453885,20.0
195,1436463453904,20.0
196,1436463453923,20.0
197,1436463453944,20.0
198,1436463453964,20.0
199,1436463453984,19.0
200,1436463454003,19.0
201,1436463454022,19.0
202,1436463454042,19.0
203,1436463454063,19.0
204,1436463454081,19.0
205,1436463454103,19.0
206,1436463454149,19.0
207,1436463454150,19.0
208,1436463454171,19.0
209,1436463454181,19.0
210,1436463454207,19.0
211,1436463454230,19.0
212,1436463454241,19.0
213,1436463454261,19.0
214,1436463454281,19.0
215,1436463454301,19.0
216,1436463454321,19.0
217,1436463454341,19.0
218,1436463454362,19.0
219,1436463454383,19.0
220,1436463454402,19.0
221,1436463454429,19.0
222,1436463454442,19.0
223,1436463454461,19.0
224,1436463454481,19.0
225,1436463454502,19.0
226,1436463454525,19.0
227,1436463454545,19.0
228,1436463454562,20.0
229,1436463454582,20.0
230,1436463454603,20.0
231,1436463454624,20.0
232,1436463454644,20.0
233,1436463454663,20.0
234,1436463454685,20.0
235,1436463454705,20.0
236,1436463454725,20.0
237,1436463454744,20.0
238,1436463454764,20.0
239,1436463454784,21.0
240,1436463454805,21.0
241,1436463454826,21.0
242,1436463454883,21.0
243,1436463454893,21.0
244,1436463454894,21.0
245,1436463454903,21.0
246,1436463454931,21.0
247,1436463454943,21.0
248,1436463454962,21.0
249,1436463454983,21.0
250,1436463455003,21.0
251,1436463455023,21.0
252,1436463455043,21.0
253,1436463455066,21.0
254,1436463455083,21.0
255,1436463455103,21.0
256,1436463455125,21.0
257,1436463455143,22.0
258,1436463455166,22.0
259,1436463455183,22.0
260,1436463455205,22.0
261,1436463455225,22.0
262,1436463455243,22.0
263,1436463455266,22.0
264,1436463455290,21.0
265,1436463455303,21.0
266,1436463455325,21.0
267,1436463455343,21.0
268,1436463455366,21.0
269,1436463455383,21.0
270,1436463455405,21.0
271,1436463455425,21.0
272,1436463455444,20.0
273,1436463455463,20.0
274,1436463455483,20.0
275,1436463455503,20.0
276,1436463455523,20.0
277,1436463455543,19.0
278,1436463455649,19.0
279,1436463455650,19.0
280,1436463455651,19.0
281,1436463455652,19.0
282,1436463455653,19.0
283,1436463455668,19.0
284,1436463455683,19.0
285,1436463455703,19.0
286,1436463455723,19.0
287,1436463455748,19.0
288,1436463455775,19.0
289,1436463455783,19.0
290,1436463455803,18.0
291,1436463455823,18.0
292,1436463455845,18.0
293,1436463455867,18.0
294,1436463455884,18.0
295,1436463455906,17.0
296,1436463455926,17.0
297,1436463455946,17.0
298,1436463455969,17.0
299,1436463455984,17.0
300,1436463456006,17.0
301,1436463456023,17.0
302,1436463456046,17.0
303,1436463456069,17.0
304,1436463456083,18.0
305,1436463456104,18.0
306,1436463456123,19.0
307,1436463456144,19.0
308,1436463456171,20.0
309,1436463456184,20.0
310,1436463456206,20.0
311,1436463456223,20.0
312,1436463456243,20.0
313,1436463456278,20.0
314,1436463456284,19.0
315,1436463456327,19.0
316,1436463456328,19.0
317,1436463456351,19.0
318,1436463456364,19.0
319,1436463456388,18.0
320,1436463456406,18.0
321,1436463456423,17.0
322,1436463456446,17.0
323,1436463456465,17.0
324,1436463456484,17.0
325,1436463456505,17.0
326,1436463456525,17.0
327,1436463456543,17.0
328,1436463456568,17.0
329,1436463456584,17.0
330,1436463456605,17.0
331,1436463456631,17.0
332,1436463456647,17.0
333,1436463456669,17.0
334,1436463456686,18.0
335,1436463456704,19.0
336,1436463456726,19.0
337,1436463456746,19.0
338,1436463456765,19.0
339,1436463456786,21.0
340,1436463456807,21.0
341,1436463456826,22.0
342,1436463456847,22.0
343,1436463456870,24.0
344,1436463456886,24.0
345,1436463456907,25.0
346,1436463456927,26.0
347,1436463456947,26.0
348,1436463456970,25.0
349,1436463456985,25.0
350,1436463457013,24.0
351,1436463457063,24.0
352,1436463457064,24.0
353,1436463457065,24.0
354,1436463457088,24.0
355,1436463457106,24.0
356,1436463457128,24.0
357,1436463457145,25.0
358,1436463457164,25.0
359,1436463457184,27.0
360,1436463457204,27.0
361,1436463457229,27.0
362,1436463457247,27.0
363,1436463457265,26.0
364,1436463457288,26.0
365,1436463457307,26.0
366,1436463457328,25.0
367,1436463457348,25.0
368,1436463457367,23.0
369,1436463457388,23.0
370,1436463457408,22.0
371,1436463457427,22.0
372,1436463457448,25.0
373,1436463457466,25.0
374,1436463457485,25.0
375,1436463457508,25.0
376,1436463457525,25.0
377,1436463457544,26.0
378,1436463457565,26.0
379,1436463457590,24.0
380,1436463457610,24.0
381,1436463457631,22.0
382,1436463457648,22.0
383,1436463457665,24.0
384,1436463457685,24.0
385,1436463457704,25.0
386,1436463457727,26.0
387,1436463457745,26.0
388,1436463457799,27.0
389,1436463457800,27.0
390,1436463457817,26.0
391,1436463457825,26.0
392,1436463457851,26.0
393,1436463457867,26.0
394,1436463457886,26.0
395,1436463457908,26.0
396,1436463457926,26.0
397,1436463457946,27.0
398,1436463457966,27.0
399,1436463457986,27.0
400,1436463458005,27.0
401,1436463458028,26.0
402,1436463458049,26.0
403,1436463458068,25.0
404,1436463458088,25.0
405,1436463458108,25.0
406,1436463458129,25.0
407,1436463458148,25.0
408,1436463458168,26.0
409,1436463458190,26.0
410,1436463458207,28.0
411,1436463458228,28.0
412,1436463458246,31.0
413,1436463458268,31.0
414,1436463458286,31.0
415,1436463458309,31.0
416,1436463458330,32.0
417,1436463458350,35.0
418,1436463458369,35.0
419,1436463458386,35.0
420,1436463458406,35.0
421,1436463458425,35.0
422,1436463458449,35.0
423,1436463458467,35.0
424,1436463458586,35.0
425,1436463458587,34.0
426,1436463458588,34.0
427,1436463458589,33.0
428,1436463458590,31.0
429,1436463458591,31.0
430,1436463458618,28.0
431,1436463458629,28.0
432,1436463458645,28.0
433,1436463458667,28.0
434,1436463458687,30.0
435,1436463458709,30.0
436,1436463458726,28.0
437,1436463458747,28.0
438,1436463458765,28.0
439,1436463458789,29.0
440,1436463458806,29.0
441,1436463458829,29.0
442,1436463458849,29.0
443,1436463458869,25.0
444,1436463458889,25.0
445,1436463458909,24.0
446,1436463458929,24.0
447,1436463458949,25.0
448,1436463458969,25.0
449,1436463458990,25.0
450,1436463459014,26.0
451,1436463459026,26.0
452,1436463459046,27.0
453,1436463459066,27.0
454,1436463459089,28.0
455,1436463459106,28.0
456,1436463459126,29.0
457,1436463459147,29.0
458,1436463459166,30.0
459,1436463459189,30.0
460,1436463459209,30.0
461,1436463459229,31.0
462,1436463459248,31.0
463,1436463459275,33.0
464,1436463459287,33.0
465,1436463459333,34.0
466,1436463459334,34.0
467,1436463459355,33.0
468,1436463459366,34.0
469,1436463459386,34.0
470,1436463459408,35.0
471,1436463459428,35.0
472,1436463459450,35.0
473,1436463459468,35.0
474,1436463459488,36.0
475,1436463459509,36.0
476,1436463459527,38.0
477,1436463459546,38.0
478,1436463459570,38.0
479,1436463459590,36.0
480,1436463459610,36.0
481,1436463459630,35.0
482,1436463459650,35.0
483,1436463459670,34.0
484,1436463459686,34.0
485,1436463459707,32.0
486,1436463459730,32.0
487,1436463459747,31.0
488,1436463459799,31.0
489,1436463459800,28.0
490,1436463459818,27.0
491,1436463459827,27.0
492,1436463459847,28.0
493,1436463459867,28.0
494,1436463459887,26.0
495,1436463459907,26.0
496,1436463459927,25.0
497,1436463459947,25.0
498,1436463459967,25.0
499,1436463459987,25.0
500,1436463460007,25.0
501,1436463460042,24.0
502,1436463460052,24.0
503,1436463460067,24.0
504,1436463460087,24.0
505,1436463460107,24.0
506,1436463460127,24.0
507,1436463460147,23.0
508,1436463460167,23.0
509,1436463460187,24.0
510,1436463460207,25.0
511,1436463460227,25.0
512,1436463460247,24.0
513,1436463460267,24.0
514,1436463460287,23.0
515,1436463460307,23.0
516,1436463460328,21.0
517,1436463460347,21.0
518,1436463460369,20.0
519,1436463460392,23.0
520,1436463460411,23.0
521,1436463460431,25.0
522,1436463460448,25.0
523,1436463460468,26.0
524,1436463460492,26.0
525,1436463460511,25.0
526,1436463460531,25.0
527,1436463460549,23.0
528,1436463460567,23.0
529,1436463460589,24.0
530,1436463460612,23.0
531,1436463460632,23.0
532,1436463460651,21.0
533,1436463460671,21.0
534,1436463460691,21.0
535,1436463460709,21.0
536,1436463460733,21.0
537,1436463460759,21.0
538,1436463460772,19.0
539,1436463460787,19.0
540,1436463460808,19.0
541,1436463460830,18.0
542,1436463460848,18.0
543,1436463460869,18.0
544,1436463460889,18.0
545,1436463460908,17.0
546,1436463460931,17.0
547,1436463460951,16.0
548,1436463460969,16.0
549,1436463460991,14.0
550,1436463461011,14.0
551,1436463461031,14.0
552,1436463461051,15.0
553,1436463461071,15.0
554,1436463461091,14.0
555,1436463461111,14.0
556,1436463461129,14.0
557,1436463461149,14.0
558,1436463461171,14.0
559,1436463461188,14.0
560,1436463461208,15.0
561,1436463461229,14.0
562,1436463461250,14.0
563,1436463461271,13.0
564,1436463461291,13.0
565,1436463461318,13.0
566,1436463461328,13.0
567,1436463461348,13.0
568,1436463461369,13.0
569,1436463461388,13.0
570,1436463461424,13.0
571,1436463461442,13.0
572,1436463461454,13.0
573,1436463461469,13.0
574,1436463461493,13.0
575,1436463461509,13.0
576,1436463461530,13.0
577,1436463461552,13.0
578,1436463461568,13.0
579,1436463461590,13.0
580,1436463461609,14.0
581,1436463461629,15.0
582,1436463461654,15.0
583,1436463461669,16.0
584,1436463461692,16.0
585,1436463461712,16.0
586,1436463461732,16.0
587,1436463461752,16.0
588,1436463461772,16.0
589,1436463461792,15.0
590,1436463461812,15.0
591,1436463461832,15.0
592,1436463461852,16.0
593,1436463461872,16.0
594,1436463461889,16.0
595,1436463461912,16.0
596,1436463461932,16.0
597,1436463461953,16.0
598,1436463461972,15.0
599,1436463461992,15.0
600,1436463462012,15.0
601,1436463462032,15.0
602,1436463462051,15.0
603,1436463462072,14.0
604,1436463462093,14.0
605,1436463462113,13.0
606,1436463462132,13.0
607,1436463462155,13.0
608,1436463462222,13.0
609,1436463462223,12.0
610,1436463462224,12.0
611,1436463462231,12.0
612,1436463462259,12.0
613,1436463462271,12.0
614,1436463462291,12.0
615,1436463462311,12.0
616,1436463462329,12.0
617,1436463462350,12.0
618,1436463462371,13.0
619,1436463462390,13.0
620,1436463462411,12.0
621,1436463462435,12.0
622,1436463462450,12.0
623,1436463462469,11.0
624,1436463462497,11.0
625,1436463462509,11.0
626,1436463462531,11.0
627,1436463462553,11.0
628,1436463462573,11.0
629,1436463462590,11.0
630,1436463462611,11.0
631,1436463462633,11.0
632,1436463462650,10.0
633,1436463462669,10.0
634,1436463462690,11.0
635,1436463462714,11.0
636,1436463462734,11.0
637,1436463462755,11.0
638,1436463462773,12.0
639,1436463462789,12.0
640,1436463462810,12.0
641,1436463462830,12.0
642,1436463462852,12.0
643,1436463462869,12.0
644,1436463462921,12.0
645,1436463462922,11.0
646,1436463462939,11.0
647,1436463462950,11.0
648,1436463462973,11.0
649,1436463462989,11.0
650,1436463463010,11.0
651,1436463463030,11.0
652,1436463463059,11.0
653,1436463463070,11.0
654,1436463463094,11.0
655,1436463463110,11.0
656,1436463463134,11.0
657,1436463463151,11.0
658,1436463463199,11.0
659,1436463463200,11.0
660,1436463463211,10.0
661,1436463463233,10.0
662,1436463463253,10.0
663,1436463463273,9.0
664,1436463463293,9.0
665,1436463463313,8.0
666,1436463463333,8.0
667,1436463463353,9.0
668,1436463463371,9.0
669,1436463463393,9.0
670,1436463463413,9.0
671,1436463463434,9.0
672,1436463463452,9.0
673,1436463463473,9.0
674,1436463463494,9.0
675,1436463463516,9.0
676,1436463463541,8.0
677,1436463463551,8.0
678,1436463463573,8.0
679,1436463463591,8.0
680,1436463463612,9.0
681,1436463463631,9.0
682,1436463463650,9.0
683,1436463463701,9.0
684,1436463463702,9.0
685,1436463463712,9.0
686,1436463463730,9.0
687,1436463463750,9.0
688,1436463463771,9.0
689,1436463463792,9.0
690,1436463463813,9.0
691,1436463463832,9.0
692,1436463463852,9.0
693,1436463463872,9.0
694,1436463463894,9.0
695,1436463463913,9.0
696,1436463463933,9.0
697,1436463463954,9.0
698,1436463463973,10.0
699,1436463463994,10.0
700,1436463464014,11.0
701,1436463464034,11.0
702,1436463464054,11.0
703,1436463464073,11.0
704,1436463464093,11.0
705,1436463464113,11.0
706,1436463464134,11.0
707,1436463464151,11.0
708,1436463464171,11.0
709,1436463464191,10.0
710,1436463464212,10.0
711,1436463464236,11.0
712,1436463464257,11.0
713,1436463464273,11.0
714,1436463464291,10.0
715,1436463464311,10.0
716,1436463464331,10.0
717,1436463464352,10.0
718,1436463464374,10.0
719,1436463464438,10.0
720,1436463464441,9.0
721,1436463464442,9.0
722,1436463464451,9.0
723,1436463464474,9.0
724,1436463464509,8.0
725,1436463464514,8.0
726,1436463464531,8.0
727,1436463464551,8.0
728,1436463464576,8.0
729,1436463464592,8.0
730,1436463464611,8.0
731,1436463464632,8.0
732,1436463464654,8.0
733,1436463464673,8.0
734,1436463464695,9.0
735,1436463464715,9.0
736,1436463464735,9.0
737,1436463464754,9.0
738,1436463464773,8.0
739,1436463464795,8.0
740,1436463464815,8.0
741,1436463464834,8.0
742,1436463464858,8.0
743,1436463464875,8.0
744,1436463464898,8.0
745,1436463464913,8.0
746,1436463464937,8.0
747,1436463464955,8.0
748,1436463464972,8.0
749,1436463464992,8.0
750,1436463465012,8.0
751,1436463465033,8.0
752,1436463465059,8.0
753,1436463465073,9.0
754,1436463465093,9.0
755,1436463465117,9.0
756,1436463465183,9.0
757,1436463465184,9.0
758,1436463465185,10.0
759,1436463465192,10.0
760,1436463465217,10.0
761,1436463465233,10.0
762,1436463465253,10.0
763,1436463465273,10.0
764,1436463465294,10.0
765,1436463465313,10.0
766,1436463465333,10.0
767,1436463465353,9.0
768,1436463465373,9.0
769,1436463465395,10.0
770,1436463465415,10.0
771,1436463465435,10.0
772,1436463465452,10.0
773,1436463465474,10.0
774,1436463465497,10.0
775,1436463465514,10.0
776,1436463465532,10.0
777,1436463465554,10.0
778,1436463465576,9.0
779,1436463465595,9.0
780,1436463465613,9.0
781,1436463465635,9.0
782,1436463465653,9.0
783,1436463465675,9.0
784,1436463465697,8.0
785,1436463465717,8.0
786,1436463465733,8.0
787,1436463465754,8.0
788,1436463465773,8.0
789,1436463465793,8.0
790,1436463465813,8.0
791,1436463465835,8.0
792,1436463465897,8.0
793,1436463465898,9.0
794,1436463465899,9.0
795,1436463465915,9.0
796,1436463465935,9.0
797,1436463465952,9.0
798,1436463465973,8.0
799,1436463465994,8.0
800,1436463466015,8.0
801,1436463466034,8.0
802,1436463466053,9.0
803,1436463466075,9.0
804,1436463466096,8.0
805,1436463466116,8.0
806,1436463466136,8.0
807,1436463466156,8.0
808,1436463466174,8.0
809,1436463466196,8.0
810,1436463466216,8.0
811,1436463466236,8.0
812,1436463466256,8.0
813,1436463466274,8.0
814,1436463466294,8.0
815,1436463466316,8.0
816,1436463466335,8.0
817,1436463466355,8.0
818,1436463466373,9.0
819,1436463466396,9.0
820,1436463466416,9.0
821,1436463466435,9.0
822,1436463466453,9.0
823,1436463466476,9.0
824,1436463466500,9.0
825,1436463466517,9.0
826,1436463466533,9.0
827,1436463466554,9.0
828,1436463466605,9.0
829,1436463466606,9.0
830,1436463466624,9.0
831,1436463466633,9.0
832,1436463466656,9.0
833,1436463466673,9.0
834,1436463466693,9.0
835,1436463466715,9.0
836,1436463466736,9.0
837,1436463466754,9.0
838,1436463466774,9.0
839,1436463466797,9.0
840,1436463466813,9.0
841,1436463466837,9.0
842,1436463466856,9.0
843,1436463466875,9.0
844,1436463466897,9.0
845,1436463466917,9.0
846,1436463466936,9.0
847,1436463466957,9.0
848,1436463466977,9.0
849,1436463466995,9.0
850,1436463467017,9.0
851,1436463467037,9.0
852,1436463467057,9.0
853,1436463467076,9.0
854,1436463467096,9.0
855,1436463467117,9.0
856,1436463467137,9.0
857,1436463467158,10.0
858,1436463467177,10.0
859,1436463467198,10.0
860,1436463467214,10.0
861,1436463467234,10.0
862,1436463467254,9.0
863,1436463467274,9.0
864,1436463467303,9.0
865,1436463467317,9.0
866,1436463467334,9.0
867,1436463467354,9.0
868,1436463467374,9.0
869,1436463467395,10.0
870,1436463467414,10.0
871,1436463467434,10.0
872,1436463467454,10.0
873,1436463467474,10.0
874,1436463467505,10.0
875,1436463467514,9.0
876,1436463467534,9.0
877,1436463467560,10.0
878,1436463467584,10.0
879,1436463467594,10.0
880,1436463467614,10.0
