id,attr_time,attr_light
1,1436463450018,156.0
2,1436463450052,156.0
3,1436463450061,156.0
4,1436463450078,157.0
5,1436463450100,157.0
6,1436463450118,157.0
7,1436463450138,157.0
8,1436463450160,157.0
9,1436463450178,157.0
10,1436463450198,157.0
11,1436463450221,157.0
12,1436463450238,157.0
13,1436463450258,157.0
14,1436463450281,157.0
15,1436463450298,157.0
16,1436463450318,157.0
17,1436463450341,157.0
18,1436463450363,158.0
19,1436463450382,158.0
20,1436463450404,158.0
21,1436463450423,158.0
22,1436463450444,158.0
23,1436463450462,159.0
24,1436463450482,159.0
25,1436463450503,159.0
26,1436463450525,159.0
27,1436463450543,159.0
28,1436463450563,159.0
29,1436463450583,161.0
30,1436463450603,161.0
31,1436463450623,162.0
32,1436463450644,162.0
33,1436463450662,163.0
34,1436463450709,163.0
35,1436463450710,163.0
36,1436463450731,163.0
37,1436463450741,163.0
38,1436463450765,163.0
39,1436463450781,163.0
40,1436463450800,163.0
41,1436463450822,163.0
42,1436463450842,163.0
43,1436463450863,163.0
44,1436463450886,163.0
45,1436463450901,163.0
46,1436463450923,163.0
47,1436463450946,163.0
48,1436463450963,164.0
49,1436463450983,164.0
50,1436463451006,163.0
51,1436463451023,163.0
52,1436463451041,163.0
53,1436463451066,163.0
54,1436463451084,163.0
55,1436463451104,163.0
56,1436463451124,163.0
57,1436463451144,163.0
58,1436463451164,163.0
59,1436463451186,163.0
60,1436463451203,163.0
61,1436463451224,163.0
62,1436463451245,163.0
63,1436463451362,163.0
64,1436463451363,163.0
65,1436463451364,163.0
66,1436463451365,163.0
67,1436463451366,162.0
68,1436463451367,162.0
69,1436463451380,161.0
70,1436463451400,161.0
71,1436463451422,161.0
72,1436463451440,161.0
73,1436463451460,162.0
74,1436463451482,162.0
75,1436463451500,162.0
76,1436463451520,162.0
77,1436463451542,162.0
78,1436463451560,162.0
79,1436463451580,162.0
80,1436463451602,162.0
81,1436463451620,162.0
82,1436463451640,162.0
83,1436463451662,162.0
84,1436463451680,162.0
85,1436463451700,162.0
86,1436463451726,163.0
87,1436463451741,163.0
88,1436463451765,163.0
89,1436463451788,163.0
90,1436463451807,163.0
91,1436463451824,163.0
92,1436463451845,163.0
93,1436463451861,163.0
94,1436463451881,163.0
95,1436463451905,163.0
96,1436463451922,164.0
97,1436463451976,164.0
98,1436463451977,164.0
99,1436463451987,164.0
100,1436463452009,164.0
101,1436463452023,164.0
102,1436463452042,164.0
103,1436463452062,164.0
104,1436463452086,164.0
105,1436463452101,164.0
106,1436463452125,164.0
107,1436463452146,164.0
108,1436463452164,164.0
109,1436463452183,164.0
110,1436463452207,164.0
111,1436463452225,165.0
112,1436463452245,165.0
113,1436463452267,164.0
114,1436463452285,164.0
115,1436463452305,165.0
116,1436463452325,165.0
117,1436463452345,165.0
118,1436463452365,165.0
119,1436463452387,165.0
120,1436463452404,165.0
121,1436463452424,165.0
122,1436463452447,165.0
123,1436463452465,165.0
124,1436463452485,165.0
125,1436463452507,165.0
126,1436463452525,165.0
127,1436463452544,165.0
128,1436463452566,165.0
129,1436463452591,165.0
130,1436463452651,165.0
131,1436463452652,165.0
132,1436463452653,166.0
133,1436463452667,166.0
134,1436463452683,166.0
135,1436463452703,167.0
136,1436463452724,167.0
137,1436463452744,167.0
138,1436463452762,167.0
139,1436463452782,167.0
140,1436463452804,167.0
141,1436463452822,167.0
142,1436463452847,167.0
143,1436463452868,168.0
144,1436463452885,168.0
145,1436463452905,168.0
146,1436463452928,168.0
147,1436463452945,168.0
148,1436463452966,168.0
149,1436463452986,168.0
150,1436463453005,168.0
151,1436463453025,168.0
152,1436463453045,168.0
153,1436463453067,168.0
154,1436463453086,167.0
155,1436463453107,167.0
156,1436463453125,167.0
157,1436463453146,167.0
158,1436463453166,167.0
159,1436463453185,167.0
160,1436463453205,168.0
161,1436463453226,168.0
162,1436463453248,168.0
163,1436463453293,168.0
164,1436463453294,168.0
165,1436463453309,168.0
166,1436463453325,169.0
167,1436463453345,169.0
168,1436463453363,169.0
169,1436463453385,169.0
170,1436463453406,169.0
171,1436463453423,170.0
172,1436463453446,170.0
173,1436463453468,171.0
174,1436463453486,171.0
175,1436463453503,170.0
176,1436463453528,170.0
177,1436463453546,170.0
178,1436463453566,170.0
179,1436463453588,171.0
180,1436463453606,171.0
181,1436463453631,172.0
182,1436463453646,172.0
183,1436463453663,173.0
184,1436463453682,173.0
185,1436463453704,173.0
186,1436463453726,173.0
187,1436463453746,173.0
188,1436463453770,173.0
189,1436463453785,174.0
190,1436463453806,174.0
191,1436463453826,174.0
192,1436463453877,174.0
193,1436463453878,174.0
194,1436463453895,175.0
195,1436463453905,175.0
196,1436463453948,175.0
197,1436463453949,175.0
198,1436463453963,176.0
199,1436463453983,176.0
200,1436463454006,175.0
201,1436463454024,175.0
202,1436463454044,175.0
203,1436463454067,175.0
204,1436463454087,175.0
205,1436463454107,175.0
206,1436463454129,175.0
207,1436463454147,175.0
208,1436463454166,175.0
209,1436463454189,177.0
210,1436463454207,177.0
211,1436463454227,176.0
212,1436463454249,176.0
213,1436463454266,176.0
214,1436463454300,176.0
215,1436463454306,175.0
216,1436463454323,175.0
217,1436463454347,175.0
218,1436463454365,175.0
219,1436463454382,175.0
220,1436463454405,175.0
221,1436463454428,174.0
222,1436463454452,174.0
223,1436463454464,174.0
224,1436463454487,174.0
225,1436463454505,175.0
226,1436463454525,175.0
227,1436463454556,175.0
228,1436463454598,175.0
229,1436463454599,175.0
230,1436463454607,175.0
231,1436463454628,175.0
232,1436463454643,175.0
233,1436463454666,175.0
234,1436463454685,175.0
235,1436463454704,175.0
236,1436463454727,175.0
237,1436463454746,175.0
238,1436463454766,175.0
239,1436463454788,175.0
240,1436463454806,179.0
241,1436463454826,179.0
242,1436463454849,182.0
243,1436463454866,182.0
244,1436463454887,186.0
245,1436463454908,186.0
246,1436463454927,189.0
247,1436463454947,192.0
248,1436463454967,192.0
249,1436463454987,196.0
250,1436463455017,196.0
251,1436463455027,197.0
252,1436463455044,197.0
253,1436463455066,198.0
254,1436463455089,198.0
255,1436463455108,195.0
256,1436463455128,195.0
257,1436463455148,190.0
258,1436463455167,190.0
259,1436463455187,198.0
260,1436463455207,198.0
261,1436463455262,220.0
262,1436463455263,220.0
263,1436463455268,248.0
264,1436463455285,248.0
265,1436463455304,275.0
266,1436463455328,302.0
267,1436463455345,302.0
268,1436463455367,324.0
269,1436463455388,324.0
270,1436463455408,328.0
271,1436463455428,328.0
272,1436463455451,319.0
273,1436463455467,319.0
274,1436463455488,309.0
275,1436463455510,309.0
276,1436463455527,313.0
277,1436463455548,313.0
278,1436463455570,319.0
279,1436463455587,319.0
280,1436463455607,327.0
281,1436463455628,327.0
282,1436463455647,344.0
283,1436463455668,344.0
284,1436463455690,351.0
285,1436463455707,356.0
286,1436463455727,356.0
287,1436463455749,362.0
288,1436463455768,362.0
289,1436463455786,364.0
290,1436463455810,364.0
291,1436463455827,366.0
292,1436463455846,366.0
293,1436463455869,358.0
294,1436463455943,358.0
295,1436463455944,352.0
296,1436463455945,352.0
297,1436463455946,358.0
298,1436463455965,358.0
299,1436463455986,367.0
300,1436463456005,367.0
301,1436463456029,374.0
302,1436463456048,380.0
303,1436463456066,380.0
304,1436463456089,380.0
305,1436463456107,380.0
306,1436463456126,384.0
307,1436463456147,384.0
308,1436463456186,390.0
309,1436463456187,390.0
310,1436463456222,393.0
311,1436463456225,393.0
312,1436463456244,404.0
313,1436463456264,404.0
314,1436463456285,419.0
315,1436463456304,419.0
316,1436463456325,431.0
317,1436463456346,431.0
318,1436463456365,437.0
319,1436463456386,437.0
320,1436463456407,451.0
321,1436463456425,454.0
322,1436463456446,454.0
323,1436463456472,455.0
324,1436463456486,455.0
325,1436463456506,443.0
326,1436463456531,443.0
327,1436463456546,409.0
328,1436463456588,409.0
329,1436463456597,379.0
330,1436463456615,379.0
331,1436463456625,348.0
332,1436463456649,348.0
333,1436463456667,339.0
334,1436463456687,339.0
335,1436463456709,343.0
336,1436463456729,343.0
337,1436463456749,356.0
338,1436463456771,356.0
339,1436463456794,401.0
340,1436463456810,400.0
341,1436463456827,400.0
342,1436463456846,357.0
343,1436463456866,357.0
344,1436463456887,327.0
345,1436463456907,327.0
346,1436463456933,342.0
347,1436463456949,342.0
348,1436463456969,343.0
349,1436463456988,343.0
350,1436463457010,376.0
351,1436463457029,376.0
352,1436463457048,346.0
353,1436463457070,346.0
354,1436463457089,347.0
355,1436463457107,347.0
356,1436463457130,360.0
357,1436463457149,360.0
358,1436463457169,347.0
359,1436463457196,388.0
360,1436463457207,388.0
361,1436463457242,431.0
362,1436463457256,431.0
363,1436463457274,457.0
364,1436463457286,457.0
365,1436463457308,478.0
366,1436463457326,478.0
367,1436463457346,500.0
368,1436463457368,500.0
369,1436463457386,517.0
370,1436463457408,517.0
371,1436463457431,534.0
372,1436463457447,534.0
373,1436463457469,536.0
374,1436463457490,536.0
375,1436463457508,532.0
376,1436463457530,532.0
377,1436463457551,536.0
378,1436463457569,542.0
379,1436463457588,542.0
380,1436463457609,546.0
381,1436463457627,546.0
382,1436463457649,555.0
383,1436463457668,555.0
384,1436463457689,546.0
385,1436463457708,546.0
386,1436463457735,503.0
387,1436463457750,503.0
388,1436463457767,485.0
389,1436463457795,485.0
390,1436463457813,502.0
391,1436463457874,502.0
392,1436463457875,549.0
393,1436463457876,549.0
394,1436463457899,590.0
395,1436463457909,590.0
396,1436463457926,591.0
397,1436463457946,594.0
398,1436463457969,594.0
399,1436463457989,606.0
400,1436463458011,606.0
401,1436463458033,615.0
402,1436463458051,615.0
403,1436463458075,603.0
404,1436463458089,603.0
405,1436463458110,578.0
406,1436463458131,578.0
407,1436463458151,583.0
408,1436463458170,583.0
409,1436463458189,564.0
410,1436463458211,564.0
411,1436463458231,520.0
412,1436463458254,520.0
413,1436463458274,548.0
414,1436463458288,548.0
415,1436463458311,593.0
416,1436463458329,594.0
417,1436463458348,594.0
418,1436463458368,555.0
419,1436463458388,555.0
420,1436463458408,555.0
421,1436463458431,555.0
422,1436463458450,548.0
423,1436463458477,548.0
424,1436463458488,545.0
425,1436463458538,545.0
426,1436463458539,556.0
427,1436463458554,556.0
428,1436463458574,586.0
429,1436463458588,586.0
430,1436463458607,613.0
431,1436463458632,613.0
432,1436463458648,623.0
433,1436463458669,623.0
434,1436463458692,615.0
435,1436463458710,607.0
436,1436463458734,607.0
437,1436463458752,615.0
438,1436463458771,615.0
439,1436463458790,615.0
440,1436463458814,615.0
441,1436463458828,615.0
442,1436463458849,615.0
443,1436463458869,625.0
444,1436463458894,625.0
445,1436463458908,593.0
446,1436463458932,593.0
447,1436463458950,587.0
448,1436463458972,587.0
449,1436463458993,596.0
450,1436463459011,596.0
451,1436463459031,615.0
452,1436463459052,614.0
453,1436463459073,614.0
454,1436463459092,600.0
455,1436463459114,600.0
456,1436463459130,614.0
457,1436463459152,614.0
458,1436463459204,626.0
459,1436463459205,626.0
460,1436463459212,628.0
461,1436463459228,628.0
462,1436463459248,617.0
463,1436463459267,617.0
464,1436463459288,602.0
465,1436463459310,602.0
466,1436463459328,599.0
467,1436463459349,599.0
468,1436463459368,563.0
469,1436463459389,563.0
470,1436463459409,523.0
471,1436463459433,548.0
472,1436463459451,548.0
473,1436463459471,596.0
474,1436463459492,596.0
475,1436463459511,607.0
476,1436463459532,607.0
477,1436463459549,521.0
478,1436463459569,521.0
479,1436463459593,509.0
480,1436463459613,509.0
481,1436463459633,529.0
482,1436463459654,529.0
483,1436463459672,541.0
484,1436463459691,541.0
485,1436463459714,537.0
486,1436463459734,537.0
487,1436463459754,538.0
488,1436463459775,538.0
489,1436463459791,548.0
490,1436463459814,551.0
491,1436463459882,551.0
492,1436463459883,532.0
493,1436463459884,532.0
494,1436463459897,485.0
495,1436463459908,485.0
496,1436463459928,476.0
497,1436463459950,476.0
498,1436463459968,504.0
499,1436463459988,504.0
500,1436463460009,517.0
501,1436463460028,517.0
502,1436463460048,495.0
503,1436463460069,495.0
504,1436463460088,422.0
505,1436463460108,422.0
506,1436463460131,385.0
507,1436463460148,385.0
508,1436463460168,375.0
509,1436463460191,394.0
510,1436463460208,394.0
511,1436463460229,426.0
512,1436463460281,426.0
513,1436463460282,394.0
514,1436463460289,394.0
515,1436463460312,361.0
516,1436463460328,361.0
517,1436463460350,334.0
518,1436463460374,334.0
519,1436463460389,318.0
520,1436463460409,318.0
521,1436463460429,308.0
522,1436463460487,308.0
523,1436463460488,298.0
524,1436463460489,298.0
525,1436463460511,282.0
526,1436463460528,282.0
527,1436463460550,283.0
528,1436463460575,259.0
529,1436463460590,259.0
530,1436463460612,257.0
531,1436463460633,257.0
532,1436463460653,279.0
533,1436463460674,279.0
534,1436463460695,283.0
535,1436463460713,283.0
536,1436463460735,249.0
537,1436463460753,249.0
538,1436463460773,236.0
539,1436463460792,236.0
540,1436463460813,246.0
541,1436463460830,246.0
542,1436463460852,247.0
543,1436463460876,247.0
544,1436463460900,245.0
545,1436463460958,245.0
546,1436463460960,247.0
547,1436463460961,256.0
548,1436463460971,256.0
549,1436463460991,260.0
550,1436463461012,260.0
551,1436463461036,260.0
552,1436463461053,260.0
553,1436463461072,251.0
554,1436463461093,251.0
555,1436463461137,245.0
556,1436463461138,245.0
557,1436463461150,251.0
558,1436463461171,251.0
559,1436463461194,228.0
560,1436463461212,228.0
561,1436463461232,230.0
562,1436463461252,230.0
563,1436463461275,202.0
564,1436463461292,202.0
565,1436463461313,194.0
566,1436463461336,206.0
567,1436463461351,206.0
568,1436463461372,230.0
569,1436463461392,230.0
570,1436463461411,266.0
571,1436463461431,266.0
572,1436463461453,260.0
573,1436463461473,260.0
574,1436463461492,253.0
575,1436463461516,253.0
576,1436463461532,241.0
577,1436463461552,241.0
578,1436463461576,232.0
579,1436463461596,232.0
580,1436463461616,210.0
581,1436463461637,210.0
582,1436463461654,201.0
583,1436463461672,201.0
584,1436463461695,227.0
585,1436463461714,234.0
586,1436463461732,234.0
587,1436463461752,192.0
588,1436463461802,192.0
589,1436463461803,206.0
590,1436463461820,206.0
591,1436463461832,223.0
592,1436463461853,223.0
593,1436463461873,189.0
594,1436463461891,189.0
595,1436463461910,160.0
596,1436463461932,160.0
597,1436463461952,161.0
598,1436463461973,161.0
599,1436463461995,185.0
600,1436463462014,185.0
601,1436463462034,218.0
602,1436463462056,254.0
603,1436463462074,254.0
604,1436463462094,253.0
605,1436463462116,253.0
606,1436463462132,231.0
607,1436463462154,231.0
608,1436463462175,210.0
609,1436463462194,210.0
610,1436463462214,201.0
611,1436463462235,201.0
612,1436463462254,193.0
613,1436463462274,193.0
614,1436463462294,197.0
615,1436463462314,197.0
616,1436463462335,199.0
617,1436463462363,199.0
618,1436463462377,202.0
619,1436463462394,202.0
620,1436463462437,206.0
621,1436463462438,199.0
622,1436463462450,199.0
623,1436463462471,192.0
624,1436463462493,192.0
625,1436463462516,182.0
626,1436463462535,182.0
627,1436463462551,191.0
628,1436463462572,191.0
629,1436463462594,200.0
630,1436463462615,200.0
631,1436463462635,205.0
632,1436463462655,205.0
633,1436463462675,215.0
634,1436463462695,215.0
635,1436463462717,215.0
636,1436463462735,215.0
637,1436463462755,199.0
638,1436463462776,199.0
639,1436463462793,182.0
640,1436463462815,174.0
641,1436463462835,174.0
642,1436463462866,173.0
643,1436463462884,173.0
644,1436463462897,172.0
645,1436463462912,172.0
646,1436463462931,162.0
647,1436463462954,162.0
648,1436463462972,174.0
649,1436463462995,174.0
650,1436463463015,181.0
651,1436463463034,181.0
652,1436463463058,174.0
653,1436463463106,174.0
654,1436463463107,185.0
655,1436463463117,185.0
656,1436463463137,193.0
657,1436463463152,193.0
658,1436463463173,193.0
659,1436463463194,181.0
660,1436463463216,181.0
661,1436463463233,175.0
662,1436463463258,175.0
663,1436463463276,166.0
664,1436463463294,166.0
665,1436463463316,161.0
666,1436463463335,161.0
667,1436463463355,165.0
668,1436463463379,165.0
669,1436463463393,171.0
670,1436463463413,171.0
671,1436463463433,177.0
672,1436463463455,177.0
673,1436463463473,185.0
674,1436463463499,185.0
675,1436463463518,196.0
676,1436463463538,196.0
677,1436463463557,201.0
678,1436463463574,203.0
679,1436463463593,203.0
680,1436463463618,185.0
681,1436463463639,185.0
682,1436463463659,151.0
683,1436463463679,151.0
684,1436463463695,156.0
685,1436463463717,156.0
686,1436463463776,157.0
687,1436463463777,157.0
688,1436463463778,182.0
689,1436463463794,182.0
690,1436463463813,189.0
691,1436463463833,189.0
692,1436463463875,194.0
693,1436463463876,194.0
694,1436463463893,196.0
695,1436463463915,196.0
696,1436463463932,178.0
697,1436463463953,160.0
698,1436463463973,160.0
699,1436463464031,149.0
700,1436463464032,149.0
701,1436463464033,145.0
702,1436463464052,145.0
703,1436463464072,140.0
704,1436463464093,140.0
705,1436463464112,114.0
706,1436463464132,114.0
707,1436463464153,124.0
708,1436463464172,124.0
709,1436463464192,141.0
710,1436463464213,141.0
711,1436463464233,96.0
712,1436463464252,96.0
713,1436463464273,76.0
714,1436463464292,76.0
715,1436463464312,77.0
716,1436463464335,81.0
717,1436463464352,81.0
718,1436463464374,86.0
719,1436463464428,86.0
720,1436463464429,96.0
721,1436463464432,96.0
722,1436463464456,122.0
723,1436463464472,122.0
724,1436463464496,144.0
725,1436463464518,144.0
726,1436463464534,162.0
727,1436463464555,162.0
728,1436463464577,174.0
729,1436463464597,174.0
730,1436463464616,162.0
731,1436463464638,162.0
732,1436463464657,149.0
733,1436463464677,156.0
734,1436463464697,156.0
735,1436463464717,160.0
736,1436463464737,160.0
737,1436463464757,166.0
738,1436463464775,166.0
739,1436463464797,142.0
740,1436463464819,142.0
741,1436463464836,125.0
742,1436463464857,125.0
743,1436463464879,136.0
744,1436463464896,136.0
745,1436463464916,170.0
746,1436463464938,170.0
747,1436463464957,191.0
748,1436463464977,191.0
749,1436463465009,194.0
750,1436463465014,194.0
751,1436463465040,198.0
752,1436463465101,196.0
753,1436463465102,196.0
754,1436463465103,179.0
755,1436463465116,179.0
756,1436463465133,167.0
757,1436463465154,167.0
758,1436463465177,155.0
759,1436463465195,155.0
760,1436463465216,142.0
761,1436463465238,142.0
762,1436463465257,140.0
763,1436463465277,140.0
764,1436463465295,138.0
765,1436463465317,138.0
766,1436463465338,118.0
767,1436463465356,118.0
768,1436463465374,132.0
769,1436463465394,132.0
770,1436463465415,148.0
771,1436463465435,109.0
772,1436463465457,109.0
773,1436463465477,85.0
774,1436463465494,85.0
775,1436463465514,83.0
776,1436463465536,83.0
777,1436463465554,89.0
778,1436463465578,89.0
779,1436463465604,104.0
780,1436463465617,104.0
781,1436463465636,115.0
782,1436463465658,115.0
783,1436463465722,124.0
784,1436463465723,124.0
785,1436463465724,129.0
786,1436463465737,129.0
787,1436463465758,120.0
788,1436463465774,120.0
789,1436463465797,108.0
790,1436463465814,100.0
791,1436463465839,100.0
792,1436463465854,110.0
793,1436463465876,110.0
794,1436463465897,115.0
795,1436463465916,115.0
796,1436463465937,119.0
797,1436463465956,119.0
798,1436463465976,116.0
799,1436463465998,116.0
800,1436463466020,85.0
801,1436463466036,85.0
802,1436463466058,74.0
803,1436463466079,74.0
804,1436463466095,73.0
805,1436463466118,73.0
806,1436463466138,87.0
807,1436463466157,87.0
808,1436463466178,120.0
809,1436463466200,129.0
810,1436463466218,129.0
811,1436463466237,118.0
812,1436463466261,118.0
813,1436463466278,130.0
814,1436463466299,130.0
815,1436463466318,132.0
816,1436463466338,132.0
817,1436463466358,122.0
818,1436463466405,122.0
819,1436463466406,111.0
820,1436463466419,111.0
821,1436463466441,98.0
822,1436463466455,98.0
823,1436463466476,97.0
824,1436463466496,97.0
825,1436463466518,85.0
826,1436463466535,85.0
827,1436463466557,81.0
828,1436463466579,73.0
829,1436463466599,73.0
830,1436463466617,55.0
831,1436463466637,55.0
832,1436463466659,53.0
833,1436463466679,53.0
834,1436463466697,54.0
835,1436463466719,54.0
836,1436463466739,54.0
837,1436463466757,54.0
838,1436463466778,54.0
