id,attr_time,attr_light
1,1438190587031,0.0
2,1438190587049,0.0
3,1438190587068,0.0
4,1438190587088,0.0
5,1438190587106,0.0
6,1438190587129,0.0
7,1438190587153,0.0
8,1438190587166,0.0
9,1438190587187,0.0
10,1438190587208,0.0
11,1438190587228,0.0
12,1438190587248,0.0
13,1438190587267,0.0
14,1438190587291,0.0
15,1438190587311,0.0
16,1438190587331,0.0
17,1438190587351,0.0
18,1438190587368,0.0
19,1438190587391,0.0
20,1438190587411,0.0
21,1438190587431,0.0
22,1438190587451,0.0
23,1438190587471,0.0
24,1438190587491,0.0
25,1438190587507,0.0
26,1438190587531,0.0
27,1438190587550,0.0
28,1438190587571,0.0
29,1438190587593,0.0
30,1438190587609,0.0
31,1438190587630,0.0
32,1438190587650,0.0
33,1438190587671,0.0
34,1438190587691,0.0
35,1438190587712,0.0
36,1438190587743,0.0
37,1438190587892,0.0
38,1438190587893,0.0
39,1438190587894,0.0
40,1438190587895,0.0
41,1438190587896,0.0
42,1438190587897,0.0
43,1438190587898,0.0
44,1438190587899,0.0
45,1438190587908,0.0
46,1438190587929,0.0
47,1438190587948,0.0
48,1438190587977,0.0
49,1438190587992,0.0
50,1438190588010,0.0
51,1438190588037,0.0
52,1438190588048,0.0
53,1438190588069,0.0
54,1438190588088,0.0
55,1438190588109,0.0
56,1438190588131,0.0
57,1438190588150,0.0
58,1438190588172,0.0
59,1438190588192,1.0
60,1438190588212,1.0
61,1438190588232,0.0
62,1438190588248,0.0
63,1438190588272,0.0
64,1438190588290,0.0
65,1438190588312,0.0
66,1438190588332,0.0
67,1438190588351,0.0
68,1438190588371,0.0
69,1438190588392,0.0
70,1438190588411,0.0
71,1438190588432,0.0
72,1438190588451,0.0
73,1438190588472,0.0
74,1438190588492,0.0
75,1438190588510,0.0
76,1438190588530,0.0
77,1438190588549,0.0
78,1438190588623,0.0
79,1438190588624,0.0
80,1438190588625,0.0
81,1438190588643,0.0
82,1438190588652,0.0
83,1438190588670,0.0
84,1438190588690,0.0
85,1438190588710,0.0
86,1438190588731,0.0
87,1438190588752,0.0
88,1438190588771,0.0
89,1438190588791,0.0
90,1438190588815,0.0
91,1438190588830,0.0
92,1438190588853,0.0
93,1438190588872,0.0
94,1438190588892,0.0
95,1438190588912,0.0
96,1438190588932,0.0
97,1438190588954,0.0
98,1438190588971,0.0
99,1438190588991,0.0
100,1438190589012,0.0
101,1438190589032,0.0
102,1438190589051,0.0
103,1438190589071,0.0
104,1438190589092,0.0
105,1438190589113,0.0
106,1438190589130,0.0
107,1438190589153,0.0
108,1438190589172,0.0
109,1438190589192,0.0
110,1438190589226,0.0
111,1438190589230,0.0
112,1438190589250,0.0
113,1438190589270,0.0
114,1438190589290,0.0
115,1438190589310,0.0
116,1438190589333,0.0
117,1438190589374,0.0
118,1438190589375,0.0
119,1438190589390,0.0
120,1438190589410,0.0
121,1438190589430,0.0
122,1438190589451,0.0
123,1438190589470,0.0
124,1438190589490,0.0
125,1438190589512,0.0
126,1438190589531,0.0
127,1438190589551,0.0
128,1438190589573,0.0
129,1438190589591,0.0
130,1438190589613,0.0
131,1438190589634,0.0
132,1438190589652,0.0
133,1438190589672,0.0
134,1438190589692,0.0
135,1438190589717,0.0
136,1438190589732,0.0
137,1438190589752,0.0
138,1438190589774,0.0
139,1438190589797,0.0
140,1438190589811,0.0
141,1438190589832,0.0
142,1438190589852,0.0
143,1438190589870,0.0
144,1438190589891,0.0
145,1438190589914,0.0
146,1438190589933,0.0
147,1438190589954,0.0
148,1438190589973,0.0
149,1438190589991,0.0
150,1438190590011,0.0
151,1438190590032,0.0
152,1438190590052,0.0
153,1438190590137,0.0
154,1438190590138,0.0
155,1438190590139,0.0
156,1438190590140,0.0
157,1438190590150,0.0
158,1438190590174,0.0
159,1438190590190,0.0
160,1438190590211,0.0
161,1438190590232,0.0
162,1438190590251,0.0
163,1438190590274,0.0
164,1438190590293,0.0
165,1438190590312,0.0
166,1438190590334,0.0
167,1438190590352,0.0
168,1438190590372,0.0
169,1438190590394,0.0
170,1438190590412,0.0
171,1438190590434,0.0
172,1438190590452,0.0
173,1438190590472,0.0
174,1438190590496,0.0
175,1438190590514,0.0
176,1438190590534,0.0
177,1438190590552,0.0
178,1438190590572,0.0
179,1438190590594,0.0
180,1438190590612,0.0
181,1438190590634,0.0
182,1438190590654,0.0
183,1438190590674,0.0
184,1438190590694,0.0
185,1438190590712,0.0
186,1438190590734,0.0
187,1438190590752,0.0
188,1438190590853,0.0
189,1438190590854,0.0
190,1438190590855,0.0
191,1438190590856,0.0
192,1438190590857,0.0
193,1438190590871,0.0
194,1438190590895,0.0
195,1438190590912,0.0
196,1438190590931,0.0
197,1438190590953,0.0
198,1438190590971,0.0
199,1438190590994,0.0
200,1438190591017,0.0
201,1438190591032,0.0
202,1438190591052,0.0
203,1438190591072,0.0
204,1438190591095,0.0
205,1438190591114,0.0
206,1438190591133,0.0
207,1438190591153,0.0
208,1438190591175,0.0
209,1438190591198,0.0
210,1438190591212,0.0
211,1438190591239,0.0
212,1438190591254,0.0
213,1438190591273,0.0
214,1438190591295,0.0
215,1438190591314,0.0
216,1438190591335,0.0
217,1438190591352,0.0
218,1438190591374,0.0
219,1438190591395,0.0
220,1438190591415,0.0
221,1438190591436,0.0
222,1438190591455,0.0
223,1438190591475,0.0
224,1438190591495,0.0
225,1438190591516,0.0
226,1438190591576,0.0
227,1438190591577,0.0
228,1438190591578,0.0
229,1438190591603,0.0
230,1438190591612,0.0
231,1438190591640,0.0
232,1438190591652,0.0
233,1438190591672,0.0
234,1438190591692,0.0
235,1438190591740,0.0
236,1438190591741,0.0
237,1438190591784,0.0
238,1438190591785,0.0
239,1438190591797,0.0
240,1438190591820,0.0
241,1438190591833,0.0
242,1438190591859,0.0
243,1438190591874,0.0
244,1438190591896,0.0
245,1438190591916,0.0
246,1438190591934,0.0
247,1438190591957,0.0
248,1438190591973,0.0
249,1438190591997,0.0
250,1438190592014,0.0
251,1438190592035,0.0
252,1438190592062,0.0
253,1438190592118,0.0
254,1438190592119,0.0
255,1438190592120,0.0
256,1438190592132,0.0
257,1438190592156,0.0
258,1438190592174,0.0
259,1438190592194,0.0
260,1438190592215,0.0
261,1438190592236,0.0
262,1438190592256,0.0
263,1438190592272,0.0
264,1438190592294,1.0
265,1438190592324,1.0
266,1438190592381,0.0
267,1438190592382,0.0
268,1438190592383,0.0
269,1438190592401,0.0
270,1438190592413,0.0
271,1438190592434,0.0
272,1438190592454,0.0
273,1438190592473,0.0
274,1438190592494,0.0
275,1438190592513,0.0
276,1438190592538,0.0
277,1438190592554,0.0
278,1438190592575,0.0
279,1438190592593,0.0
280,1438190592616,0.0
281,1438190592637,0.0
282,1438190592655,0.0
283,1438190592676,0.0
284,1438190592695,0.0
285,1438190592719,0.0
286,1438190592737,0.0
287,1438190592815,0.0
288,1438190592816,0.0
289,1438190592817,0.0
290,1438190592818,0.0
291,1438190592836,1.0
292,1438190592855,1.0
293,1438190592876,1.0
294,1438190592895,1.0
295,1438190592917,1.0
296,1438190592937,1.0
297,1438190592957,2.0
298,1438190592977,2.0
299,1438190592993,2.0
300,1438190593017,2.0
301,1438190593037,3.0
302,1438190593062,3.0
303,1438190593139,3.0
304,1438190593140,3.0
305,1438190593141,3.0
306,1438190593142,3.0
307,1438190593153,3.0
308,1438190593177,3.0
309,1438190593195,3.0
310,1438190593213,3.0
311,1438190593238,3.0
312,1438190593255,3.0
313,1438190593273,2.0
314,1438190593296,2.0
315,1438190593317,2.0
316,1438190593334,2.0
317,1438190593356,2.0
318,1438190593377,2.0
319,1438190593398,2.0
320,1438190593416,2.0
321,1438190593437,2.0
322,1438190593456,2.0
323,1438190593477,2.0
324,1438190593499,2.0
325,1438190593519,2.0
326,1438190593534,2.0
327,1438190593556,3.0
328,1438190593577,3.0
329,1438190593597,3.0
330,1438190593617,3.0
331,1438190593637,3.0
332,1438190593656,3.0
333,1438190593677,3.0
334,1438190593697,3.0
335,1438190593721,3.0
336,1438190593740,4.0
337,1438190593760,4.0
338,1438190593783,3.0
339,1438190593864,3.0
340,1438190593865,3.0
341,1438190593866,3.0
342,1438190593867,4.0
343,1438190593884,4.0
344,1438190593894,4.0
345,1438190593914,4.0
346,1438190593936,4.0
347,1438190593954,4.0
348,1438190593976,4.0
349,1438190593995,4.0
350,1438190594016,3.0
351,1438190594035,3.0
352,1438190594058,3.0
353,1438190594080,3.0
354,1438190594098,3.0
355,1438190594114,3.0
356,1438190594138,4.0
357,1438190594157,4.0
358,1438190594178,4.0
359,1438190594198,4.0
360,1438190594217,4.0
361,1438190594239,4.0
362,1438190594260,4.0
363,1438190594279,4.0
364,1438190594297,4.0
365,1438190594319,4.0
366,1438190594337,3.0
367,1438190594358,3.0
368,1438190594378,3.0
369,1438190594397,4.0
370,1438190594418,4.0
371,1438190594438,4.0
372,1438190594458,4.0
373,1438190594478,4.0
374,1438190594615,4.0
375,1438190594616,4.0
376,1438190594617,4.0
377,1438190594619,4.0
378,1438190594620,4.0
379,1438190594621,5.0
380,1438190594622,5.0
381,1438190594635,4.0
382,1438190594665,4.0
383,1438190594675,3.0
384,1438190594706,3.0
385,1438190594742,3.0
386,1438190594743,3.0
387,1438190594766,4.0
388,1438190594775,4.0
389,1438190594796,4.0
390,1438190594815,4.0
391,1438190594835,4.0
392,1438190594867,4.0
393,1438190594875,4.0
394,1438190594895,4.0
395,1438190594915,4.0
396,1438190594935,4.0
397,1438190594956,4.0
398,1438190594978,4.0
399,1438190594997,4.0
400,1438190595016,4.0
401,1438190595040,4.0
402,1438190595058,4.0
403,1438190595078,4.0
404,1438190595095,4.0
405,1438190595117,4.0
406,1438190595134,4.0
407,1438190595154,4.0
408,1438190595178,4.0
409,1438190595197,4.0
410,1438190595215,3.0
411,1438190595234,3.0
412,1438190595254,3.0
413,1438190595274,3.0
414,1438190595294,2.0
415,1438190595314,2.0
416,1438190595334,2.0
417,1438190595354,2.0
418,1438190595374,2.0
419,1438190595394,2.0
420,1438190595414,2.0
421,1438190595434,2.0
422,1438190595454,2.0
423,1438190595474,2.0
424,1438190595497,2.0
425,1438190595519,2.0
426,1438190595536,2.0
427,1438190595559,2.0
428,1438190595579,2.0
429,1438190595599,2.0
430,1438190595619,2.0
431,1438190595637,2.0
432,1438190595658,2.0
433,1438190595679,2.0
434,1438190595698,2.0
435,1438190595717,2.0
436,1438190595736,2.0
437,1438190595757,2.0
438,1438190595776,2.0
439,1438190595821,2.0
440,1438190595822,2.0
441,1438190595852,2.0
442,1438190597225,2.0
443,1438190597226,2.0
444,1438190597227,2.0
445,1438190597228,2.0
446,1438190597229,2.0
447,1438190597230,2.0
448,1438190597231,2.0
449,1438190597232,2.0
450,1438190597233,2.0
451,1438190597234,2.0
452,1438190597235,2.0
453,1438190597236,2.0
454,1438190597237,2.0
455,1438190597238,2.0
456,1438190597239,2.0
457,1438190597240,2.0
458,1438190597241,2.0
459,1438190597242,2.0
460,1438190597243,2.0
461,1438190597244,2.0
462,1438190597245,2.0
463,1438190597246,2.0
464,1438190597247,2.0
465,1438190597248,2.0
466,1438190597249,2.0
467,1438190597250,2.0
468,1438190597251,2.0
469,1438190597252,2.0
470,1438190597253,2.0
471,1438190597254,2.0
472,1438190597255,2.0
473,1438190597256,2.0
474,1438190597257,2.0
475,1438190597258,2.0
476,1438190597259,2.0
477,1438190597260,2.0
478,1438190597261,2.0
479,1438190597262,2.0
480,1438190597263,2.0
481,1438190597264,2.0
482,1438190597265,2.0
483,1438190597266,2.0
484,1438190597267,2.0
485,1438190597268,2.0
486,1438190597269,2.0
487,1438190597270,2.0
488,1438190597271,2.0
489,1438190597272,2.0
490,1438190597273,2.0
491,1438190597274,2.0
492,1438190597275,2.0
493,1438190597276,2.0
494,1438190597277,2.0
495,1438190597278,2.0
496,1438190597279,2.0
497,1438190597280,2.0
498,1438190597281,2.0
499,1438190597282,2.0
500,1438190597283,2.0
501,1438190597284,2.0
502,1438190597285,2.0
503,1438190597286,2.0
504,1438190597287,2.0
505,1438190597288,2.0
506,1438190597289,2.0
507,1438190597290,2.0
508,1438190597291,2.0
509,1438190597292,2.0
510,1438190597293,2.0
511,1438190597294,2.0
512,1438190597295,2.0
513,1438190597296,2.0
514,1438190597297,2.0
515,1438190597317,2.0
516,1438190597341,2.0
517,1438190597360,2.0
518,1438190597380,2.0
519,1438190597401,2.0
520,1438190597418,2.0
521,1438190597437,2.0
522,1438190597461,2.0
523,1438190597480,2.0
524,1438190597501,2.0
525,1438190597521,2.0
526,1438190597537,2.0
527,1438190597561,2.0
528,1438190597578,2.0
529,1438190597599,2.0
530,1438190597618,2.0
531,1438190597639,2.0
532,1438190597663,2.0
533,1438190597678,2.0
534,1438190597701,2.0
535,1438190597717,2.0
536,1438190597738,2.0
537,1438190597757,2.0
538,1438190597778,2.0
539,1438190597862,2.0
540,1438190597863,2.0
541,1438190597864,2.0
542,1438190597865,2.0
543,1438190597888,2.0
544,1438190597898,2.0
545,1438190597917,2.0
546,1438190597937,2.0
547,1438190597960,2.0
548,1438190597978,2.0
549,1438190598002,2.0
550,1438190598018,2.0
551,1438190598038,2.0
552,1438190598062,2.0
553,1438190598079,2.0
554,1438190598102,2.0
555,1438190598118,2.0
556,1438190598140,2.0
557,1438190598160,2.0
558,1438190598180,2.0
559,1438190598202,2.0
560,1438190598219,2.0
561,1438190598239,2.0
562,1438190598260,2.0
563,1438190598280,2.0
564,1438190598299,2.0
565,1438190598321,2.0
566,1438190598342,2.0
567,1438190598360,2.0
568,1438190598382,2.0
569,1438190598400,2.0
570,1438190598420,2.0
571,1438190598440,2.0
572,1438190598459,2.0
573,1438190598486,2.0
574,1438190598551,2.0
575,1438190598552,2.0
576,1438190598553,2.0
577,1438190598559,2.0
578,1438190598589,2.0
579,1438190598600,2.0
580,1438190598619,2.0
581,1438190598639,2.0
582,1438190598672,2.0
583,1438190598679,2.0
584,1438190598705,2.0
585,1438190598720,2.0
586,1438190598743,2.0
587,1438190598765,2.0
588,1438190598780,2.0
589,1438190598800,2.0
590,1438190598820,2.0
591,1438190598839,2.0
592,1438190598862,2.0
593,1438190598879,2.0
594,1438190598901,2.0
595,1438190598921,2.0
596,1438190598941,2.0
597,1438190598962,2.0
598,1438190598981,2.0
599,1438190599000,2.0
600,1438190599021,2.0
601,1438190599063,2.0
602,1438190599064,2.0
603,1438190599105,2.0
604,1438190599106,2.0
605,1438190599119,2.0
606,1438190599139,2.0
607,1438190599159,2.0
608,1438190599180,2.0
609,1438190599199,2.0
610,1438190599219,2.0
611,1438190599239,2.0
612,1438190599264,2.0
613,1438190599279,2.0
614,1438190599300,2.0
615,1438190599319,2.0
616,1438190599448,2.0
617,1438190599449,2.0
618,1438190599450,2.0
619,1438190599451,2.0
620,1438190599452,2.0
621,1438190599453,2.0
622,1438190599459,2.0
623,1438190599479,2.0
624,1438190599499,2.0
625,1438190599520,2.0
626,1438190599540,2.0
627,1438190599562,2.0
628,1438190599583,2.0
629,1438190599603,2.0
630,1438190599620,2.0
631,1438190599641,2.0
632,1438190599660,2.0
633,1438190599683,2.0
634,1438190599703,2.0
635,1438190599719,2.0
636,1438190599740,2.0
637,1438190599759,2.0
638,1438190599779,2.0
639,1438190599800,2.0
640,1438190599819,2.0
641,1438190599840,2.0
642,1438190599863,2.0
643,1438190599882,2.0
644,1438190599899,2.0
645,1438190599919,2.0
646,1438190599941,2.0
647,1438190599959,2.0
648,1438190599979,2.0
649,1438190599999,2.0
650,1438190600019,2.0
651,1438190600040,2.0
652,1438190600061,2.0
653,1438190600081,2.0
654,1438190600103,2.0
655,1438190600120,2.0
656,1438190600142,2.0
657,1438190600164,2.0
658,1438190600181,2.0
659,1438190600204,2.0
660,1438190600225,2.0
661,1438190600240,2.0
662,1438190600261,2.0
663,1438190600284,2.0
664,1438190600304,2.0
665,1438190600322,2.0
666,1438190600341,2.0
667,1438190600364,2.0
668,1438190600385,2.0
669,1438190600402,2.0
670,1438190600420,2.0
671,1438190600440,2.0
672,1438190600460,2.0
673,1438190600485,2.0
674,1438190600504,2.0
675,1438190600524,2.0
676,1438190600542,2.0
677,1438190600562,2.0
678,1438190600604,2.0
679,1438190600605,2.0
680,1438190600620,2.0
681,1438190600643,2.0
682,1438190600662,2.0
683,1438190600680,2.0
684,1438190600701,2.0
685,1438190600721,2.0
686,1438190600743,2.0
687,1438190600766,2.0
688,1438190600781,2.0
689,1438190600801,2.0
690,1438190600822,2.0
691,1438190600841,2.0
692,1438190600862,2.0
693,1438190600884,2.0
694,1438190600904,2.0
695,1438190600922,2.0
696,1438190600941,2.0
697,1438190600962,2.0
698,1438190600984,2.0
699,1438190601003,2.0
700,1438190601022,2.0
701,1438190601042,2.0
702,1438190601062,2.0
703,1438190601084,2.0
704,1438190601102,2.0
705,1438190601122,2.0
706,1438190601143,2.0
707,1438190601162,2.0
708,1438190601185,2.0
709,1438190601204,2.0
710,1438190601224,2.0
711,1438190601246,2.0
712,1438190601262,2.0
713,1438190601284,2.0
714,1438190601364,2.0
715,1438190601365,2.0
716,1438190601366,2.0
717,1438190601367,2.0
718,1438190601384,2.0
719,1438190601405,2.0
720,1438190601421,2.0
721,1438190601442,2.0
722,1438190601475,2.0
723,1438190601483,2.0
724,1438190601503,2.0
725,1438190603075,2.0
726,1438190603076,2.0
727,1438190603077,2.0
728,1438190603078,2.0
729,1438190603079,2.0
730,1438190603080,2.0
731,1438190603081,2.0
732,1438190603082,2.0
733,1438190603083,2.0
734,1438190603084,2.0
735,1438190603085,2.0
736,1438190603086,2.0
737,1438190603087,2.0
738,1438190603088,2.0
739,1438190603089,2.0
740,1438190603090,2.0
741,1438190603091,2.0
742,1438190603092,2.0
743,1438190603093,2.0
744,1438190603094,2.0
745,1438190603095,2.0
746,1438190603096,2.0
747,1438190603097,2.0
748,1438190603098,2.0
749,1438190603099,2.0
750,1438190603100,2.0
751,1438190603101,2.0
752,1438190603102,2.0
753,1438190603103,2.0
754,1438190603104,2.0
755,1438190603105,2.0
756,1438190603106,2.0
757,1438190603107,2.0
758,1438190603108,2.0
759,1438190603109,2.0
760,1438190603110,2.0
761,1438190603111,2.0
762,1438190603112,2.0
763,1438190603113,2.0
764,1438190603114,2.0
765,1438190603115,2.0
766,1438190603116,2.0
767,1438190603117,2.0
768,1438190603118,2.0
769,1438190603119,2.0
770,1438190603120,2.0
771,1438190603121,2.0
772,1438190603122,2.0
773,1438190603123,2.0
774,1438190603124,2.0
775,1438190603125,2.0
776,1438190603126,2.0
777,1438190603127,2.0
778,1438190603128,2.0
779,1438190603129,2.0
780,1438190603130,2.0
781,1438190603131,2.0
782,1438190603132,2.0
783,1438190603133,2.0
784,1438190603134,2.0
785,1438190603135,2.0
786,1438190603136,2.0
787,1438190603137,2.0
788,1438190603138,2.0
789,1438190603139,2.0
790,1438190603140,2.0
791,1438190603141,2.0
792,1438190603142,2.0
793,1438190603143,2.0
794,1438190603144,2.0
795,1438190603145,2.0
796,1438190603146,2.0
797,1438190603147,2.0
798,1438190603148,2.0
799,1438190603149,2.0
800,1438190603150,2.0
801,1438190603151,2.0
802,1438190603152,2.0
803,1438190603153,2.0
804,1438190603154,2.0
805,1438190603155,2.0
806,1438190603156,2.0
807,1438190603161,2.0
808,1438190603181,2.0
809,1438190603201,2.0
810,1438190603221,2.0
811,1438190603242,2.0
812,1438190603261,2.0
813,1438190603283,2.0
814,1438190603306,2.0
815,1438190603325,2.0
816,1438190603343,2.0
817,1438190603365,2.0
818,1438190603384,2.0
819,1438190603406,2.0
820,1438190603426,2.0
821,1438190603445,2.0
822,1438190603463,2.0
823,1438190603485,2.0
824,1438190603503,2.0
825,1438190603526,2.0
826,1438190603546,2.0
827,1438190603564,2.0
828,1438190603585,2.0
829,1438190603617,2.0
830,1438190603687,2.0
831,1438190603688,2.0
832,1438190603689,2.0
833,1438190603690,2.0
834,1438190603708,2.0
835,1438190603728,2.0
836,1438190603750,2.0
837,1438190603766,2.0
838,1438190603784,2.0
839,1438190603816,2.0
840,1438190603839,2.0
841,1438190603845,2.0
842,1438190603877,2.0
843,1438190603884,2.0
844,1438190603907,2.0
845,1438190603926,2.0
846,1438190603947,2.0
847,1438190603968,2.0
848,1438190603984,2.0
849,1438190604007,2.0
850,1438190604026,2.0
851,1438190604046,2.0
852,1438190604067,2.0
853,1438190604087,2.0
854,1438190604106,2.0
855,1438190604125,2.0
856,1438190604147,2.0
857,1438190604164,2.0
858,1438190604187,2.0
859,1438190604204,2.0
860,1438190604230,2.0
861,1438190604247,2.0
862,1438190604267,2.0
863,1438190604288,2.0
864,1438190604304,2.0
865,1438190604325,2.0
866,1438190604349,2.0
867,1438190604368,2.0
868,1438190604385,2.0
869,1438190604529,2.0
870,1438190604530,2.0
871,1438190604531,2.0
872,1438190604532,2.0
873,1438190604533,2.0
874,1438190604534,2.0
875,1438190604535,2.0
876,1438190604570,2.0
877,1438190604571,2.0
878,1438190604587,2.0
879,1438190604606,2.0
880,1438190604624,2.0
881,1438190604645,2.0
882,1438190604667,2.0
883,1438190604686,2.0
884,1438190604720,2.0
885,1438190604729,2.0
886,1438190604749,2.0
887,1438190604764,2.0
888,1438190604788,2.0
889,1438190604806,2.0
890,1438190604826,2.0
891,1438190604845,2.0
892,1438190604867,2.0
893,1438190604887,2.0
894,1438190604904,2.0
895,1438190604928,2.0
896,1438190604948,2.0
897,1438190604968,2.0
898,1438190604988,2.0
899,1438190605006,2.0
900,1438190605026,2.0
901,1438190605046,2.0
902,1438190605070,2.0
903,1438190605090,2.0
904,1438190605110,2.0
905,1438190605126,2.0
906,1438190605147,2.0
907,1438190605167,2.0
908,1438190605187,2.0
909,1438190605207,2.0
910,1438190605226,2.0
911,1438190605307,2.0
912,1438190605308,2.0
