id,attr_time,attr_db
1,1438190587227,11.892598268696
2,1438190587944,29.3228625006343
3,1438190588707,30.7834738080775
4,1438190589418,51.1864573786672
5,1438190590145,44.4936491273394
6,1438190590774,27.2861304785008
7,1438190591486,39.7861860831265
8,1438190592214,45.6093080702797
9,1438190592936,55.8769285280998
10,1438190593705,64.293431794816
11,1438190594475,61.2787751595762
12,1438190595213,19.6980133301822
13,1438190595928,45.7388799410279
14,1438190596704,36.4261947496179
15,1438190597480,13.2677309906831
16,1438190598199,8.99953408928171
17,1438190598916,54.525813060677
18,1438190599676,19.0284856284845
19,1438190600410,12.8225719018568
20,1438190601122,7.86515454158956
21,1438190601795,9.9466593389025
22,1438190602482,8.98324740524007
23,1438190603213,17.7189331952751
24,1438190603935,15.4029423034168
25,1438190604677,23.8184175341551
26,1438190605406,33.5791535847532
27,1438190606133,39.5189262867939
28,1438190606868,36.7253699356207
29,1438190607628,10.3214554011584
30,1438190608348,48.3372236263535
31,1438190609073,44.1303424028774
32,1438190609806,45.1134016566335
33,1438190610560,5.57986539561271
34,1438190611290,34.8903720137873
35,1438190612044,10.7720305903332
36,1438190612778,39.114493988978
37,1438190613496,10.4791190291809
38,1438190614212,38.911719661054
39,1438190614908,35.1562041604028
40,1438190615569,10.2594549610742
41,1438190616306,5.50968434657537
42,1438190617035,23.6032476021902
43,1438190617753,7.72904669447101
44,1438190618496,8.15123734779272
45,1438190619218,11.4475830704984
46,1438190619968,32.6075199531904
47,1438190620722,12.2920669689473
48,1438190621435,15.4512817869596
49,1438190622187,25.3005622817355
50,1438190622931,13.9529013684697
51,1438190623694,45.4152683353517
52,1438190624425,45.2598362189113
53,1438190625153,10.9645604142107
54,1438190625880,6.48663103345544
55,1438190626639,6.29498947907734
56,1438190627444,40.5481503722552
57,1438190628169,55.3113326712237
58,1438190628894,32.3471697654317
59,1438190629615,36.1039563909952
60,1438190631796,6.08854825004708
61,1438190632503,2.10335568443034
62,1438190633214,2.73181644716007
63,1438190633929,4.24991170760123
64,1438190634688,1.29380734028147
65,1438190635372,1.47988528489956
66,1438190636066,1.59138732493048
67,1438190637511,2.29855243021347
68,1438190638211,3.18709918958003
69,1438190638937,2.49545112361408
70,1438190639686,4.25526016198085
71,1438190640422,5.91064274679795
72,1438190641143,9.85991975196822
73,1438190641917,12.3520596140545
74,1438190642687,24.6175147815121
75,1438190644520,7.01953790607409
76,1438190645216,1.97989196368118
77,1438190645916,4.26537179250357
78,1438190646673,5.85035113255098
79,1438190647384,6.75051601925062
80,1438190648947,8.47189288566845
81,1438190649591,5.01516653320951
82,1438190650316,11.6025190391445
83,1438190651027,10.5126113573991
84,1438190651693,14.2385346151658
85,1438190652406,12.4023832219951
86,1438190653113,8.48680400130065
87,1438190653840,7.74028927026318
88,1438190654559,5.48083952259667
89,1438190655265,10.7049035302931
90,1438190655929,7.19712542243566
91,1438190656683,6.97277130878087
92,1438190657418,7.52049493550945
93,1438190658148,6.55081771653194
94,1438190658862,3.751145169433
95,1438190659616,6.34196640296086
96,1438190660339,5.63014564969633
97,1438190661069,2.16954390933804
98,1438190661777,6.39925744234759
99,1438190662492,2.59099406291709
100,1438190663204,2.25824660550696
101,1438190663921,2.12459908147763
102,1438190664677,2.46467734602711
103,1438190665398,4.72130138477649
104,1438190666134,3.03311591059097
105,1438190666865,2.27190486056949
106,1438190667623,2.28969379646439
107,1438190668292,3.23974690753186
108,1438190669037,4.92696971293787
109,1438190669784,2.23152664267907
110,1438190670508,2.70475979717738
111,1438190671245,0.33557072774137
112,1438190671919,1.37829477431406
113,1438190672661,3.37434414510677
114,1438190673411,1.50327375985409
115,1438190674134,0.952911975255126
116,1438190674818,2.49545112361408
117,1438190675510,1.51847977285774
118,1438190676184,10.4324844018411
119,1438190676901,4.28535880287961
120,1438190677677,4.99184086725963
121,1438190678391,4.43909537620542
122,1438190679130,5.91686027722669
123,1438190679836,5.95906072286733
124,1438190680581,9.02806324248928
125,1438190681306,3.93794569451586
126,1438190681985,8.68966056294045
127,1438190682608,5.15568637864122
128,1438190683307,3.32027891152831
129,1438190684046,2.955941794385
130,1438190684799,1.92772935460847
131,1438190685527,3.06226321860736
132,1438190686238,2.78147926117342
133,1438190686963,7.32372000887318
134,1438190687715,1.97665488560847
135,1438190688433,3.80711565477138
136,1438190689175,3.1931439131596
137,1438190689893,5.9845405010113
138,1438190690547,2.98808203323319
139,1438190691282,6.15680507644204
140,1438190691888,4.1860904122486
141,1438190692605,6.65630703303525
142,1438190693237,2.65469689410129
143,1438190693906,2.92889345913477
144,1438190694679,1.9026953784665
145,1438190695367,3.16275846114937
146,1438190696014,2.64079861243637
147,1438190696739,1.67775844462901
148,1438190697466,0.965258657700892
149,1438190698206,4.25428224150717
150,1438190698924,2.75313756158469
151,1438190699670,2.19065179247934
152,1438190700385,3.74488281181633
153,1438190701113,5.73284249203907
154,1438190701833,6.52508335340725
155,1438190702538,11.0215007326071
156,1438190703244,15.4110896659173
157,1438190703983,18.3445314981514
158,1438190704733,12.1293322916953
159,1438190705456,16.4665511507466
160,1438190706189,5.76342075387057
161,1438190706894,10.4882204042457
162,1438190707614,13.7934832378869
163,1438190708290,12.4037652440788
164,1438190709010,5.32977676478775
165,1438190709771,9.84811002911662
166,1438190710512,8.66676592648658
167,1438190711231,8.35172737629822
168,1438190711942,11.4754863233523
169,1438190712687,11.0445082452299
170,1438190713404,14.0867869109049
171,1438190714116,12.2716895528964
172,1438190714815,18.304642739814
173,1438190715542,24.4591241091216
174,1438190716211,26.2555923650701
175,1438190716966,20.8843741552325
176,1438190717764,13.7111207473494
177,1438190718486,12.243060817189
178,1438190719230,6.0880346820677
179,1438190719943,4.68942652464534
180,1438190720696,4.08788079913509
181,1438190721399,6.52976068502037
182,1438190722112,2.14000506217144
183,1438190722841,0.33557072774137
184,1438190723581,2.86321534175632
185,1438190724320,0.539954031375093
186,1438190725056,2.48511692889347
187,1438190725796,4.3935133434664
188,1438190726521,3.8479905049711
189,1438190727239,1.63007732047447
190,1438190727969,3.87083635971952
191,1438190728734,1.25508860021769
192,1438190729486,10.1774258697714
193,1438190730193,2.53401229521962
194,1438190730925,1.47634074714865
195,1438190731699,4.82720127484875
196,1438190732372,1.08459562314124
197,1438190733169,20.2412729740488
198,1438190733896,4.50249631199556
199,1438190734685,17.7432106106245
200,1438190735372,7.16710767886004
201,1438190736057,7.12253610843717
202,1438190736777,4.65834996327291
203,1438190737503,12.5099155692715
204,1438190738318,20.3288244053532
205,1438190739064,17.5733062329727
206,1438190739809,10.9063884753457
207,1438190740496,8.79289177164767
208,1438190741217,12.315513665003
209,1438190741937,10.586475272164
210,1438190742706,13.0539418376945
211,1438190743416,12.5487909799016
212,1438190744139,11.9469673300993
213,1438190744870,14.528082463816
214,1438190745625,12.5446614345734
215,1438190746355,6.99305270586098
216,1438190747077,10.0364958993625
217,1438190747818,7.84416100722049
218,1438190748528,8.1416714433795
219,1438190749267,10.9038355505654
220,1438190750006,7.07820041932038
221,1438190750749,5.83568314768934
222,1438190751516,3.59640245023219
223,1438190752247,10.4690281936871
224,1438190753010,1.47988528489956
225,1438190753750,3.60227327819349
226,1438190754465,1.83607645327071
227,1438190755229,1.03081285292561
228,1438190755965,0.714927509260971
229,1438190756731,0.0959447820790864
230,1438190757462,0.685632744095496
231,1438190758193,2.15665609492146
232,1438190758903,2.26520924286421
233,1438190759640,3.06316312428969
234,1438190760376,0.360352170052341
235,1438190761098,1.7451238982563
236,1438190761826,0.575950310154416
237,1438190762574,0.714927509260971
238,1438190763298,2.24345371580351
239,1438190764026,1.14289040328558
240,1438190764756,1.31254207849771
241,1438190765495,0.756787299377847
242,1438190766197,11.0053111411555
243,1438190766905,8.99660087037806
244,1438190767650,8.06789543439527
245,1438190768416,11.6499871406836
246,1438190769092,30.2958908710551
247,1438190769836,5.46870354707616
248,1438190770555,11.749945972847
249,1438190771299,9.46697382486683
250,1438190772054,16.7885969088009
251,1438190772703,13.1408767594263
252,1438190773481,19.3128446837113
253,1438190774215,7.81768137435131
254,1438190774945,10.8984221735802
255,1438190775698,14.7291849461998
256,1438190776444,7.85495825960416
257,1438190777097,4.58927195438412
258,1438190777870,24.4048503969954
259,1438190778624,11.4609703825883
260,1438190779312,7.3500974264517
261,1438190780063,14.6370832167307
262,1438190780802,7.8823146847504
263,1438190781556,2.35610231179914
264,1438190782281,6.68944832434931
265,1438190783019,1.54695812505132
266,1438190784480,2.6602737094698
267,1438190785184,2.80001026422995
268,1438190785928,1.37829477431406
269,1438190786696,1.93135224919199
270,1438190787419,4.36521737618646
271,1438190788136,4.02785219790764
272,1438190788839,5.78703442397783
273,1438190789492,13.7392381108334
274,1438190790181,10.127326635
275,1438190790888,10.1654628269293
276,1438190791653,11.0204654579524
277,1438190792366,5.07577677646068
278,1438190793050,6.38791090401677
279,1438190793739,4.52261418928815
280,1438190794448,1.70528029794061
281,1438190795170,3.16762314323568
282,1438190795879,2.93452724537934
283,1438190796646,2.85324015876152
284,1438190797313,5.17633539994372
285,1438190798111,6.24143186339824
286,1438190798853,3.92026148826183
287,1438190799575,1.97792549556365
288,1438190800298,4.87381320103306
289,1438190801036,4.33536138483409
290,1438190801770,8.28492672178417
291,1438190802366,10.9567046759988
292,1438190803053,18.9805061108966
293,1438190803784,11.2523120695238
294,1438190804503,16.4884892115213
295,1438190805218,3.66342520438071
296,1438190805935,18.847488452172
297,1438190806676,12.7518747581891
298,1438190807395,18.5804427956404
299,1438190808060,11.4395165777563
300,1438190808795,5.20306060275
301,1438190809511,9.14452471836245
302,1438190810235,6.00646745826031
303,1438190811002,2.77566541247038
304,1438190812438,3.92605942562288
305,1438190813076,0.657970651804447
306,1438190813793,4.37354118098071
307,1438190814517,6.81073040000673
308,1438190815244,2.65032993089314
309,1438190815973,3.24289853660783
310,1438190816676,2.28455421664694
311,1438190817341,5.53699848744287
312,1438190817943,4.37354118098071
313,1438190818621,2.75920595235649
314,1438190819334,1.87476644881471
315,1438190820066,2.85324015876152
316,1438190820807,1.63007732047447
317,1438190821510,3.23799845206059
318,1438190822230,3.13509636885832
319,1438190823036,1.87476644881471
320,1438190823754,6.42255409749541
321,1438190824490,9.4252085128312
322,1438190825218,6.04912477364458
323,1438190825927,7.28165464695511
324,1438190826679,6.47850913721463
325,1438190827480,16.5183870942635
326,1438190828229,26.9547958944796
327,1438190828965,19.5779644997617
328,1438190829709,22.1752812529205
329,1438190830443,16.4801742622174
330,1438190831167,9.72701776876468
331,1438190831894,3.52958758509161
332,1438190832683,5.54009423358205
333,1438190833415,2.65825067705398
334,1438190834029,3.1609003181028
335,1438190835328,3.45566467389233
336,1438190836045,5.13320305488664
337,1438190836780,2.74408032443651
338,1438190837531,2.4286362584735
339,1438190838210,11.8773969920246
340,1438190838931,0.29114152786221
341,1438190839683,3.17601936393594
342,1438190840420,3.99674472066994
343,1438190841141,7.22785096614429
344,1438190841866,6.28999952831755
345,1438190842632,8.54968976278184
346,1438190843369,7.78460805378399
347,1438190844079,6.00895249993346
348,1438190845712,5.25847917168944
349,1438190846433,4.45279912288925
350,1438190847133,0.0867582242284899
351,1438190847914,5.90366348103909
352,1438190848651,4.19067359218331
353,1438190849347,2.12654899497512
354,1438190849977,3.11328621392596
355,1438190850647,2.67065732055467
356,1438190851388,1.56031076355805
357,1438190852110,0.640370058876109
358,1438190852831,2.87493380310138
359,1438190853543,2.36974864553787
360,1438190854255,2.86622032003852
361,1438190854975,2.43534092081958
362,1438190855731,2.74408032443651
363,1438190856467,1.29380734028147
364,1438190857164,2.4094515137596
365,1438190857844,5.49621958794862
366,1438190858514,7.3156427118717
367,1438190859203,4.82682087369958
368,1438190860759,5.07664028511595
369,1438190861490,7.00617365540768
370,1438190862231,4.81534768676463
371,1438190863000,4.8726932719933
372,1438190863741,1.87476644881471
373,1438190864466,0.685632744095496
374,1438190865192,2.83184340324653
375,1438190865912,1.27550198126584
376,1438190866636,2.2737709879025
377,1438190867348,0.981036844851714
378,1438190869122,10.4611603969589
379,1438190869842,3.38236559216423
380,1438190870592,0.657970651804447
381,1438190872050,1.81517177497771
382,1438190872812,1.97792549556365
383,1438190873526,1.99096737434733
384,1438190874268,2.32531944565871
385,1438190874988,8.31120550886916
386,1438190875733,2.70475979717738
387,1438190876450,1.93782218590683
388,1438190877162,1.73578924970815
389,1438190877904,2.38584853826247
390,1438190878588,3.85335971471264
391,1438190879305,12.4237336142267
392,1438190880039,11.8934549497933
393,1438190880789,12.4194354626882
394,1438190881513,7.70839099850386
395,1438190882226,6.25552189446526
396,1438190882932,2.34438836580517
397,1438190883698,3.35380027280014
398,1438190884435,4.39459789344603
399,1438190885147,4.79732716237947
400,1438190885869,3.27180205429511
401,1438190886624,3.83438691622635
402,1438190887360,6.43831402170295
403,1438190888079,4.93988892647035
404,1438190888798,10.5536088098393
405,1438190889546,4.35016057564367
406,1438190890277,10.3532064610083
407,1438190890999,9.63008313107857
408,1438190891787,11.2187843410445
409,1438190892509,5.66565265729492
410,1438190893231,3.87836619822511
411,1438190893964,2.81073741975008
412,1438190894581,0.482047885986819
413,1438190895239,1.81724379064547
414,1438190895926,2.29855243021347
415,1438190896587,3.21370224142697
416,1438190897312,2.92510793297414
417,1438190898078,3.72311861226994
418,1438190898743,2.97059365892643
419,1438190899407,3.338681226967
420,1438190900117,1.6545102188301
421,1438190900834,3.31772611514313
422,1438190901570,4.14647049608097
423,1438190902303,2.26841318596142
424,1438190903092,1.10349854602749
425,1438190903804,0.657970651804447
426,1438190904501,1.03081285292561
427,1438190905225,3.07130741896801
428,1438190905960,3.86849254356523
429,1438190906702,3.08689868080659
430,1438190907433,2.8396922681021
431,1438190908195,2.53061671674086
432,1438190908909,2.21347937365553
433,1438190909650,2.72284341987645
434,1438190910371,1.63007732047447
435,1438190911090,2.6602737094698
436,1438190911816,0.416120513402239
437,1438190912521,5.19633170146726
438,1438190913244,2.99922493359151
439,1438190913963,2.51846011624273
440,1438190914710,2.03958903467043
441,1438190915364,3.74984381507622
442,1438190916075,1.08459562314124
443,1438190916795,1.36741701504883
444,1438190917510,1.54695812505132
445,1438190918235,4.39208097379989
446,1438190918945,4.77404058103735
447,1438190919688,6.52710510946973
448,1438190920389,4.35016057564367
449,1438190921126,6.97965510234063
450,1438190921846,3.00931893779325
451,1438190922566,2.75815794443557
452,1438190923286,8.6878396104819
453,1438190924029,2.28455421664694
454,1438190924775,6.38418464371094
455,1438190925514,3.15441266215219
456,1438190926275,2.06567280693932
457,1438190927000,5.67290565395121
458,1438190927754,5.5119543513939
459,1438190928486,4.08301611704878
460,1438190929213,2.6144377738781
461,1438190929924,3.32027891152831
462,1438190930668,1.06619330770254
463,1438190931413,2.99770095961829
464,1438190932128,2.53401229521962
465,1438190932933,1.37829477431406
466,1438190933685,2.04180793611002
467,1438190934410,1.27550198126584
468,1438190935188,1.07664878851731
469,1438190935911,2.88589391766358
470,1438190936650,3.88587426104857
471,1438190937290,1.70528029794061
472,1438190938097,1.12292283210565
473,1438190938854,3.42712550040026
474,1438190939559,1.09587600088005
475,1438190940297,2.98808203323319
476,1438190941031,1.08459562314124
477,1438190941801,7.19739754103522
478,1438190942530,1.39209285448032
479,1438190943267,2.59547294180665
480,1438190944015,3.70088915861586
481,1438190944777,3.21370224142697
482,1438190945485,4.78470232056662
483,1438190946168,0.957513771197503
484,1438190946826,1.406119324445
485,1438190947580,1.71509486354764
486,1438190948296,4.12885205264047
487,1438190949028,4.73381031891048
488,1438190949755,2.6144377738781
489,1438190950495,0.997211690565175
490,1438190951918,1.63007732047447
491,1438190952660,1.75626679861462
492,1438190953416,0.878157084632983
493,1438190954116,1.08459562314124
494,1438190954846,2.3626552277177
495,1438190955600,4.63028567508415
496,1438190956327,5.32056585232535
497,1438190957054,4.25428224150717
498,1438190957773,5.09910057826393
499,1438190958492,8.70808601003267
500,1438190959216,11.3566220376779
501,1438190959916,10.162503643264
502,1438190960572,8.73783048020595
503,1438190961286,10.4431511170929
504,1438190962024,16.6574796704803
505,1438190962757,10.5147760488831
506,1438190963502,12.8554890623955
507,1438190964215,7.39889468759369
508,1438190964951,9.12611351850967
509,1438190965701,19.1997850820881
510,1438190966425,13.1864351972894
511,1438190967128,13.5653503508348
512,1438190967859,11.9544433604286
513,1438190968621,9.01031837499847
514,1438190969360,5.16045581556147
515,1438190970078,4.58118189685514
516,1438190970778,2.98808203323319
517,1438190971514,3.96295007202282
518,1438190972240,1.39209285448032
519,1438190972964,1.52728452742625
520,1438190973717,2.05884517160434
521,1438190974437,2.50425587818259
522,1438190975178,0.714927509260971
523,1438190975882,2.14622259260018
524,1438190976529,5.71247697359297
525,1438190977231,0.583519713368155
526,1438190977959,2.34438836580517
527,1438190978701,1.56996711767997
528,1438190979418,1.35136176160862
529,1438190980130,2.02198844174209
530,1438190980850,0.234921981185641
531,1438190981611,0.607026871526848
532,1438190982348,2.6531277694221
533,1438190983789,3.96018870190322
534,1438190984507,4.07907604456658
535,1438190985230,6.14904572350642
536,1438190985952,3.88587426104857
537,1438190986698,4.12885205264047
538,1438190987440,10.5827048579433
539,1438190988162,11.2274186545214
540,1438190988888,7.28831535019786
541,1438190989655,4.94454915530685
542,1438190990362,4.65600168507051
543,1438190991094,11.4061777335456
544,1438190991811,14.6004251718138
545,1438190992527,12.5110211079271
546,1438190993329,13.131915604072
547,1438190994058,12.7962469897722
548,1438190994805,13.5494035595614
549,1438190995512,8.20323519421802
550,1438190996191,14.8769031049894
551,1438190996904,13.3557395797755
552,1438190997683,15.2837349231363
553,1438190998462,18.2172473382001
554,1438190999187,12.8049649454971
555,1438190999902,12.7383633769352
556,1438191000604,5.81526976664119
557,1438191001274,6.70595647207364
558,1438191002015,7.1573395624042
559,1438191002808,2.69498755953898
560,1438191003524,2.26041834939577
561,1438191004251,12.5218489059341
562,1438191004976,0.923798485243586
563,1438191005718,3.87523141745869
564,1438191006422,1.51120698532904
565,1438191007135,1.03081285292561
566,1438191007905,0.591219970643809
567,1438191008645,2.154980737671
568,1438191010089,2.06196959237115
569,1438191010814,0.126262054178071
570,1438191011536,5.50171714479481
571,1438191012990,2.64079861243637
572,1438191013737,1.43488057469135
573,1438191014458,2.85741556547001
574,1438191015172,3.28403371588371
