id,attr_time,attr_db
1,1438190587040,10.9637741355205
2,1438190587767,35.0202260955635
3,1438190588500,16.7158837588211
4,1438190589242,25.0631334777428
5,1438190589966,61.9419073298226
6,1438190590691,26.812366335354
7,1438190591418,31.2696087059824
8,1438190592099,35.5279992616666
9,1438190592748,26.3099494501369
10,1438190594821,24.688088071813
11,1438190595518,23.1136523166099
12,1438190596241,26.7975328468658
13,1438190597082,38.9594199993896
14,1438190597833,11.5121364572908
15,1438190598550,35.549738388334
16,1438190599277,47.0393655440585
17,1438190600022,35.6755969854242
18,1438190600752,17.6918901626932
19,1438190601452,11.0241968988301
20,1438190602112,22.4302777381416
21,1438190602848,9.72585563069634
22,1438190603558,17.078108272593
23,1438190604290,17.411968023805
24,1438190605019,26.4324117741464
25,1438190605821,33.0537166995562
26,1438190606518,33.6475441245046
27,1438190607247,19.0852429947035
28,1438190607998,33.8545385572475
29,1438190609706,48.2674123957593
30,1438190610393,22.7221131288474
31,1438190611095,7.89396755548239
32,1438190611757,30.1824690251183
33,1438190612460,38.2344547474836
34,1438190613169,20.129811264063
35,1438190613801,18.6293561257061
36,1438190614435,34.4599125939729
37,1438190615175,39.7005333486914
38,1438190615841,10.2108986370035
39,1438190616520,10.2064768117579
40,1438190617238,47.1515856413461
41,1438190618710,26.2699360699865
42,1438190619352,36.1309188280804
43,1438190620082,17.6846037551239
44,1438190620854,14.1717844189975
45,1438190621561,16.5661075261993
46,1438190622222,26.1470072791797
47,1438190622902,27.8403299001596
48,1438190623603,26.8139716319742
49,1438190624324,64.2973505429295
50,1438190625080,41.5799763903673
51,1438190625762,23.8856150100579
52,1438190626519,35.8710004103585
53,1438190627219,4.87710627330153
54,1438190627901,67.3347820796763
55,1438190628631,54.1101994093734
56,1438190629349,45.2153813847177
57,1438190630057,26.9470336183196
58,1438190630750,22.9067955655435
59,1438190631336,9.19543904898655
60,1438190632035,5.55454735667229
61,1438190632738,4.40541604111185
62,1438190633419,5.46778784525274
63,1438190634134,9.44472006646029
64,1438190634916,6.77449014565477
65,1438190635532,1.27550198126584
66,1438190636218,4.02605925959225
67,1438190637045,3.67159439345039
68,1438190637763,3.16904461278113
69,1438190638499,6.97046260304159
70,1438190639231,6.55616158570495
71,1438190639970,7.29214567054718
72,1438190640700,8.7471152375177
73,1438190641426,11.6872037088283
74,1438190642137,21.4448730842657
75,1438190642826,26.3906603913709
76,1438190643539,15.1957470858468
77,1438190644270,10.3548086966128
78,1438190645016,7.42737728459323
79,1438190645733,6.54456356652841
80,1438190646424,5.55251131723337
81,1438190647070,6.19151959610354
82,1438190647821,5.14136776453191
83,1438190648540,6.68779071181793
84,1438190649292,10.5569874474654
85,1438190650011,12.7747866118211
86,1438190650709,16.1037108829746
87,1438190651453,15.4750388092663
88,1438190652211,15.3720169609673
89,1438190652954,10.4294534148828
90,1438190653656,8.5658270449676
91,1438190654315,6.77795341908107
92,1438190654989,18.603717156548
93,1438190655713,16.0681786333571
94,1438190656435,9.95337389603921
95,1438190657166,8.70150985281954
96,1438190657907,7.6506772337541
97,1438190658626,9.79029425275234
98,1438190659380,6.73867049825358
99,1438190660118,9.62299741669516
100,1438190660853,7.31837601469433
101,1438190661581,5.17131231891225
102,1438190662402,3.30660034234224
103,1438190663077,5.37587281146975
104,1438190663812,6.76660398391303
105,1438190664526,2.47086608133564
106,1438190665214,4.21980460765488
107,1438190665862,3.81540965362365
108,1438190666476,4.33085859072699
109,1438190667167,2.19065179247934
110,1438190667932,3.47300178471432
111,1438190668667,6.38382392651834
112,1438190669402,1.19689610869719
113,1438190670141,9.63233087905319
114,1438190670919,2.87181629766453
115,1438190671604,2.03636905701054
116,1438190672216,3.0236314265321
117,1438190672895,2.52942023080494
118,1438190673616,2.98808203323319
119,1438190674338,1.65203912645552
120,1438190675077,2.24760864993587
121,1438190675789,6.12692830644358
122,1438190676451,4.02958366200947
123,1438190677159,5.89927749867584
124,1438190677847,8.25952592884204
125,1438190678580,9.34754873462931
126,1438190679307,9.26402293524646
127,1438190680042,7.36457436778279
128,1438190680782,10.7848843081849
129,1438190681592,7.41295863114247
130,1438190682315,11.2210190922991
131,1438190683034,3.54263926243554
132,1438190683753,3.49687233120643
133,1438190684473,4.18133492916345
134,1438190685207,5.16862221731492
135,1438190685939,3.68784923777899
136,1438190686677,4.70428690404096
137,1438190687262,6.90664458772685
138,1438190687949,3.31162762631304
139,1438190688671,8.17968227202426
140,1438190689411,7.31491707363919
141,1438190690148,7.11173168665634
142,1438190690894,6.30396535321149
143,1438190691702,7.71738644977393
144,1438190692421,4.53084156177803
145,1438190693085,8.26564067269034
146,1438190693816,3.58792151581904
147,1438190694537,3.7929761601333
148,1438190695294,2.1203203180226
149,1438190696018,5.34899759502124
150,1438190696863,4.81828227420334
151,1438190697574,2.99770095961829
152,1438190698316,4.31301208837695
153,1438190699048,4.0174036638206
154,1438190699796,5.39659162992833
155,1438190700463,5.86353973140189
156,1438190701196,6.20808997678274
157,1438190701968,10.8711754824643
158,1438190702744,9.42859989296333
159,1438190703332,15.4972488913811
160,1438190703989,20.5497970831637
161,1438190704714,17.7084190800106
162,1438190705456,14.4914611899753
163,1438190706275,8.84456589817603
164,1438190706988,12.2446151560236
165,1438190707668,24.8568475859246
166,1438190708396,15.5505173595652
167,1438190709122,11.7580005471246
168,1438190709870,7.6881973337292
169,1438190710599,10.1156546873326
170,1438190711329,10.648368648076
171,1438190712049,10.4568553713175
172,1438190712764,12.4046546541327
173,1438190713482,20.1867813388612
174,1438190714181,16.5870915382104
175,1438190714932,20.0877723904101
176,1438190715694,22.7440085695789
177,1438190716492,23.9503095640849
178,1438190717269,23.0214959896097
179,1438190718010,16.6744105868422
180,1438190718706,12.0473643282283
181,1438190719403,7.25074466542903
182,1438190720132,6.4899613302299
183,1438190720882,4.07075223977233
184,1438190721613,9.80430098281956
185,1438190722358,2.54522713168798
186,1438190723077,3.09711136821249
187,1438190723681,6.54529546090983
188,1438190724393,3.13058304600382
189,1438190725125,6.42678801892366
190,1438190725900,3.69907373596571
191,1438190726613,2.84403412754671
192,1438190727353,1.41321999080248
193,1438190728041,5.8915738266515
194,1438190728783,3.91518647226115
195,1438190729490,5.33516080987626
196,1438190730172,1.73166783105997
197,1438190730831,4.43365138377521
198,1438190731511,5.32203417954347
199,1438190732183,4.98214029707772
200,1438190732922,3.38236559216423
201,1438190733646,3.4571443825225
202,1438190734324,3.51637710400811
203,1438190735058,6.8473426425329
204,1438190735825,7.62391021830885
205,1438190736545,8.171132051807
206,1438190737263,12.5473056623209
207,1438190737986,17.2627569888243
208,1438190738730,24.0834517183346
209,1438190739466,14.4076111147195
210,1438190740149,13.1967672785141
211,1438190740817,11.7017311666821
212,1438190741607,19.776987166155
213,1438190742332,11.4410591380185
214,1438190743070,18.0492405881712
215,1438190743804,9.65041147871467
216,1438190744491,16.1948693245267
217,1438190745239,16.421274208027
218,1438190745989,14.1026536992538
219,1438190746740,8.76738570094875
220,1438190747457,9.16799733167706
221,1438190748107,7.34456242345819
222,1438190748839,7.47031042095384
223,1438190749520,7.97263450331303
224,1438190750202,6.55298925024606
225,1438190750892,5.03644563054745
226,1438190751647,4.72811652018934
227,1438190752402,8.18433538537198
228,1438190753134,2.47546057477155
229,1438190753843,5.32637386968524
230,1438190754503,4.03813697598285
231,1438190755233,5.09910057826393
232,1438190755969,6.37248217565148
233,1438190756692,2.4286362584735
234,1438190757441,4.57388359613119
235,1438190758186,4.24485898087251
236,1438190758927,1.22867766496779
237,1438190759665,2.09572309199011
238,1438190760390,2.26520924286421
239,1438190761087,3.52210941877685
240,1438190761762,4.012261179426
241,1438190762478,0.0959447820790864
242,1438190763215,0.685632744095496
243,1438190763899,0.252451532318215
244,1438190764552,1.30000380185197
245,1438190765276,1.98334148304267
246,1438190765999,2.05386330187324
247,1438190766762,9.1495610958415
248,1438190767465,9.19612235855997
249,1438190768164,11.1666513606633
250,1438190768809,24.2180930830917
251,1438190769537,6.17602165427599
252,1438190770278,4.26672621159848
253,1438190771010,26.2901467580154
254,1438190771745,33.0998831066781
255,1438190772481,10.3512157830823
256,1438190773210,26.7365611317909
257,1438190773938,8.75195552164299
258,1438190774684,12.0195939767007
259,1438190775372,7.16678104956083
260,1438190776136,15.2393961615093
261,1438190776905,25.2939375335624
262,1438190777635,13.5784957911623
263,1438190778384,22.8025550572184
264,1438190779105,27.325324979465
265,1438190779877,4.55263803403923
266,1438190780594,12.3090283301453
267,1438190781351,31.8045071875012
268,1438190782102,1.06619330770254
269,1438190782823,12.0482878340434
270,1438190783553,3.49543146699907
271,1438190784247,2.44453720504346
272,1438190784881,2.72910464893696
273,1438190785567,9.19686291726658
274,1438190786235,2.33422348502181
275,1438190787653,4.29120985708406
276,1438190788355,4.68364941127104
277,1438190789104,8.6713045024271
278,1438190789772,17.2306993576026
279,1438190790506,10.9149291738097
280,1438190791249,16.8892178105419
281,1438190792000,13.4507755337152
282,1438190792738,10.1085919067466
283,1438190793503,8.1608125806386
284,1438190794139,3.78020767278695
285,1438190794787,2.54272723538692
286,1438190795435,1.75875952058267
287,1438190796169,6.19966389078186
288,1438190796906,3.10305246942775
289,1438190797634,10.2714223301491
290,1438190798334,12.6252972960757
291,1438190799053,6.18655776626557
292,1438190799836,2.66493727448818
293,1438190800505,5.71247697359297
294,1438190801128,9.34206891724496
295,1438190802584,9.98278493336672
296,1438190803247,19.7410194241467
297,1438190803976,15.4157774543911
298,1438190804652,21.9404127184932
299,1438190805392,6.87593428005513
300,1438190806132,21.8317174735422
301,1438190806895,16.2608326388119
302,1438190807568,15.0626569346876
303,1438190808167,17.3449225157818
304,1438190808813,10.3022523411774
305,1438190809541,7.45698154900263
306,1438190810177,6.82076745539049
307,1438190810766,5.53875338989112
308,1438190811443,5.55819423812417
309,1438190812212,5.31706700448829
310,1438190812958,2.09138340184834
311,1438190813702,5.00027774194593
312,1438190814430,2.91691498505835
313,1438190815182,6.17822385610557
314,1438190815983,1.91488610276668
315,1438190816722,1.48650562793201
316,1438190817536,2.16823658097343
317,1438190818262,4.12885205264047
318,1438190818999,1.84455462830994
319,1438190819729,3.10305246942775
320,1438190820442,5.98182846758912
321,1438190821118,1.3425748214176
322,1438190821916,5.22710547905423
323,1438190822633,2.30724266569382
324,1438190823347,6.0985800775007
325,1438190824009,4.73733557957743
326,1438190825863,6.67094801993663
327,1438190826640,3.45038962840161
328,1438190827280,21.916055697593
329,1438190828012,28.490852694255
330,1438190828725,32.5587297132548
331,1438190829410,26.9525927657704
332,1438190830141,20.4590981094455
333,1438190830893,22.2610233948779
334,1438190831531,7.87713783570192
335,1438190832237,7.19891887542482
336,1438190832980,8.22337437295786
337,1438190833704,8.58424286615227
338,1438190834431,7.90429786893588
339,1438190835170,2.70936647436734
340,1438190835952,7.51516918682069
341,1438190836715,2.3626552277177
342,1438190837339,2.92889345913477
343,1438190838705,2.94642301026734
344,1438190839386,4.05461322772613
345,1438190840113,4.82083432053816
346,1438190840848,5.84422647131467
347,1438190841519,5.26090531966552
348,1438190842256,7.83960615541301
349,1438190842970,11.7951192195022
350,1438190843717,10.0721453812701
351,1438190844444,11.0183045499707
352,1438190845096,6.58954264771061
353,1438190845727,7.74420712763139
354,1438190846405,6.7954412208616
355,1438190847145,5.36210889512926
356,1438190847875,2.76608664387983
357,1438190848593,1.30834092260538
358,1438190849326,3.80923003882224
359,1438190850156,1.90979024480997
360,1438190850882,5.13704212219248
361,1438190851555,1.79874067121173
362,1438190852289,2.72651532423808
363,1438190853062,3.01467151207329
364,1438190853834,4.79732716237947
365,1438190854559,3.66856478419817
366,1438190855282,2.77566541247038
367,1438190856021,2.57365887438386
368,1438190856723,6.16262379355
369,1438190857376,4.31632457413682
370,1438190858115,10.602499815437
371,1438190858858,7.86424526238035
372,1438190859541,8.96865791454249
373,1438190860218,11.6180303090908
374,1438190860963,10.4612139344121
375,1438190861691,7.32603115254428
376,1438190862328,6.87035587937148
377,1438190863041,6.9783295446518
378,1438190863783,1.95651660181434
379,1438190864522,2.90724829753591
380,1438190865236,4.58144698130538
381,1438190865908,3.31297063205797
382,1438190866629,3.44229147704261
383,1438190867309,1.7865840707136
384,1438190867976,3.857395908855
385,1438190868707,3.77427671343184
386,1438190869386,6.55136738680412
387,1438190870067,3.23646998614876
388,1438190870799,3.36476499923589
389,1438190871526,2.08407512237801
390,1438190872219,2.6144377738781
391,1438190872913,4.91013250943332
392,1438190873637,5.05375581169322
393,1438190874370,3.35968701625696
394,1438190875094,7.7047951012726
395,1438190875868,4.0374207911508
396,1438190876602,6.14544951284233
397,1438190877336,5.96821349257143
398,1438190878046,4.90692974773108
399,1438190878729,6.77404584326136
400,1438190879463,12.5603350746525
401,1438190880200,13.2359499464529
402,1438190880930,10.1283055412621
403,1438190881609,11.5903812873685
404,1438190882242,17.7344955859426
405,1438190882951,8.5736530526042
406,1438190883677,6.19558368217303
407,1438190884408,5.79223776949385
408,1438190885113,7.40311626222749
409,1438190885759,5.51093917027563
410,1438190886415,3.70159102032996
411,1438190887208,8.10722783204281
412,1438190887876,6.82770415797297
413,1438190888624,10.3576030610665
414,1438190889343,8.50748929185542
415,1438190890018,11.8480063654823
416,1438190890754,9.86752284414901
417,1438190891561,15.680998433662
418,1438190892298,16.2126059790114
419,1438190892939,6.40037373712333
420,1438190893669,7.21226717131351
421,1438190894383,4.20745792520912
422,1438190895118,3.51104779227242
423,1438190895887,3.38236559216423
424,1438190896690,7.26792172353043
425,1438190897414,3.52958758509161
426,1438190898160,2.36974864553787
427,1438190898930,3.51497717014449
428,1438190899613,2.58553295639449
429,1438190900352,1.47634074714865
430,1438190901093,5.16601442936827
431,1438190901821,3.82502207473905
432,1438190902553,2.26520924286421
433,1438190903236,0.981036844851714
434,1438190903944,0.685632744095496
435,1438190904640,2.58983183776809
436,1438190905400,0.583519713368155
437,1438190906088,5.0631192109932
438,1438190906798,3.06394181357597
439,1438190907507,3.37434414510677
440,1438190908239,4.59173437748806
441,1438190908980,3.42995962707132
442,1438190909714,2.50217915620305
443,1438190910409,4.43909537620542
444,1438190911068,2.70758493613157
445,1438190911801,1.24707023856996
446,1438190912548,2.955941794385
447,1438190913271,5.63727399612683
448,1438190913845,1.46462680115468
449,1438190914487,3.13914479104211
450,1438190915202,4.08301611704878
451,1438190915866,7.89351731692757
452,1438190916630,8.75693535121275
453,1438190917390,1.82976173860649
454,1438190918079,3.41524004474431
455,1438190918804,5.46069442743256
456,1438190919562,4.69236045125256
457,1438190920288,5.71247697359297
458,1438190921012,6.30091115340691
459,1438190921790,7.21644963430708
460,1438190922522,6.07360522872015
461,1438190923211,7.50469245892411
462,1438190923850,7.4431040332771
463,1438190924549,12.0414840642225
464,1438190925274,6.59195572999813
465,1438190926021,8.75506570913739
466,1438190926719,5.67326295828241
467,1438190927347,5.67462990003887
468,1438190928012,5.88005560504838
469,1438190928764,3.87523141745869
470,1438190929509,4.02605925959225
471,1438190930214,1.90979024480997
472,1438190930812,2.66493727448818
473,1438190931497,3.43932244962075
474,1438190932232,3.00439356786367
475,1438190932966,2.6144377738781
476,1438190933624,1.04827193345332
477,1438190934349,5.97288717344319
478,1438190935075,3.60414503547647
479,1438190935848,18.8833039192012
480,1438190936584,1.61214978131745
481,1438190937316,3.32351267539219
482,1438190938015,3.04169880618862
483,1438190938705,2.23673089067063
484,1438190939442,0.965258657700892
485,1438190940183,1.63007732047447
486,1438190940921,2.28455421664694
487,1438190941654,1.27550198126584
488,1438190942424,3.7610259257543
489,1438190943167,0.912956368512905
490,1438190943863,2.64227718757622
491,1438190944537,2.89781689776233
492,1438190945261,2.84403412754671
493,1438190946051,3.75267896594732
494,1438190946721,0.990693198973639
495,1438190947398,1.7451238982563
496,1438190948113,1.95266732648519
497,1438190948915,3.90468762080777
498,1438190949615,1.93782218590683
499,1438190950263,0.33557072774137
500,1438190950967,0.0464523995219786
501,1438190951636,0.575950310154416
502,1438190952408,0.623399901140448
503,1438190953135,0.934835195290234
504,1438190953875,6.4919219308605
505,1438190954510,4.87575559264133
506,1438190955229,3.88353462746188
507,1438190956053,4.74403932875123
508,1438190956834,5.63661719325019
509,1438190957555,7.05141276620523
510,1438190958296,9.28013809029829
511,1438190959023,15.2321343232644
512,1438190959731,12.46085047195
513,1438190960371,11.7004843922024
514,1438190961052,17.4224589023949
515,1438190961778,19.886073288542
516,1438190962510,15.0305407553321
517,1438190963253,14.4418974532027
518,1438190964017,10.9693259812123
519,1438190964690,13.8824945975826
520,1438190965453,15.0218018534907
521,1438190966242,18.2641057906382
522,1438190966994,17.1554194506563
523,1438190967641,14.8355571930152
524,1438190968382,13.200253036217
525,1438190969105,11.0046259465924
526,1438190969857,9.6598185653646
527,1438190970547,6.39816891679468
528,1438190971227,0.323856781747393
529,1438190971902,6.22219539404695
530,1438190972637,2.19065179247934
531,1438190973383,2.73696802955555
532,1438190974156,1.39209285448032
533,1438190974892,2.54003997737552
534,1438190975631,7.64194330678585
535,1438190976385,5.06878330616495
536,1438190977063,3.65027099134043
537,1438190977813,1.12292283210565
538,1438190978539,2.65167637170161
539,1438190979250,1.93550718332435
540,1438190979983,2.6144377738781
541,1438190980702,2.76355542146995
542,1438190981433,3.53743746329248
543,1438190982177,3.12551986332587
544,1438190982910,3.12551986332587
545,1438190983631,2.82759913751924
546,1438190984350,4.85591685932535
547,1438190985030,7.24024389086206
548,1438190985765,12.6219220792785
549,1438190986512,5.40473210816061
550,1438190987244,14.9188206798408
551,1438190988002,12.2916842227264
552,1438190988759,8.9887482854987
553,1438190989513,7.56113118665921
554,1438190990159,8.07551027556496
555,1438190991559,11.1918848767393
556,1438190992241,14.7016174744101
557,1438190992990,12.7756681531465
558,1438190993719,17.8197121947698
559,1438190994448,12.5552067745825
560,1438190995149,13.057371842758
561,1438190995828,14.348251170991
562,1438190996559,16.2376956611641
563,1438190997281,16.7574001019835
564,1438190998008,13.8609988341111
565,1438190998725,15.1664953033744
566,1438190999470,21.0999745813318
567,1438191000210,8.38622518364485
568,1438191000946,7.00163675813134
569,1438191001730,8.69029432826953
570,1438191002463,5.22427560644227
571,1438191003210,2.93153716319963
572,1438191003942,6.28538060258357
573,1438191004642,11.9986356288441
574,1438191005299,19.8695347582911
575,1438191006005,1.7865840707136
