id,attr_time,attr_db
1,1438190587181,18.10495046123
2,1438190587878,37.0245506564046
3,1438190588580,49.9365674714138
4,1438190589290,55.0575774217445
5,1438190590053,62.513741772025
6,1438190590775,63.7095286955265
7,1438190591448,64.5842580789838
8,1438190592118,33.2792887628845
9,1438190592848,37.5778162731568
10,1438190593540,56.2067972000153
11,1438190594268,60.8869151466856
12,1438190594979,62.6921826020861
13,1438190595753,33.0170462227977
14,1438190596452,21.4586135742332
15,1438190597174,6.75287690112
16,1438190597905,5.82312674559219
17,1438190598604,48.7739646541453
18,1438190599339,14.5456578973146
19,1438190600085,8.06139189645112
20,1438190600821,9.41555522494921
21,1438190601553,11.5905002645794
22,1438190602272,5.88678161155721
23,1438190603007,9.06119684539804
24,1438190603758,13.2627367734503
25,1438190604483,25.9193179540065
26,1438190605197,33.4397088936318
27,1438190605940,36.2470848173208
28,1438190606778,35.4093158772594
29,1438190607448,11.4208743457385
30,1438190608111,51.239645596283
31,1438190608847,47.9847032738914
32,1438190609584,44.4118690035252
33,1438190610285,4.94284160339924
34,1438190611015,33.7069491349458
35,1438190611755,4.82235856194561
36,1438190612482,37.5000149362214
37,1438190613218,8.44834011876444
38,1438190613940,37.7818659710506
39,1438190614672,37.6209404471429
40,1438190615379,7.77264759798311
41,1438190616116,4.70068205251046
42,1438190616873,41.773315332887
43,1438190617599,5.63917789186486
44,1438190618333,6.84335755820989
45,1438190619062,13.0437290672641
46,1438190619808,25.0403418488715
47,1438190620535,10.8735208265078
48,1438190621242,11.2738692266331
49,1438190621948,12.3947709415527
50,1438190622623,24.1323377309872
51,1438190623386,47.4295620704807
52,1438190624106,38.7455185194833
53,1438190624818,25.4422034684693
54,1438190625540,6.08214508747323
55,1438190626239,26.8342273322552
56,1438190626990,3.87083635971952
57,1438190627720,56.5939755507826
58,1438190628422,47.365419522669
59,1438190629142,30.6975608141198
60,1438190629883,47.6159764550492
61,1438190630603,10.1599105940808
62,1438190631275,3.2750868759805
63,1438190631930,3.71017391592761
64,1438190632661,2.98808203323319
65,1438190633372,3.5682775806356
66,1438190634112,1.68593532415788
67,1438190635578,3.69446705877575
68,1438190636297,3.80207158399196
69,1438190637075,2.49545112361408
70,1438190637811,3.40460859955158
71,1438190638550,2.90009815572372
72,1438190639261,2.6602737094698
73,1438190639995,3.80480711266129
74,1438190640772,6.84617719453982
75,1438190641522,11.0440471911703
76,1438190642266,22.840842154838
77,1438190643005,9.48295069771626
78,1438190643762,6.91498237539667
79,1438190644477,4.56015503116618
80,1438190645173,1.43488057469135
81,1438190645899,6.21614789395795
82,1438190646669,3.96379455110939
83,1438190647409,4.76194670760253
84,1438190648031,2.9965436896628
85,1438190648698,4.61490274252209
86,1438190650080,6.99333723258734
87,1438190650807,6.73552742254059
88,1438190651515,10.8884528299572
89,1438190652166,13.6959413083428
90,1438190652875,13.7466841503296
91,1438190653625,8.67372768270172
92,1438190654369,13.9209430070967
93,1438190655077,12.7488017980342
94,1438190655834,4.89929715529085
95,1438190656581,3.72634499742067
96,1438190657314,6.3601724331388
97,1438190658050,3.03643303480087
98,1438190658779,4.12885205264047
99,1438190660483,3.13058304600382
100,1438190661210,3.47300178471432
101,1438190661923,2.73369671335164
102,1438190662693,2.84403412754671
103,1438190663413,1.19689610869719
104,1438190664143,2.25824660550696
105,1438190664862,1.61053650314824
106,1438190665613,1.69117409973168
107,1438190666324,5.70076302759899
108,1438190667065,2.78991626002821
109,1438190667830,0.934835195290234
110,1438190668480,1.55194285381829
111,1438190669219,1.33561218406035
112,1438190669938,3.14279662613398
113,1438190670692,0.218455834760329
114,1438190671412,0.447648278101341
115,1438190672115,2.92889345913477
116,1438190672845,1.5080253407374
117,1438190673551,2.33812374985523
118,1438190675484,3.79574987551311
119,1438190676190,5.80311316614307
120,1438190676899,3.11328621392596
121,1438190677676,3.88416292430024
122,1438190678378,2.25824660550696
123,1438190679104,3.99152287358213
124,1438190679823,6.28999952831755
125,1438190680570,7.24024389086206
126,1438190681278,4.79732716237947
127,1438190682022,5.02442217992191
128,1438190682691,2.43694215405078
129,1438190683970,4.23845463799208
130,1438190684731,0.965258657700892
131,1438190685469,6.59340145064695
132,1438190686186,1.90979024480997
133,1438190686921,1.36741701504883
134,1438190687660,0.67623751371698
135,1438190688357,3.59640245023219
136,1438190689095,2.42141006035449
137,1438190689808,4.29120985708406
138,1438190690531,5.05414004958397
139,1438190691266,9.14972612485662
140,1438190691980,2.0046513309201
141,1438190692740,1.87476644881471
142,1438190693462,1.79874067121173
143,1438190694183,1.39209285448032
144,1438190694894,2.19065179247934
145,1438190695631,3.36476499923589
146,1438190696355,0.455964113717932
147,1438190697088,0.29114152786221
148,1438190697831,0.934835195290234
149,1438190698551,1.9026953784665
150,1438190699293,2.81335997098923
151,1438190700016,1.32015960991168
152,1438190700778,2.88589391766358
153,1438190701500,7.60701726651789
154,1438190702198,6.2834486160018
155,1438190702869,12.9776825953222
156,1438190703606,11.4935296202412
157,1438190704320,11.1706869922176
158,1438190705046,9.96353997744872
159,1438190705797,4.79732716237947
160,1438190706511,5.64157135829998
161,1438190707200,23.8286676405595
162,1438190707892,15.8704124761883
163,1438190708571,10.0806070376998
164,1438190709302,10.9834844988938
165,1438190710072,11.557416403894
166,1438190710798,5.91579706777092
167,1438190711530,5.44102082980749
168,1438190712261,7.54298242034998
169,1438190712925,14.6788079960604
170,1438190713620,12.2240798905145
171,1438190714356,16.4281901296666
172,1438190715102,22.8087311040238
173,1438190715816,28.0322578098338
174,1438190716523,25.2706649680418
175,1438190717248,18.7919294601231
176,1438190717969,10.2925772782359
177,1438190718709,8.53792186669061
178,1438190719427,9.43046325693799
179,1438190720155,3.47300178471432
180,1438190720878,2.58553295639449
181,1438190721572,1.46841686978166
182,1438190722321,1.54129402987958
183,1438190723061,1.45709513830421
184,1438190723806,3.25027446235513
185,1438190724531,2.56221783920624
186,1438190725273,9.38941144864184
187,1438190725979,1.91803373448732
188,1438190726737,1.79874067121173
189,1438190727455,0.891835653819054
190,1438190728111,1.08459562314124
191,1438190728762,0.0695839435208229
192,1438190729440,2.72910464893696
193,1438190730153,3.43360992745624
194,1438190730879,1.08459562314124
195,1438190731595,0.714927509260971
196,1438190732282,1.46462680115468
197,1438190732882,3.21370224142697
198,1438190733584,2.29106781998036
199,1438190734299,1.52728452742625
200,1438190735022,0.7790303067652
201,1438190735762,3.46695311480549
202,1438190736500,8.07057255903492
203,1438190737257,7.10974669693267
204,1438190737966,15.0601580777943
205,1438190738711,14.5263772756546
206,1438190739452,12.0354039533878
207,1438190740165,6.84747935714795
208,1438190740908,8.46683726701767
209,1438190741661,10.3197963638813
210,1438190742395,15.1746864961946
211,1438190743109,14.885233954106
212,1438190743851,6.90843193041195
213,1438190744570,7.74339503410292
214,1438190745314,7.62471042924848
215,1438190746063,8.99025759537249
216,1438190746790,4.53974776755562
217,1438190747494,3.04533611346039
218,1438190748199,2.37481182821582
219,1438190748920,1.39209285448032
220,1438190749626,2.09572309199011
221,1438190750350,1.7865840707136
222,1438190751068,1.48650562793201
223,1438190751800,1.87476644881471
224,1438190752430,0.657970651804447
225,1438190753126,1.91488610276668
226,1438190753840,7.21607911275891
227,1438190754543,0.29114152786221
228,1438190755274,1.27550198126584
229,1438190756014,1.7865840707136
230,1438190756756,1.20629133907571
231,1438190757476,1.47988528489956
232,1438190758218,2.91083547001498
233,1438190758961,1.99096737434733
234,1438190759709,0.13740495453639
235,1438190760417,0.519730763477847
236,1438190761147,0.851715999867079
237,1438190761853,2.55369703936846
238,1438190762554,1.47988528489956
239,1438190764023,0.447648278101341
240,1438190764795,1.66696013444188
241,1438190765515,2.88589391766358
242,1438190766231,17.3608747727206
243,1438190766950,2.51526383667104
244,1438190767760,1.96076605866919
245,1438190768562,4.77143775531949
246,1438190769241,5.48620366643741
247,1438190769962,3.96181056534515
248,1438190770722,4.80582607659773
249,1438190771443,8.25119770443407
250,1438190772183,21.8355765603387
251,1438190772856,3.31162762631304
252,1438190773529,2.58553295639449
253,1438190774264,6.00760920340922
254,1438190775011,3.37960422204462
255,1438190775780,5.74687658147845
256,1438190776508,12.8033432435542
257,1438190777255,6.58928838065835
258,1438190777963,5.49477410789235
259,1438190778720,18.6235715745964
260,1438190779430,2.05884517160434
261,1438190780153,3.05263477192419
262,1438190780892,13.6934138640506
263,1438190782329,7.55469957611872
264,1438190783056,0.735437293614777
265,1438190783801,1.27550198126584
266,1438190785200,2.21347937365553
267,1438190785887,1.36279808931484
268,1438190786560,0.546916668732343
269,1438190787326,3.55436902740258
270,1438190788067,3.28077508157873
271,1438190788807,6.44693311408777
272,1438190789469,3.52685402420734
273,1438190790235,7.46252786331747
274,1438190790945,9.85498682950597
275,1438190791666,9.26125606194727
276,1438190792384,4.61517863394409
277,1438190793052,2.59547294180665
278,1438190793749,3.03083465262957
279,1438190794479,2.08662791876319
280,1438190795232,3.16275846114937
281,1438190795962,7.22845613653902
282,1438190796754,1.81517177497771
283,1438190797485,4.32241749226084
284,1438190798213,6.43622549009447
285,1438190798949,2.51459886272812
286,1438190799689,1.80795158367413
287,1438190800406,5.34280885971271
288,1438190801125,5.9466864429446
289,1438190801873,10.0513052760252
290,1438190802575,15.1089172931562
291,1438190803309,6.3537530811488
292,1438190804049,6.60306382676746
293,1438190804799,7.6471952174164
294,1438190805532,20.5725738709912
295,1438190806264,16.7055462620331
296,1438190806978,1.81517177497771
297,1438190807769,10.6837496966672
298,1438190808516,1.7865840707136
299,1438190809227,6.28819445379485
300,1438190809869,7.60388094771219
301,1438190810548,3.06771746659698
302,1438190811281,1.54695812505132
303,1438190812002,1.63007732047447
304,1438190812753,1.14289040328558
305,1438190813458,0.631808313837817
306,1438190814135,1.90012672854742
307,1438190814860,0.851715999867079
308,1438190815583,2.10335568443034
309,1438190816280,3.12551986332587
310,1438190816956,3.04169880618862
311,1438190817715,3.39403860781448
312,1438190818451,0.714927509260971
313,1438190819183,1.27550198126584
314,1438190819927,0.934835195290234
315,1438190820656,0.561190935935153
316,1438190821340,0.607026871526848
317,1438190821987,0.900195509746455
318,1438190822709,1.53617489630688
319,1438190823440,3.63590335106911
320,1438190824179,0.885934913348864
321,1438190824903,6.76554938047914
322,1438190825650,6.01425038947743
323,1438190826376,2.42541985790423
324,1438190827112,16.0699210593391
325,1438190827838,21.7924142691643
326,1438190828552,34.3488068926226
327,1438190829224,21.1972191625578
328,1438190829881,33.3633329568465
329,1438190830703,14.4452696074462
330,1438190831428,3.39587247647359
331,1438190832145,5.77231112275119
332,1438190832847,2.31141089242569
333,1438190833551,3.73631937857013
334,1438190834207,2.65032993089314
335,1438190834904,3.149122838823
336,1438190835660,3.16275846114937
337,1438190836380,2.57000857399895
338,1438190837141,1.10349854602749
339,1438190837882,2.67783870966824
340,1438190838607,1.11899523102671
341,1438190839356,4.47756505469686
342,1438190840084,1.33172152794241
343,1438190840815,3.24176652961573
344,1438190841533,3.90175703509803
345,1438190842251,5.33061813541252
346,1438190842941,5.02412567751911
347,1438190843693,5.69876601630542
348,1438190844401,6.90843193041195
349,1438190845101,6.58887039124666
350,1438190845836,1.37829477431406
351,1438190846574,4.65906107626508
352,1438190847291,1.84083714927264
353,1438190848040,0.188348734813989
354,1438190849485,1.08459562314124
355,1438190850122,1.51348644726
356,1438190850837,1.27550198126584
357,1438190851573,2.4094515137596
358,1438190852286,5.06037489346758
359,1438190852943,2.72485311207377
360,1438190854374,2.82759913751924
361,1438190855112,2.78991626002821
362,1438190855846,0.0695839435208229
363,1438190856576,1.65760789705054
364,1438190857336,2.56311774488857
365,1438190858070,6.56751658201197
366,1438190858803,5.71247697359297
367,1438190859610,7.87370037521061
368,1438190860263,6.34603917430645
369,1438190860927,7.9913440197297
370,1438190861572,3.46653184799948
371,1438190862276,2.2239949798286
372,1438190863082,1.63007732047447
373,1438190863811,1.7697997376878
374,1438190864556,2.2799217420635
375,1438190865289,1.91488610276668
376,1438190866023,1.85202850483997
377,1438190866747,1.43488057469135
378,1438190868715,3.61776996319271
379,1438190869452,1.41321999080248
380,1438190870169,0.561190935935153
381,1438190870903,1.06619330770254
382,1438190871654,3.24412570383763
383,1438190872426,2.75313756158469
384,1438190873151,0.802223617309974
385,1438190873865,0.464465107435965
386,1438190874540,2.68712346697999
387,1438190875242,1.50327375985409
388,1438190875928,0.7790303067652
389,1438190876600,0.583519713368155
390,1438190877308,1.54129402987958
391,1438190878043,2.11275091480886
392,1438190878796,6.56536207632361
393,1438190879524,12.4933821600113
394,1438190880256,6.81437113762183
395,1438190881019,4.68632386712421
396,1438190881769,13.46350907114
397,1438190882491,4.02958366200947
398,1438190883209,1.97074410645008
399,1438190883908,3.02487111677014
400,1438190884674,2.77141595561552
401,1438190885401,2.19065179247934
402,1438190886124,1.56031076355805
403,1438190886849,3.09711136821249
404,1438190887589,4.56722391427297
405,1438190888315,8.35276180484818
406,1438190889077,6.08699695908058
407,1438190889822,5.73333146053327
408,1438190891969,11.2807231458243
409,1438190892741,4.52727775430653
410,1438190893476,2.26925766504799
411,1438190894204,0.934835195290234
412,1438190894887,2.955941794385
413,1438190895642,0.7790303067652
414,1438190896362,3.93143697211459
415,1438190897091,4.10208503719523
416,1438190897821,3.55979940559638
417,1438190898556,2.46721578095072
418,1438190899286,1.87476644881471
419,1438190899979,2.28455421664694
420,1438190900725,1.47069872704897
421,1438190901450,3.21370224142697
422,1438190902201,0.33557072774137
423,1438190902861,1.47988528489956
424,1438190904195,2.13176417954372
425,1438190904852,0.360352170052341
426,1438190905547,0.695209249627949
427,1438190906274,1.80078057014973
428,1438190907003,1.7451238982563
429,1438190907764,2.80963451966123
430,1438190908502,2.04466701764936
431,1438190909226,0.202959149761108
432,1438190909951,1.87476644881471
433,1438190910689,1.30499569258596
434,1438190911390,0.519730763477847
435,1438190912110,1.24707023856996
436,1438190912854,3.44892445914278
437,1438190913555,1.46462680115468
438,1438190914275,3.19371169258444
439,1438190914970,1.43488057469135
440,1438190915681,2.13619462576988
441,1438190916395,1.79507882898293
442,1438190917128,1.59455215995841
443,1438190917900,1.68593532415788
444,1438190918660,2.13619462576988
445,1438190919352,3.43738558047724
446,1438190920081,2.03251679410759
447,1438190920825,3.37606004587056
448,1438190921545,1.87476644881471
449,1438190922248,2.64790945166943
450,1438190922971,3.28077508157873
451,1438190923706,2.72485311207377
452,1438190924452,4.91713443616322
453,1438190925189,3.95337356649037
454,1438190925907,0.912956368512905
455,1438190926613,1.56031076355805
456,1438190927343,3.84491618021665
457,1438190928079,2.98082261815282
458,1438190928804,0.67623751371698
459,1438190929554,1.53816228669149
460,1438190930283,0.851715999867079
461,1438190931006,4.74638338210187
462,1438190931723,1.7451238982563
463,1438190932457,0.685632744095496
464,1438190933889,2.93452724537934
465,1438190934622,1.84083714927264
466,1438190935289,1.91488610276668
467,1438190936029,2.25247333202218
468,1438190936768,0.0779801642210781
469,1438190937482,1.17391147068034
470,1438190938210,1.63007732047447
471,1438190938933,1.1931706573692
472,1438190939715,4.17217328777063
473,1438190940461,0.851715999867079
474,1438190941172,2.67065732055467
475,1438190941923,0.7790303067652
476,1438190942661,1.52728452742625
477,1438190943389,3.91891096510929
478,1438190944135,0.373472851758855
479,1438190944857,2.94642301026734
480,1438190945587,2.19065179247934
481,1438190946304,0.714927509260971
482,1438190947050,0.29114152786221
483,1438190947795,1.57727539715031
484,1438190948536,1.69749724218861
485,1438190949270,1.11314417682225
486,1438190950017,1.17391147068034
487,1438190950799,0.7790303067652
488,1438190951374,3.386389631911
489,1438190952058,1.63007732047447
490,1438190952790,0.90583386738558
491,1438190953506,2.2737709879025
492,1438190954258,1.84083714927264
493,1438190954969,2.26520924286421
494,1438190955682,2.31745535309973
495,1438190956398,2.51358451149048
496,1438190957094,4.64756673452847
497,1438190957828,2.46271531989767
498,1438190958575,8.71478485873209
499,1438190959305,8.24669403267733
500,1438190960034,9.78617644318855
501,1438190960778,15.1036027776145
502,1438190961496,18.2409289215828
503,1438190962223,14.3869903861907
504,1438190962936,11.0912865589149
505,1438190963677,5.50841379857397
506,1438190964412,7.63946239728574
507,1438190965123,14.5450071345123
508,1438190965851,15.9331297124349
509,1438190966572,8.77704449551651
510,1438190967293,12.7691947215225
511,1438190967999,6.79307730412627
512,1438190968758,1.97576630354754
513,1438190969480,4.33085859072699
514,1438190970211,2.79709171656025
515,1438190970944,1.97989196368118
516,1438190971658,1.09587600088005
517,1438190972346,1.66696013444188
518,1438190973080,3.88946198916157
519,1438190973785,3.21370224142697
520,1438190974514,3.08308489824782
521,1438190975204,1.7451238982563
522,1438190975795,0.965258657700892
523,1438190976479,4.88286481518649
524,1438190977203,2.44453720504346
525,1438190977943,2.16085454322913
526,1438190978685,1.63007732047447
527,1438190979425,0.7790303067652
528,1438190980155,1.06619330770254
529,1438190980916,2.98808203323319
530,1438190981688,3.78481145048803
531,1438190982422,1.99607972860796
532,1438190983854,2.19065179247934
533,1438190984572,4.10435023205435
534,1438190985275,6.72633113831672
535,1438190986007,3.47300178471432
536,1438190986752,7.75353409361113
537,1438190987490,5.49570555394119
538,1438190988214,6.97163365528317
539,1438190988931,7.25302854085646
540,1438190989696,3.05662943236278
541,1438190990426,4.82157250858416
542,1438190991129,7.023717598419
543,1438190991812,16.5967331571713
544,1438190992471,10.8790664732694
545,1438190993197,14.4605268327055
546,1438190993919,10.9256846528597
547,1438190994611,14.0867684695452
548,1438190995318,13.4460226528097
549,1438190996041,12.3621798540786
550,1438190996788,13.5016603459139
551,1438190997550,17.8191232266541
552,1438190998289,13.3648793953971
553,1438190999045,19.2324367938355
554,1438190999791,6.58805546516471
555,1438191000513,2.54185331551114
556,1438191001240,7.05141276620523
557,1438191001956,4.37758395025921
558,1438191002702,3.49851102371918
559,1438191003421,3.2778050389312
560,1438191004182,11.2909726780065
561,1438191004908,2.28455421664694
562,1438191005644,2.77141595561552
563,1438191006442,2.80693074076374
564,1438191007152,0.188348734813989
565,1438191009336,0.447648278101341
566,1438191010812,0.539954031375093
567,1438191011542,2.85324015876152
568,1438191012190,2.25824660550696
569,1438191012860,3.05996566810115
570,1438191013601,1.93782218590683
571,1438191014329,0.891835653819054
572,1438191015055,2.6144377738781
573,1438191015789,1.67450652035364
574,1438191016478,2.69498755953898
