id,attr_time,attr_x,attr_y,attr_z
1,1436896020503,-45.996,-18.861,17.816
2,1436896020520,-45.678,-18.861,17.816
3,1436896020541,-45.678,-18.861,16.937
4,1436896020562,-45.678,-18.861,16.937
5,1436896020582,-45.301,-18.861,16.937
6,1436896020600,-45.301,-18.861,16.937
7,1436896020623,-45.301,-18.861,16.937
8,1436896020640,-45.301,-18.861,17.245
9,1436896020661,-45.301,-18.861,17.245
10,1436896020681,-44.97,-19.252,17.245
11,1436896020714,-44.97,-19.252,16.914
12,1436896020720,-44.97,-19.252,15.185
13,1436896020740,-44.97,-19.61,13.867
14,1436896020761,-44.97,-19.61,12.786
15,1436896020781,-44.97,-19.95,12.181
16,1436896020802,-44.97,-19.95,12.181
17,1436896020821,-44.97,-19.95,12.59
18,1436896020840,-45.275,-20.281,13.388
19,1436896020862,-45.275,-20.281,13.388
20,1436896020885,-45.275,-20.281,14.025
21,1436896020905,-45.275,-20.281,14.025
22,1436896020923,-45.587,-20.281,14.025
23,1436896020945,-45.587,-20.281,14.025
24,1436896020962,-45.587,-20.281,14.025
25,1436896020984,-45.587,-20.281,14.025
26,1436896021005,-45.587,-20.281,14.025
27,1436896021024,-45.587,-20.281,14.025
28,1436896021042,-45.587,-20.281,14.025
29,1436896021062,-45.587,-20.281,15.032
30,1436896021083,-45.587,-20.281,17.587
31,1436896021103,-45.587,-20.281,15.499
32,1436896021124,-45.587,-20.281,14.14
33,1436896021144,-45.587,-20.281,13.838
34,1436896021165,-45.587,-20.281,14.326
35,1436896021185,-45.587,-20.281,15.08
36,1436896021206,-45.587,-20.281,15.08
37,1436896021225,-45.587,-20.281,14.173
38,1436896021244,-45.587,-20.281,12.884
39,1436896021263,-45.587,-20.281,11.968
40,1436896021284,-45.587,-20.6,10.968
41,1436896021304,-45.587,-20.6,10.968
42,1436896021322,-45.587,-20.6,10.968
43,1436896021393,-45.587,-20.6,10.968
44,1436896021394,-45.587,-20.6,11.567
45,1436896021395,-45.587,-20.945,11.567
46,1436896021402,-45.587,-20.945,11.567
47,1436896021424,-45.587,-20.945,11.567
48,1436896021455,-45.587,-20.945,10.842
49,1436896021464,-45.587,-20.945,11.509
50,1436896021526,-45.587,-20.945,11.196
51,1436896021527,-45.994,-20.945,11.196
52,1436896021528,-45.994,-20.945,11.723
53,1436896021542,-45.994,-20.945,11.723
54,1436896021562,-45.994,-20.945,12.327
55,1436896021588,-45.994,-20.945,12.997
56,1436896021602,-45.994,-20.945,14.73
57,1436896021625,-45.994,-20.945,13.053
58,1436896021645,-45.994,-20.945,11.312
59,1436896021665,-45.994,-20.945,10.896
60,1436896021684,-45.994,-20.945,10.896
61,1436896021705,-45.994,-20.945,10.896
62,1436896021725,-45.994,-20.945,10.896
63,1436896021742,-45.994,-20.945,10.285
64,1436896021762,-45.994,-20.945,9.216
65,1436896021782,-45.994,-20.945,8.708
66,1436896021802,-45.994,-20.945,7.505
67,1436896021822,-45.994,-20.945,7.505
68,1436896021844,-45.994,-21.267,7.505
69,1436896021866,-45.994,-21.267,8.354
70,1436896021886,-45.994,-21.267,8.354
71,1436896021906,-45.994,-21.267,9.197
72,1436896021925,-45.994,-21.267,9.695
73,1436896021944,-45.994,-21.267,9.695
74,1436896021964,-45.994,-21.575,9.321
75,1436896021983,-45.994,-21.575,9.321
76,1436896022007,-46.348,-21.575,8.786
77,1436896022027,-46.348,-21.575,8.786
78,1436896022048,-46.348,-21.575,8.786
79,1436896022063,-46.348,-21.575,8.786
80,1436896022171,-46.348,-21.575,8.786
81,1436896022172,-46.348,-21.575,8.786
82,1436896022173,-46.348,-21.575,12.092
83,1436896022174,-46.348,-21.575,12.092
84,1436896022175,-46.348,-21.575,9.759
85,1436896022195,-46.348,-21.575,8.569
86,1436896022204,-46.348,-21.575,8.886
87,1436896022223,-46.348,-21.575,9.437
88,1436896022243,-46.348,-21.575,9.771
89,1436896022263,-46.348,-21.575,9.771
90,1436896022283,-46.348,-21.575,9.219
91,1436896022303,-46.348,-21.575,8.753
92,1436896022325,-46.348,-21.575,8.233
93,1436896022344,-46.348,-21.575,7.781
94,1436896022365,-46.348,-21.575,7.781
95,1436896022387,-46.348,-21.575,8.261
96,1436896022404,-46.348,-21.575,8.796
97,1436896022423,-46.348,-21.575,8.796
98,1436896022446,-46.348,-21.575,9.165
99,1436896022464,-46.348,-21.575,9.165
100,1436896022484,-46.348,-21.575,9.165
101,1436896022504,-46.348,-21.575,9.165
102,1436896022524,-46.348,-21.575,8.706
103,1436896022546,-46.348,-21.575,8.706
104,1436896022563,-46.348,-21.575,8.706
105,1436896022584,-46.348,-21.575,8.706
106,1436896022604,-46.348,-21.575,8.706
107,1436896022624,-46.348,-21.575,8.706
108,1436896022646,-46.348,-21.575,11.408
109,1436896022663,-46.348,-21.575,13.04
110,1436896022684,-46.348,-21.575,10.356
111,1436896022703,-46.348,-21.575,8.659
112,1436896022724,-46.348,-21.575,8.322
113,1436896022746,-46.348,-21.575,8.322
114,1436896022764,-46.348,-21.575,9.158
115,1436896022784,-46.348,-21.575,8.654
116,1436896022805,-46.348,-21.575,7.36
117,1436896022829,-46.348,-21.575,6.93
118,1436896022904,-46.348,-21.575,5.961
119,1436896022905,-46.348,-21.575,5.961
120,1436896022906,-46.348,-21.575,5.961
121,1436896022907,-46.348,-21.575,5.541
122,1436896022924,-46.348,-21.575,6.436
123,1436896022946,-46.348,-21.575,6.436
124,1436896022963,-46.348,-21.575,6.809
125,1436896022983,-46.348,-21.575,6.809
126,1436896023004,-46.348,-21.575,6.809
127,1436896023025,-46.348,-21.575,6.809
128,1436896023047,-46.348,-21.575,6.809
129,1436896023064,-46.348,-21.575,6.809
130,1436896023086,-46.681,-21.575,6.809
131,1436896023103,-46.681,-21.575,6.809
132,1436896023124,-46.681,-21.575,6.809
133,1436896023143,-46.681,-21.575,7.736
134,1436896023164,-46.681,-21.575,10.09
135,1436896023184,-46.681,-21.575,8.294
136,1436896023203,-46.681,-21.575,6.549
137,1436896023224,-46.681,-21.575,7.015
138,1436896023247,-46.681,-21.575,7.589
139,1436896023264,-46.681,-21.575,8.139
140,1436896023284,-46.681,-21.575,8.139
141,1436896023311,-46.681,-21.575,7.652
142,1436896023324,-46.681,-21.575,7.652
143,1436896023344,-46.681,-21.575,7.278
144,1436896023364,-46.681,-21.575,6.809
145,1436896023384,-46.681,-21.575,6.809
146,1436896023407,-46.681,-21.575,7.122
147,1436896023425,-46.681,-21.575,7.817
148,1436896023446,-46.681,-21.575,8.354
149,1436896023466,-46.681,-21.575,8.354
150,1436896023485,-46.368,-21.575,8.944
151,1436896023509,-46.368,-21.575,8.944
152,1436896023525,-46.368,-21.575,8.944
153,1436896023544,-46.368,-21.575,9.262
154,1436896023571,-46.368,-21.575,8.5
155,1436896023645,-46.368,-21.575,8.5
156,1436896023646,-46.368,-21.575,9.347
157,1436896023647,-46.368,-21.206,10.223
158,1436896023648,-46.368,-21.206,11.877
159,1436896023664,-46.368,-21.206,15.47
160,1436896023684,-46.368,-21.206,17.791
161,1436896023704,-46.368,-21.206,14.987
162,1436896023724,-46.368,-21.206,12.01
163,1436896023744,-46.368,-21.206,11.419
164,1436896023765,-46.368,-20.881,12.081
165,1436896023786,-46.368,-20.881,12.773
166,1436896023804,-46.368,-20.881,13.133
167,1436896023826,-46.368,-20.881,12.773
168,1436896023846,-46.368,-20.515,11.285
169,1436896023865,-46.368,-20.515,10.017
170,1436896023887,-46.368,-20.515,9.182
171,1436896023905,-46.368,-20.515,9.182
172,1436896023924,-46.368,-20.515,8.517
173,1436896023947,-46.368,-20.515,9.053
174,1436896023965,-46.368,-20.515,9.811
175,1436896023987,-46.368,-20.515,10.598
176,1436896024007,-46.368,-20.515,10.917
177,1436896024025,-46.368,-20.515,10.917
178,1436896024047,-46.368,-20.515,10.917
179,1436896024064,-46.368,-20.515,9.96
180,1436896024086,-46.368,-20.515,9.96
181,1436896024104,-46.368,-20.515,9.96
182,1436896024127,-46.368,-20.515,9.96
183,1436896025798,-46.368,-20.515,9.96
184,1436896025799,-46.682,-20.515,9.96
185,1436896025800,-46.682,-20.515,9.96
186,1436896025801,-46.682,-20.515,9.96
187,1436896025802,-46.682,-20.515,12.519
188,1436896025803,-46.682,-20.515,11.755
189,1436896025804,-46.682,-20.515,10.07
190,1436896025805,-46.682,-20.515,9.143
191,1436896025806,-46.682,-20.515,9.73
192,1436896025807,-46.682,-20.515,9.73
193,1436896025808,-46.682,-20.515,10.24
194,1436896025809,-46.682,-20.515,9.79
195,1436896025810,-46.682,-20.515,9.251
196,1436896025811,-46.682,-20.515,9.251
197,1436896025812,-46.682,-20.515,8.686
198,1436896025813,-46.682,-20.515,7.681
199,1436896025814,-46.682,-20.515,8.201
200,1436896025815,-46.682,-20.515,8.201
201,1436896025816,-46.682,-20.515,8.636
202,1436896025817,-46.682,-20.515,9.579
203,1436896025818,-46.682,-20.515,9.214
204,1436896025819,-46.682,-20.515,9.214
205,1436896025820,-46.682,-20.515,9.214
206,1436896025821,-46.682,-20.515,9.214
207,1436896025822,-46.682,-20.515,9.214
208,1436896025823,-46.682,-20.515,8.717
209,1436896025824,-46.682,-20.515,8.717
210,1436896025825,-46.682,-20.515,8.717
211,1436896025826,-46.682,-20.852,8.717
212,1436896025827,-46.682,-20.852,8.717
213,1436896025828,-46.682,-20.852,10.545
214,1436896025829,-46.682,-20.852,10.545
215,1436896025830,-46.682,-20.852,8.677
216,1436896025831,-46.682,-20.852,7.823
217,1436896025832,-46.682,-20.852,7.823
218,1436896025833,-46.682,-20.852,8.345
219,1436896025834,-46.682,-20.852,8.68
220,1436896025835,-46.682,-20.852,8.68
221,1436896025836,-46.682,-20.852,8.331
222,1436896025837,-46.682,-20.852,8.331
223,1436896025838,-46.682,-20.852,8.331
224,1436896025839,-46.682,-20.852,8.331
225,1436896025840,-46.682,-20.852,7.821
226,1436896025841,-46.682,-20.852,7.821
227,1436896025842,-46.682,-20.852,8.468
228,1436896025843,-46.682,-20.852,8.468
229,1436896025844,-46.682,-20.852,8.839
230,1436896025845,-46.682,-20.527,9.181
231,1436896025846,-46.682,-20.527,9.756
232,1436896025847,-46.682,-20.527,9.756
233,1436896025848,-47.053,-20.527,9.756
234,1436896025849,-47.053,-20.527,9.242
235,1436896025850,-47.053,-20.527,9.564
236,1436896025851,-47.053,-20.527,9.881
237,1436896025852,-47.053,-20.527,11.003
238,1436896025853,-47.053,-20.527,13.034
239,1436896025854,-47.053,-20.527,15.467
240,1436896025855,-46.69,-20.527,13.099
241,1436896025856,-46.69,-20.527,10.748
242,1436896025857,-46.69,-20.527,9.837
243,1436896025858,-46.69,-20.527,10.336
244,1436896025859,-46.69,-20.527,11.366
245,1436896025860,-46.69,-20.527,11.366
246,1436896025861,-46.69,-20.527,11.68
247,1436896025862,-46.69,-20.527,10.72
248,1436896025863,-46.69,-20.527,10.081
249,1436896025864,-46.69,-20.527,9.429
250,1436896025865,-46.69,-20.527,9.046
251,1436896025866,-46.69,-20.527,9.046
252,1436896025867,-46.69,-20.527,9.046
253,1436896025868,-46.69,-20.527,9.527
254,1436896025869,-46.69,-20.527,10.177
255,1436896025870,-46.69,-20.527,10.546
256,1436896025871,-46.69,-20.527,10.546
257,1436896025872,-46.69,-20.527,10.546
258,1436896025873,-46.69,-20.527,10.546
259,1436896025874,-46.69,-20.527,10.546
260,1436896025875,-46.69,-20.527,9.986
261,1436896025876,-46.69,-20.527,9.986
262,1436896025877,-46.69,-20.527,9.986
263,1436896025878,-46.69,-20.834,10.342
264,1436896025879,-46.69,-20.834,12.438
265,1436896025880,-46.69,-20.834,15.182
266,1436896025881,-46.69,-20.834,12.709
267,1436896025882,-46.69,-20.834,10.708
268,1436896025883,-46.386,-21.17,9.902
269,1436896025884,-46.386,-21.17,10.499
270,1436896025885,-46.386,-21.17,11.517
271,1436896025904,-46.386,-21.17,11.517
272,1436896025925,-46.386,-21.17,11.152
273,1436896025945,-46.386,-21.17,10.618
274,1436896025965,-46.386,-21.17,9.901
275,1436896025985,-46.386,-21.17,8.935
276,1436896026005,-46.386,-21.17,8.935
277,1436896026030,-46.386,-21.17,8.564
278,1436896026047,-46.386,-21.17,8.937
279,1436896026067,-46.386,-21.17,9.291
280,1436896026090,-46.386,-21.17,9.73
281,1436896026110,-46.386,-21.17,9.73
282,1436896026128,-46.386,-21.17,9.73
283,1436896026147,-46.386,-21.17,10.215
284,1436896026169,-46.386,-21.17,10.215
285,1436896026189,-46.386,-21.17,10.215
286,1436896026209,-46.386,-20.845,9.826
287,1436896026229,-46.386,-20.845,9.826
288,1436896026247,-46.386,-20.845,9.826
289,1436896026269,-46.386,-20.845,10.61
290,1436896026289,-46.386,-20.845,12.93
291,1436896026307,-46.386,-20.845,16.526
292,1436896026326,-46.386,-20.845,14.712
293,1436896026359,-46.386,-20.845,11.845
294,1436896026370,-46.386,-20.845,11.244
295,1436896026385,-46.386,-20.541,11.244
296,1436896026411,-46.386,-20.541,12.532
297,1436896026426,-46.386,-20.541,12.532
298,1436896026448,-46.386,-20.541,11.691
299,1436896026469,-46.386,-20.21,10.475
300,1436896026487,-46.386,-20.21,8.901
301,1436896026511,-46.386,-20.21,8.901
302,1436896026529,-46.386,-20.21,8.369
303,1436896026550,-46.386,-20.21,8.369
304,1436896026567,-46.386,-20.21,9.062
305,1436896026590,-46.386,-20.21,9.062
306,1436896026611,-46.386,-20.21,10.115
307,1436896026632,-46.386,-20.21,10.504
308,1436896026652,-46.386,-20.21,10.845
309,1436896026670,-46.386,-19.885,11.254
310,1436896026692,-46.386,-19.885,10.476
311,1436896026707,-46.707,-19.885,10.165
312,1436896026729,-46.707,-19.563,10.165
313,1436896026750,-46.707,-19.563,10.528
314,1436896026770,-46.707,-19.563,10.528
315,1436896026789,-46.707,-19.563,10.528
316,1436896026811,-46.707,-19.563,10.528
317,1436896026830,-46.707,-19.563,13.574
318,1436896026850,-46.707,-19.563,14.7
319,1436896026870,-46.707,-19.563,11.784
320,1436896026890,-46.707,-19.563,9.846
321,1436896026912,-46.707,-19.563,9.846
322,1436896026930,-46.707,-19.563,11.067
323,1436896026950,-46.707,-19.563,12.007
324,1436896026971,-46.707,-19.563,12.429
325,1436896027049,-46.707,-19.563,11.715
326,1436896027056,-46.707,-19.563,11.038
327,1436896027057,-46.707,-19.563,10.253
328,1436896027058,-46.707,-19.563,9.867
329,1436896027077,-46.707,-19.563,9.867
330,1436896027134,-46.707,-19.563,9.867
331,1436896027135,-46.707,-19.563,9.867
332,1436896027136,-46.707,-19.563,9.867
333,1436896027149,-46.707,-19.868,10.394
334,1436896027190,-46.707,-19.868,10.394
335,1436896027191,-46.707,-19.868,11.064
336,1436896027211,-46.707,-19.868,11.064
337,1436896027237,-46.707,-19.868,11.064
338,1436896027247,-46.707,-19.868,10.42
339,1436896027267,-46.707,-19.868,10.42
340,1436896027287,-46.707,-19.868,10.42
341,1436896027307,-46.707,-19.868,10.42
342,1436896027327,-46.707,-19.868,10.961
343,1436896027353,-46.707,-19.868,14.498
344,1436896027367,-46.707,-19.868,13.595
345,1436896027388,-46.707,-19.868,11.088
346,1436896027423,-46.707,-19.868,10.02
347,1436896027426,-46.707,-19.868,10.02
348,1436896027450,-46.707,-19.868,11.351
349,1436896027471,-46.707,-19.868,12.158
350,1436896027488,-46.707,-19.868,12.158
351,1436896027511,-46.707,-19.868,11.276
352,1436896027528,-46.707,-19.543,10.491
353,1436896027547,-46.707,-19.543,10.16
354,1436896027568,-46.707,-19.543,9.552
355,1436896027590,-46.707,-19.543,8.967
356,1436896027608,-46.707,-19.543,8.967
357,1436896027627,-46.707,-19.543,8.967
358,1436896027648,-46.707,-19.543,9.559
359,1436896027667,-46.707,-19.543,9.559
360,1436896027689,-46.707,-19.543,10.13
361,1436896027712,-46.707,-19.543,10.13
362,1436896027732,-46.707,-19.543,10.13
363,1436896027751,-46.707,-19.543,10.13
364,1436896027770,-46.707,-19.543,10.13
365,1436896027787,-47.035,-19.543,10.13
366,1436896027806,-47.035,-19.543,10.13
367,1436896027829,-47.035,-19.543,10.13
368,1436896027852,-47.035,-19.543,10.13
369,1436896027868,-47.035,-19.543,12.503
370,1436896027888,-47.035,-19.543,16.271
371,1436896027912,-46.684,-19.543,14.927
372,1436896027932,-46.684,-19.543,11.999
373,1436896027952,-46.684,-19.543,10.992
374,1436896027972,-46.684,-19.543,11.331
375,1436896027990,-46.684,-19.543,12.312
376,1436896028012,-46.684,-19.543,13.156
377,1436896028032,-46.684,-19.543,13.156
378,1436896028052,-46.356,-19.543,12.243
379,1436896028072,-46.356,-19.543,11.145
380,1436896028088,-46.356,-19.543,10.33
381,1436896028109,-46.356,-19.543,10.33
382,1436896028131,-46.356,-19.543,10.33
383,1436896028152,-46.356,-19.543,10.33
384,1436896028169,-46.356,-19.543,10.33
385,1436896028188,-46.356,-19.543,10.734
386,1436896028210,-46.356,-19.543,10.734
387,1436896028234,-46.356,-19.543,11.767
388,1436896028254,-46.356,-19.543,11.312
389,1436896028274,-46.356,-19.543,10.916
390,1436896028291,-46.356,-19.543,10.916
391,1436896028308,-46.356,-19.543,10.916
392,1436896028328,-46.719,-19.543,10.916
393,1436896028348,-46.719,-19.543,10.916
394,1436896028370,-46.719,-19.543,10.916
395,1436896028393,-46.719,-19.543,10.916
396,1436896028434,-46.719,-19.543,12.535
397,1436896028435,-46.719,-19.543,12.535
398,1436896028455,-46.719,-19.543,11.221
399,1436896028469,-46.719,-19.543,10.65
400,1436896028493,-46.719,-19.543,10.65
401,1436896028510,-46.719,-19.543,11.357
402,1436896028529,-46.719,-19.543,11.357
403,1436896028551,-46.719,-19.543,11.357
404,1436896028570,-46.719,-19.543,11.357
405,1436896028591,-46.719,-19.543,10.963
406,1436896028608,-46.719,-19.543,10.469
407,1436896028632,-46.719,-19.543,10.017
408,1436896028652,-46.719,-19.543,10.017
409,1436896028672,-46.719,-19.898,10.017
410,1436896028692,-46.719,-19.898,10.017
411,1436896028711,-46.719,-19.898,10.017
412,1436896028732,-46.719,-19.898,10.676
413,1436896028752,-46.719,-19.898,11.102
414,1436896028772,-46.719,-19.898,11.102
415,1436896028792,-46.719,-19.898,11.102
416,1436896028812,-46.719,-19.898,11.102
417,1436896028835,-46.719,-19.898,10.478
418,1436896028851,-46.719,-19.898,10.478
419,1436896028871,-46.719,-19.898,10.478
420,1436896028893,-46.719,-19.898,10.478
421,1436896028915,-46.719,-19.898,10.478
422,1436896028933,-46.719,-19.898,10.478
423,1436896028952,-46.719,-19.898,13.931
424,1436896028972,-46.408,-19.898,16.49
425,1436896028991,-46.408,-19.898,13.88
426,1436896029011,-46.408,-20.217,11.585
427,1436896029033,-46.408,-20.217,10.963
428,1436896029053,-46.408,-20.217,10.963
429,1436896029073,-46.408,-20.217,12.849
430,1436896029092,-46.408,-20.217,12.849
431,1436896029112,-46.408,-20.217,12.849
432,1436896029183,-46.408,-20.217,11.993
433,1436896029184,-46.408,-20.217,11.175
434,1436896029185,-46.408,-20.217,10.774
435,1436896029192,-46.408,-20.217,10.774
436,1436896029211,-46.408,-20.217,10.121
437,1436896029230,-46.408,-20.217,10.858
438,1436896029250,-46.408,-20.217,11.894
439,1436896029269,-46.107,-20.217,11.894
440,1436896029289,-46.107,-20.217,11.894
441,1436896029313,-46.107,-20.217,12.559
442,1436896029335,-46.107,-20.217,12.115
443,1436896029350,-46.107,-20.217,12.115
444,1436896029373,-46.449,-20.217,11.7
445,1436896029391,-46.449,-19.834,11.7
446,1436896029414,-46.449,-19.834,11.7
447,1436896029433,-46.449,-19.834,11.7
448,1436896029453,-46.449,-19.834,11.7
449,1436896029473,-46.449,-19.834,14.018
450,1436896029493,-46.449,-19.834,16.629
451,1436896029513,-46.449,-19.834,13.848
452,1436896030926,-46.449,-19.834,11.764
453,1436896030927,-46.449,-19.834,10.969
454,1436896030928,-46.449,-19.834,11.871
455,1436896030929,-46.449,-19.834,12.522
456,1436896030930,-46.449,-19.834,12.84
457,1436896030931,-46.449,-19.834,12.84
458,1436896030932,-46.449,-19.834,12.252
459,1436896030933,-46.449,-19.834,11.665
460,1436896030934,-46.449,-19.834,11.065
461,1436896030935,-46.449,-19.834,10.43
462,1436896030936,-46.449,-19.834,10.43
463,1436896030937,-46.449,-19.834,10.43
464,1436896030938,-46.449,-19.834,10.876
465,1436896030939,-46.449,-19.834,11.294
466,1436896030940,-46.449,-19.834,11.657
467,1436896030941,-46.449,-19.834,11.657
468,1436896030942,-46.449,-19.834,12.019
469,1436896030943,-46.449,-19.528,11.26
470,1436896030944,-46.815,-19.528,11.26
471,1436896030945,-46.815,-19.528,11.26
472,1436896030946,-46.815,-19.528,11.26
473,1436896030947,-46.815,-19.528,11.26
474,1436896030948,-46.815,-19.528,11.26
475,1436896030949,-46.815,-19.528,14.865
476,1436896030950,-46.815,-19.528,16.653
477,1436896030951,-46.815,-19.528,14.434
478,1436896030952,-46.815,-19.528,12.722
479,1436896030953,-46.815,-19.528,12.722
480,1436896030954,-46.815,-19.528,13.066
481,1436896030955,-46.482,-19.528,14.192
482,1436896030956,-46.482,-19.528,14.704
483,1436896030957,-46.482,-19.528,14.704
484,1436896030958,-46.482,-19.528,13.839
485,1436896030959,-46.482,-19.528,12.849
486,1436896030960,-46.482,-19.528,11.697
487,1436896030961,-46.482,-19.528,11.697
488,1436896030962,-46.482,-19.528,10.821
489,1436896030963,-46.482,-19.528,10.821
490,1436896030964,-46.482,-19.528,11.174
491,1436896030965,-46.482,-19.528,11.174
492,1436896030966,-46.482,-19.528,11.506
493,1436896030967,-46.482,-19.528,12.045
494,1436896030968,-46.482,-19.528,12.045
495,1436896030969,-46.482,-19.528,12.426
496,1436896030970,-46.482,-19.528,11.801
497,1436896030971,-46.482,-19.528,11.801
498,1436896030972,-46.482,-19.528,11.445
