id,attr_time,attr_db
1,1436966160566,13.9009722314812
2,1436966161109,14.3212912729091
3,1436966161738,15.6426275654804
4,1436966162453,14.709516342562
5,1436966163175,16.3690366275017
6,1436966163898,16.6637917123072
7,1436966164620,19.3555964684127
8,1436966165379,29.168689964134
9,1436966166098,28.4466326651593
10,1436966166842,34.9123677414666
11,1436966167527,62.8060517441336
12,1436966168263,58.298476142878
13,1436966168985,44.1784112467353
14,1436966169712,54.6293170199501
15,1436966170441,57.2439418128879
16,1436966171150,59.4970392281741
17,1436966171832,50.5495842886768
18,1436966172481,64.1284140007104
19,1436966173219,45.7005269652668
20,1436966173957,49.9081820299569
21,1436966174686,67.5424600871373
22,1436966175279,61.5034255949197
23,1436966175968,52.3425454462984
24,1436966176704,58.8272276688039
25,1436966177416,63.6391237233809
26,1436966178136,64.8881094114485
27,1436966178842,53.5249794924041
28,1436966179560,49.4575212029213
29,1436966180242,51.4649290233168
30,1436966180907,56.6360345931218
31,1436966181589,53.5128111352891
32,1436966182271,58.5479785180339
33,1436966182914,49.7640501599143
34,1436966183640,55.0091809758941
35,1436966184398,51.4201354452788
36,1436966185172,39.1964401286007
37,1436966185909,49.4999369696293
38,1436966186654,48.5365798265367
39,1436966187371,51.6437307546475
40,1436966188127,57.3233909632105
41,1436966188845,59.194447451647
42,1436966189573,54.1362391354056
43,1436966190313,54.1516214658907
44,1436966191047,50.6062834716259
45,1436966191768,60.8933169575447
46,1436966192453,53.8644561508986
47,1436966193140,59.6335054518297
48,1436966193885,60.6767946785619
49,1436966194626,62.404113162083
50,1436966195348,39.1032986377567
51,1436966196046,53.8135830439403
52,1436966196727,60.1155472711768
53,1436966197411,55.598907991372
54,1436966198115,66.6999158127641
55,1436966198836,66.0542726931304
56,1436966199578,63.4344981503934
57,1436966200297,47.6260332793268
58,1436966201005,57.48936187292
59,1436966201732,60.6765089435271
60,1436966202436,55.6984624224974
61,1436966203083,53.1465874556396
62,1436966203827,66.0064815436484
63,1436966204592,61.4959933146246
64,1436966205351,59.8311481949415
65,1436966206067,52.7027369176526
66,1436966206780,59.8206300088093
67,1436966207488,56.0320072977771
68,1436966208152,60.7079509221841
69,1436966208866,60.2092589633374
70,1436966209579,61.3714168833377
71,1436966210310,46.6665259138163
72,1436966211044,50.7676379546024
73,1436966211781,61.7526376919334
74,1436966212488,52.980718321793
75,1436966213183,57.8955672559703
76,1436966213810,64.8027499693786
77,1436966214521,50.5485218462528
78,1436966215332,50.3934323921564
79,1436966216056,54.8341150785745
80,1436966216773,46.0761335146004
81,1436966217467,56.3769327671684
82,1436966218167,47.9784388859452
83,1436966218876,56.959577646377
84,1436966219555,65.2161410648115
85,1436966220269,69.1637519307131
86,1436966221055,64.9867980867061
87,1436966221790,58.5941372334052
88,1436966222536,62.7310613490082
89,1436966223279,59.7259114527418
90,1436966224047,59.494833411447
91,1436966224759,48.6301474423229
92,1436966225533,50.7271486720745
93,1436966226260,45.6699361926247
94,1436966227061,41.6349437060002
95,1436966227787,56.8557794153029
96,1436966228464,57.6501160954833
97,1436966229187,58.9041361649395
98,1436966229914,54.7733376636438
99,1436966230635,68.4223705757305
100,1436966231356,66.9992172742035
101,1436966232095,53.3826596243324
102,1436966232826,43.7804806108616
103,1436966233513,62.0725935842435
104,1436966234201,59.1225809690052
105,1436966234941,63.0500843046587
106,1436966235699,60.6720096211281
107,1436966236382,63.3880065993063
108,1436966237123,64.2867743116039
109,1436966237736,56.9104054995369
110,1436966238459,60.5813220700699
111,1436966239169,60.2490689048025
112,1436966239886,64.4718308066905
113,1436966240623,47.8950025914019
114,1436966241298,60.2370273962094
115,1436966242021,48.5830368158623
116,1436966242764,52.7348559401184
117,1436966243495,57.4927103866221
118,1436966244230,66.3441378730789
119,1436966244965,57.6253884943992
120,1436966245709,55.8039722345455
121,1436966246432,65.5272151625898
122,1436966247171,48.1987445852381
123,1436966247886,48.352341372366
124,1436966248622,57.1085031150926
125,1436966249337,46.5912248186538
126,1436966250088,57.443479780545
127,1436966250809,59.877673016391
128,1436966251529,55.4472049387492
129,1436966252269,55.9501528478987
130,1436966252986,52.5248267446939
131,1436966253715,60.1819379787891
132,1436966254438,64.4341258538014
133,1436966255181,60.2569881844027
134,1436966255915,63.561462585165
135,1436966256635,61.7308833722706
136,1436966257323,44.1943790512993
137,1436966258059,58.2245280811666
138,1436966258802,62.248941940633
139,1436966259537,53.9207810223822
140,1436966260249,50.0776429678068
141,1436966260987,53.9963036018502
142,1436966261612,64.485638537884
143,1436966262289,62.4593959330538
144,1436966263004,65.3727459123961
145,1436966263732,55.9908515875357
146,1436966264466,55.9026288939484
147,1436966265200,52.1030924293898
148,1436966265920,47.5546139485869
149,1436966266567,48.9544000557997
150,1436966267286,41.5099557974014
151,1436966268010,61.6803473125432
152,1436966268738,61.250837796244
153,1436966269427,62.5072711528639
154,1436966270108,55.9528676885167
155,1436966270815,66.0941057830657
156,1436966271509,64.8952047336804
157,1436966272230,49.2499488149221
158,1436966272931,58.2670322183478
159,1436966273658,52.7499498373638
160,1436966274381,48.7656427164847
161,1436966275121,54.3891695149413
162,1436966275857,54.3843503998339
163,1436966276581,64.4467153066836
164,1436966277278,62.8923887509627
165,1436966277862,57.7587224237567
166,1436966278555,56.3326322973048
167,1436966279272,57.2651159554937
168,1436966279998,61.5967444660647
169,1436966280727,56.1219394108885
170,1436966281449,41.8576224343764
171,1436966282175,45.8722035309739
172,1436966282896,50.0027119741845
173,1436966283619,64.1439840223964
174,1436966284357,57.828662967634
175,1436966285087,56.2995087968652
176,1436966285814,60.3540724504899
177,1436966286551,58.169479606972
178,1436966287274,43.2440546026421
179,1436966288017,44.6985307114729
180,1436966288751,63.4053353904816
181,1436966289491,61.1787909637742
182,1436966290214,50.7358271727432
183,1436966290954,48.3027425447962
184,1436966291676,52.6449557925163
185,1436966292392,61.176753472625
186,1436966293100,64.3964251114044
187,1436966293772,64.9657977767408
188,1436966294407,48.8575383445903
189,1436966295193,57.8338133469323
190,1436966295919,49.903484448514
191,1436966296658,55.3824831929689
192,1436966297354,55.3791568837557
193,1436966297960,62.5010232809515
194,1436966298643,58.6744293436932
195,1436966299379,58.7948533438973
196,1436966300099,61.1950057638419
197,1436966300785,46.8745494215933
198,1436966301460,57.0458084409191
199,1436966302198,58.8275753586609
200,1436966302962,65.9844054511461
201,1436966303706,63.5491175374083
202,1436966304422,60.392502893927
203,1436966305159,54.6483777926102
204,1436966305877,40.8288092902544
205,1436966306605,48.2423469446975
206,1436966307334,58.858828492347
207,1436966308062,56.8707611193136
208,1436966308799,55.1803093991287
209,1436966309548,46.3927992639428
210,1436966310285,63.9590693755928
211,1436966311007,52.8655810772665
212,1436966311727,58.3599616491622
213,1436966312445,57.7350734227518
214,1436966313146,59.4654660665686
215,1436966313844,50.207260339444
216,1436966314591,52.7742702929352
217,1436966315307,50.2645911930161
218,1436966316001,44.8876636185371
219,1436966316755,57.2815183945697
220,1436966317423,55.1855695914231
221,1436966318129,58.8226176302311
222,1436966318838,62.2128037544386
223,1436966319563,46.0621560469444
224,1436966320283,46.7964462181289
225,1436966321022,52.6092798781478
226,1436966321737,52.8549012202035
227,1436966322406,59.0068294818605
228,1436966323917,50.9278060880249
229,1436966324590,65.4306156933231
230,1436966325350,61.6051148295995
231,1436966326069,49.7459736615937
232,1436966326783,47.5403190912335
233,1436966327463,63.1127936863008
234,1436966328151,57.2871241123237
235,1436966328885,62.3258625610471
236,1436966329594,62.1663207646319
237,1436966330327,42.776192741897
238,1436966331064,48.9659180147201
239,1436966331795,56.3675382395424
240,1436966332597,51.3017526529091
241,1436966334447,53.0852774090059
242,1436966335202,56.8489579616045
243,1436966335957,65.4525271982779
244,1436966336714,63.4953360579236
245,1436966337379,69.8992740662097
246,1436966338097,48.0256949615799
247,1436966338779,56.8670962560316
248,1436966339502,49.2719185912962
249,1436966340237,55.5769383725506
250,1436966340988,53.291666257283
251,1436966341697,53.7971448877096
252,1436966342354,48.1527639926616
253,1436966343074,51.8460889437971
254,1436966343782,56.8497643097597
255,1436966344488,51.9687526823287
256,1436966345199,63.3496330451062
257,1436966345928,68.1127464632175
258,1436966346633,68.5651299160716
259,1436966347351,52.3085355670129
260,1436966349513,60.1249545899798
261,1436966350305,54.6198139767204
262,1436966351032,56.1460384138425
263,1436966351764,61.3927451159513
264,1436966352496,59.4832243925629
265,1436966353232,64.0367543712783
266,1436966353979,66.8845064830722
267,1436966354717,58.627251468294
268,1436966355467,59.2663369443137
269,1436966356171,52.1219011573026
270,1436966357869,62.9479075509381
271,1436966358585,54.5007283193541
272,1436966359306,61.7083100401577
273,1436966360020,62.2071207855804
274,1436966360733,57.1571569420788
275,1436966361407,56.2603045862558
276,1436966362042,55.8738538400445
277,1436966362747,64.5175711485962
278,1436966363450,68.4186497749698
279,1436966364139,52.9387366616535
280,1436966364884,54.1730583552805
281,1436966365576,55.592447955185
282,1436966366270,55.6084581454274
283,1436966366991,58.397857412029
284,1436966367726,62.7910792080722
285,1436966368438,60.96440158196
286,1436966369085,56.5387450649863
287,1436966369795,46.9974200044955
288,1436966370511,56.3016054870709
289,1436966371220,57.6555961749886
290,1436966371970,70.1963041352392
291,1436966372709,68.7299547318559
292,1436966373428,46.8364333445054
293,1436966374145,49.5976612599009
294,1436966374885,55.7547496108017
295,1436966375648,61.5084114475999
296,1436966376368,60.9128615770236
297,1436966377108,53.1568389084012
298,1436966377836,57.2048019175105
299,1436966378525,61.9046177169914
300,1436966379228,64.4177568936223
301,1436966379878,48.7771470788905
302,1436966380581,62.479765411571
303,1436966381289,51.2379089786757
304,1436966381985,44.1758263770523
305,1436966382646,68.2099241457604
306,1436966383365,62.6584079229168
307,1436966384093,41.8371228441727
308,1436966384817,46.485999850897
309,1436966385536,48.9155794350849
310,1436966386267,45.3230028008422
311,1436966387008,57.6990196192892
312,1436966387738,57.7274540055269
313,1436966388472,61.381360976569
314,1436966389183,55.8290453850069
315,1436966389831,56.0260390035804
316,1436966390616,52.1121841866406
317,1436966391331,59.0508487935672
318,1436966392052,60.2056079785932
319,1436966392784,50.5426955007655
320,1436966393447,49.6468668025556
321,1436966394083,63.1959868793126
322,1436966394785,50.4639116973384
323,1436966395525,48.3014302593321
324,1436966396265,42.7800223100345
325,1436966397000,49.0745600231474
326,1436966397742,56.8978114169779
327,1436966398464,54.8499120038198
328,1436966399141,58.5266868417335
329,1436966399848,58.2520503610934
330,1436966400599,61.1798621921483
331,1436966401377,42.7549429683511
332,1436966402103,46.3552373778401
333,1436966402836,59.5894081171883
334,1436966403562,56.9537694604952
335,1436966404282,47.9924884725751
336,1436966404958,56.8469451971639
337,1436966405635,47.7992039954732
338,1436966406377,47.8720644157292
339,1436966407113,49.9900918256078
340,1436966407863,44.3303247150922
341,1436966408561,51.5004465662959
342,1436966409218,58.7477329228309
343,1436966409844,60.7624491259764
344,1436966410468,59.7124429835404
345,1436966411190,41.9046419801886
346,1436966411925,61.5862923017431
347,1436966412685,54.7317828581697
348,1436966413432,56.5516352328747
349,1436966414173,65.1942486796106
350,1436966414917,61.6261981971352
351,1436966415668,66.4751955606884
352,1436966416407,70.8217219097185
353,1436966417112,64.5166499130177
354,1436966417798,46.1832738851298
355,1436966418579,50.8750416275744
356,1436966419263,54.9808575841622
357,1436966419973,56.7022149967605
358,1436966420733,63.5470048151198
359,1436966421467,48.6446332885837
360,1436966422243,46.6424420334222
361,1436966422975,63.4554060625662
362,1436966423720,60.5419606700293
363,1436966424451,43.9914466246383
364,1436966425174,43.1316890137393
365,1436966425915,54.8260044492263
366,1436966426696,56.1209807520747
367,1436966427422,56.2718631326784
368,1436966428143,45.9767854981836
369,1436966428877,48.1788755170699
370,1436966429591,65.3519412813814
371,1436966430339,65.0380474834396
372,1436966431080,69.4847206020332
373,1436966431810,67.4631296455064
374,1436966432531,45.6720660294096
375,1436966433263,48.4158715693964
376,1436966433997,43.9443545952011
377,1436966434709,40.3509576655107
378,1436966435387,52.7688708759149
379,1436966436110,56.703545763072
380,1436966436828,66.1051876356787
381,1436966437570,59.1668279446028
382,1436966438252,60.1703825776524
383,1436966438930,61.9135203011427
384,1436966439603,56.8447319249534
385,1436966440328,64.7772879010423
386,1436966441078,60.5996014161634
387,1436966441803,49.1673729204554
388,1436966442544,44.3690548654575
389,1436966443276,42.6523575347312
390,1436966443994,50.4304534938971
391,1436966444672,50.801682783678
392,1436966445393,63.2912659683427
393,1436966446096,57.9141631020653
394,1436966446808,51.1811173512548
395,1436966447562,46.0465175659085
396,1436966448285,62.0741892992863
397,1436966449090,41.8127646916909
398,1436966449818,59.3389210647948
399,1436966450618,62.7070710827069
400,1436966451318,55.2487217748653
401,1436966452030,55.7982862357632
402,1436966452754,51.4295462968018
403,1436966453486,62.9340122527437
404,1436966454202,63.6153870672514
405,1436966454942,47.6400025303825
406,1436966455651,46.1908462016327
407,1436966456333,46.6507163689164
408,1436966457029,55.9508625243405
409,1436966457759,56.5715071820171
410,1436966458486,58.0414287139895
411,1436966459138,63.0828114000207
412,1436966459771,61.1458514329416
413,1436966460431,45.6673044160645
414,1436966461129,46.2680676702074
415,1436966461841,62.3345597803592
416,1436966462536,64.8951180032952
417,1436966463219,57.1598751427122
418,1436966463967,59.194522583211
419,1436966464687,46.5754954122473
420,1436966465347,61.7031345882216
421,1436966466088,59.8138390213012
422,1436966466824,51.2707909797715
423,1436966467546,54.664238192508
424,1436966468228,56.7545125800309
425,1436966469008,63.0562215046916
426,1436966469746,59.2159896261773
427,1436966470539,64.8850143167227
428,1436966471264,61.5670983006339
429,1436966472003,63.0481935788379
430,1436966472739,56.8530896774023
431,1436966473440,45.3609787581109
432,1436966474187,51.4032369325849
433,1436966474908,48.0764194457736
434,1436966475626,53.8303983769534
435,1436966476364,58.9385274803117
436,1436966477108,54.4925225357294
437,1436966477848,53.5025006569425
438,1436966478539,46.7590242082067
439,1436966479290,49.4204514773374
440,1436966480054,50.707277854063
441,1436966480801,58.2434928417787
442,1436966481537,65.5543414142958
443,1436966482278,67.3013863835747
444,1436966483009,66.2661545901655
445,1436966483691,58.2236406094409
446,1436966484404,51.8760844536667
447,1436966485099,61.0290633624296
448,1436966485843,62.4791261777526
449,1436966486572,63.8509196050006
450,1436966487315,54.7609327071667
451,1436966488040,63.2499559017586
452,1436966488777,58.0582428437619
453,1436966489530,55.1319752252312
454,1436966490297,55.0856345033598
455,1436966490998,55.0452722483147
456,1436966491669,63.4988221345918
457,1436966492405,50.2646420971618
458,1436966493119,51.6623098087264
459,1436966493844,56.5014302768833
460,1436966494532,46.3461980522177
461,1436966495198,48.8033988287345
462,1436966495926,57.3021469126412
463,1436966496648,60.0957571339927
464,1436966497399,51.2390372470845
465,1436966498127,54.6875799138061
466,1436966498854,55.0516745755265
467,1436966499591,56.7206520976996
468,1436966500248,62.675730524328
469,1436966500931,53.5205653381914
470,1436966501667,54.6163664356511
471,1436966502395,57.2199748469516
472,1436966503079,52.8521752626217
473,1436966503749,45.4829843051954
474,1436966504435,63.7700347436405
475,1436966505119,46.3198208336779
476,1436966505837,60.3895860745462
477,1436966506556,58.0940367337252
478,1436966507278,45.6737522943545
479,1436966508004,61.8827559583292
480,1436966508726,64.8836825003089
481,1436966509466,57.8287248369835
482,1436966510246,56.7790638431278
483,1436966510961,64.5066949521186
484,1436966511672,60.5241568292454
485,1436966512324,66.7980470906406
486,1436966513088,59.6502048270365
487,1436966513810,61.0475972504318
488,1436966514561,49.3998145949808
489,1436966515213,56.3300566465119
490,1436966515908,45.4445187382935
491,1436966516628,52.1832252083057
492,1436966517362,53.8750259627474
493,1436966518093,54.3132069905324
494,1436966518836,51.3723655115869
495,1436966519571,44.9614903692373
496,1436966520307,47.2737885036375
497,1436966521061,63.8476209390112
498,1436966521791,63.7986036135462
499,1436966522525,56.95312072661
500,1436966523261,57.295902355666
501,1436966523864,53.5636313826359
502,1436966524584,50.057975581184
503,1436966525306,50.7811497949357
504,1436966526019,61.1052344439989
505,1436966526749,49.7599003245229
506,1436966528169,45.3450049881575
507,1436966528867,66.8961315005094
508,1436966529624,58.7756459762161
509,1436966530347,56.8815023473699
510,1436966531078,57.2932987056825
511,1436966531799,53.8465020954076
512,1436966532517,65.6822373693104
513,1436966533245,59.2587495753896
514,1436966533940,51.1769738916925
515,1436966534661,48.1890473880916
516,1436966535391,47.9224689408251
517,1436966536118,53.8627881442367
518,1436966536848,62.3177138031883
519,1436966537545,57.0558110276034
520,1436966538122,46.4399574293562
521,1436966538799,61.7286599559065
522,1436966539503,56.2377963752361
523,1436966540095,39.2810637723435
524,1436966540790,58.6582815991212
525,1436966542454,45.4344368730698
526,1436966543191,46.0598019984735
527,1436966543913,61.0297414861802
528,1436966544629,46.3908553709047
529,1436966545261,61.7619176216432
530,1436966545986,55.7645132478786
531,1436966546724,66.0101495886734
532,1436966547433,57.9998942974846
533,1436966548147,61.0538260941689
534,1436966548838,58.7139642576093
535,1436966549565,54.6330427107577
536,1436966550301,43.7601276636507
537,1436966551029,45.6919666840973
538,1436966551758,55.4333894237856
539,1436966552478,52.3709063999873
540,1436966553200,65.739383442691
541,1436966553940,61.0821682481832
542,1436966554675,61.1294241321391
543,1436966555387,42.6942216463862
544,1436966556099,49.4925177818505
545,1436966556808,63.6694305768784
546,1436966557567,51.8625829577337
547,1436966558294,63.3034277871846
548,1436966559029,48.9923019237032
549,1436966559794,59.7565315892878
550,1436966560459,52.4620733932593
551,1436966561186,66.7028463521382
552,1436966561928,68.6382345652508
553,1436966562662,66.9923447337831
554,1436966563386,66.0581519257026
555,1436966563983,57.0276813213529
556,1436966565456,41.3057946304438
557,1436966566129,59.4360469233297
558,1436966566865,58.1926248714228
559,1436966567587,67.6690981628032
560,1436966568218,52.8065591853899
561,1436966568934,50.4580380644888
562,1436966569676,50.6617052761169
563,1436966570400,51.7821474650864
564,1436966571138,53.2425908501627
565,1436966571839,62.9847580654114
566,1436966572555,62.3946356009305
567,1436966573268,64.4792226092577
568,1436966573999,60.3721115915306
569,1436966574708,53.8752508230868
570,1436966575435,52.4067144868902
571,1436966576191,53.3137868826388
572,1436966576841,55.7072880601378
573,1436966578078,59.3328296292016
574,1436966578699,46.1039978383204
575,1436966579398,66.3984376476713
