id,attr_time,attr_db
1,1436966160909,13.4808358843358
2,1436966161622,14.0064006746303
3,1436966163919,23.4838230686478
4,1436966164656,49.5715922706592
5,1436966165427,50.186963256672
6,1436966166180,48.4515629488816
7,1436966166943,48.012081195167
8,1436966167676,38.5958812360396
9,1436966168396,43.9760528908179
10,1436966169136,40.7587950811294
11,1436966170814,46.4636050349139
12,1436966171553,51.7006925643491
13,1436966172266,44.8993772568784
14,1436966173010,47.6372204940736
15,1436966173744,44.3573464946619
16,1436966174472,43.3197804243614
17,1436966175206,42.5308655588181
18,1436966177291,46.9064735479129
19,1436966178038,46.6532453858159
20,1436966178748,47.18531314596
21,1436966179493,45.1435726814854
22,1436966180208,51.3708431580674
23,1436966180796,58.1484979306658
24,1436966181988,49.6200550400988
25,1436966182695,44.5519058533821
26,1436966183432,44.796499369793
27,1436966184172,42.5117470698293
28,1436966184905,45.1734746036101
29,1436966185694,45.1958575098546
30,1436966186416,44.5438869555478
31,1436966187175,45.582142579371
32,1436966187891,45.1960121162821
33,1436966188622,48.470871744184
34,1436966189362,45.8423828379939
35,1436966190161,47.6268538864063
36,1436966190888,47.7866344394116
37,1436966191629,47.4098160613441
38,1436966192349,46.250593412893
39,1436966193090,45.4383142043835
40,1436966193834,51.6737236013428
41,1436966194552,58.1451220435359
42,1436966195295,57.5973494611763
43,1436966196013,65.8290887006127
44,1436966196750,62.9411507921705
45,1436966197467,53.8932116278349
46,1436966198201,51.6429799643288
47,1436966198919,57.0447738686774
48,1436966199641,59.7281308442681
49,1436966200376,55.0387706663264
50,1436966201170,56.2996894913086
51,1436966201901,55.306612980522
52,1436966202619,52.4784011037759
53,1436966203322,58.3441242743984
54,1436966204007,45.032341786816
55,1436966204727,44.6216743745259
56,1436966205484,44.1498999098551
57,1436966206252,39.4116414085775
58,1436966206976,46.8371448038486
59,1436966207715,47.0612358033514
60,1436966208421,42.9510434960342
61,1436966209181,48.7556623043329
62,1436966209901,50.4956147914958
63,1436966210628,62.7845497032155
64,1436966211342,58.3746794016147
65,1436966212053,43.6539051730766
66,1436966212802,48.0106900346464
67,1436966213545,45.5813179941456
68,1436966214288,54.4123268460758
69,1436966215020,47.3902420630924
70,1436966215822,46.91893917367
71,1436966216560,45.2279080823854
72,1436966217289,47.2018941423053
73,1436966218036,52.8351547838162
74,1436966218771,58.5292443082043
75,1436966219522,60.697397796216
76,1436966220277,51.7377623429642
77,1436966221009,51.3808698317669
78,1436966221751,54.7846382599488
79,1436966222460,60.130313575887
80,1436966223124,44.8304645732738
81,1436966223830,39.4304709279636
82,1436966224461,54.2784192826431
83,1436966225192,53.8684159511023
84,1436966225899,64.6171278852141
85,1436966226629,61.7477819762992
86,1436966227350,60.7997362494104
87,1436966228119,52.5323328310151
88,1436966228820,42.4549077948281
89,1436966229514,55.4247282395354
90,1436966230167,55.1498263988505
91,1436966230973,50.8131141545463
92,1436966231715,55.7862297705496
93,1436966232437,51.5099827577822
94,1436966233188,46.8602769927789
95,1436966233917,49.2289777882794
96,1436966234637,39.3971325225437
97,1436966235359,42.0515190923504
98,1436966236109,45.1995109307573
99,1436966236830,49.366736221817
100,1436966237573,43.416123989643
101,1436966238303,45.4701889500691
102,1436966239025,57.0045623164093
103,1436966239742,43.5403929884728
104,1436966240481,44.292782831213
105,1436966241241,45.1205409882147
106,1436966241986,45.5231603160264
107,1436966242714,45.8188383630587
108,1436966243439,54.9017278650515
109,1436966244206,44.208384309701
110,1436966244945,60.902625393793
111,1436966245657,54.7632106552661
112,1436966246383,51.0652010883713
113,1436966247122,50.1701495640161
114,1436966247856,51.967975346108
115,1436966248591,51.7872979775961
116,1436966249330,55.6816685382666
117,1436966250073,48.3534137023068
118,1436966250786,44.3420571101349
119,1436966251546,41.8149094838174
120,1436966252272,43.5954429422412
121,1436966253021,41.737940529435
122,1436966253779,40.5575032587486
123,1436966254526,40.5946046486048
124,1436966255327,41.3187548675604
125,1436966256047,40.3949008381846
126,1436966256783,40.6849205097464
127,1436966257516,45.985092634196
128,1436966258267,44.1543902144347
129,1436966258991,46.3700750825186
130,1436966259703,46.4406313208512
131,1436966260386,53.6870267653207
132,1436966261071,42.4426750955702
133,1436966261755,58.0798218327812
134,1436966262474,46.522211125261
135,1436966263298,55.4787597992564
136,1436966263992,57.9067294997117
137,1436966264666,55.5173875857243
138,1436966265411,58.0675906113319
139,1436966266178,53.6499834465945
140,1436966266898,53.9243130577114
141,1436966267635,54.3069049392007
142,1436966268366,46.798820871571
143,1436966269132,49.6285779845728
144,1436966269857,50.1003743103583
145,1436966270584,42.1590359461655
146,1436966271295,41.1307051373708
147,1436966272041,41.0972891569774
148,1436966272782,44.9514308713192
149,1436966273519,44.7984801310728
150,1436966274269,48.5292865965973
151,1436966274977,48.9617865459035
152,1436966275699,42.5246858367322
153,1436966276424,56.2174768876749
154,1436966277168,58.5674256293949
155,1436966277888,57.5889415307558
156,1436966278643,57.4359918494024
157,1436966279368,48.2987146273051
158,1436966280131,43.0312915847906
159,1436966280858,47.8292675447476
160,1436966281595,58.3802867337775
161,1436966282345,49.625139763428
162,1436966283072,55.5713415416023
163,1436966283805,51.051588897733
164,1436966284566,48.2970990328677
165,1436966285179,36.3826827950129
166,1436966285827,48.092975045606
167,1436966286518,50.4709351662495
168,1436966287268,48.2103557934755
169,1436966287982,56.7204369781283
170,1436966288730,63.446246696967
171,1436966289463,56.1741081566843
172,1436966290202,49.8757175332939
173,1436966290940,44.3837254239328
174,1436966291674,45.1884555665729
175,1436966292391,44.0668598957326
176,1436966293153,53.9678091404486
177,1436966293865,48.3342928850177
178,1436966294587,61.886243956393
179,1436966295309,56.8873894569832
180,1436966296159,49.7710035367199
181,1436966296873,56.1433042432278
182,1436966297588,45.815516740621
183,1436966298299,61.781471013233
184,1436966299044,48.0657812786672
185,1436966299773,59.6826208339704
186,1436966300517,51.1195783619883
187,1436966301299,51.1187418918917
188,1436966302020,49.18664287848
189,1436966302745,46.6753660297695
190,1436966303461,46.6318710982105
191,1436966304224,45.7244322162286
192,1436966304966,46.2002389597812
193,1436966305704,42.5372626207193
194,1436966306438,40.9587315583757
195,1436966307191,39.4269207095262
196,1436966307924,44.5373205941621
197,1436966308641,45.5036705184056
198,1436966309385,44.3530828986064
199,1436966310133,47.1867311431958
200,1436966310858,48.2005392692407
201,1436966311585,48.3764969809735
202,1436966312296,49.4380958764438
203,1436966313012,55.8459708322601
204,1436966313769,58.5687481131122
205,1436966314567,55.6809060955444
206,1436966315295,52.7384148169683
207,1436966316043,53.6610942222558
208,1436966316708,42.0129662189604
209,1436966317401,54.8683006765442
210,1436966318152,53.1501727603672
211,1436966318896,57.9203331413307
212,1436966319612,54.9032668979329
213,1436966320305,49.317178340758
214,1436966321038,51.5680035381941
215,1436966321770,54.5267722333595
216,1436966322501,45.8381233557478
217,1436966323240,43.6515776348559
218,1436966324019,47.0067965935966
219,1436966324732,38.8481928423642
220,1436966325504,43.4784496258632
221,1436966326247,39.9468125695625
222,1436966326984,45.028292840709
223,1436966327709,45.4490976078053
224,1436966328444,49.6142996761432
225,1436966329194,43.1785002332165
226,1436966329905,58.3889026889665
227,1436966330647,43.813051259011
228,1436966331337,46.6400875227833
229,1436966331966,52.9268504886683
230,1436966332715,53.5336019097017
231,1436966333441,52.466556236009
232,1436966334206,56.5598759380252
233,1436966334920,53.3825133583201
234,1436966335705,42.2938719022069
235,1436966336446,49.8703480298364
236,1436966337196,43.1654653135563
237,1436966337893,45.8789521743362
238,1436966338636,44.1428001158139
239,1436966339395,50.6729253870355
240,1436966340154,44.7036474888567
241,1436966340895,52.1312039295206
242,1436966341621,48.9547452993008
243,1436966342377,46.9371359092567
244,1436966343061,54.5326418305687
245,1436966343786,45.0803439773366
246,1436966344577,41.5118749526046
247,1436966345355,60.9226597116503
248,1436966345988,45.1655806137157
249,1436966346730,58.352965367438
250,1436966347508,49.8068203161724
251,1436966348245,57.6331516266242
252,1436966348959,51.1706439587714
253,1436966349694,57.1240862010975
254,1436966350419,49.5792168928807
255,1436966351182,53.4879869094183
256,1436966351865,50.2158379595234
257,1436966352580,46.6045903185677
258,1436966353332,39.7822840851827
259,1436966354067,44.6540665082186
260,1436966354869,44.7570722826518
261,1436966355524,41.4072672000806
262,1436966356229,56.0939458810695
263,1436966356972,57.7848987284178
264,1436966357701,56.8774533266583
265,1436966358421,50.0790305925009
266,1436966359186,52.3433542796578
267,1436966359918,58.0754912716565
268,1436966360682,60.2889285803312
269,1436966361359,52.7521372600905
270,1436966362023,57.2660549883556
271,1436966362754,59.1698424963999
272,1436966363490,53.6098597699297
273,1436966364235,58.8696651382196
274,1436966364963,58.5408105153911
275,1436966365691,50.1858188162464
276,1436966366357,48.4988487238553
277,1436966367615,51.4418091393884
278,1436966368301,48.7383053014983
279,1436966369025,41.2083908047326
280,1436966369769,50.6661319865593
281,1436966370498,55.1492986218135
282,1436966371236,58.4790967425983
283,1436966371955,57.85718364124
284,1436966372687,58.3308263679142
285,1436966373418,53.9513000292993
286,1436966374187,56.6363627348678
287,1436966374900,50.3042000509198
288,1436966375642,53.9031068814356
289,1436966376383,57.5681937815194
290,1436966377143,57.2609344563356
291,1436966377804,44.2881193492966
292,1436966379368,49.562777447354
293,1436966380137,48.7708808831135
294,1436966380854,41.5263231615268
295,1436966381559,43.5189186460902
296,1436966382284,47.4679384996739
297,1436966382995,50.0574932747518
298,1436966383651,58.5542544038334
299,1436966384361,42.3996552106476
300,1436966385119,55.114564335734
301,1436966385847,43.1636006473906
302,1436966386571,45.8219256640216
303,1436966387294,46.4299542978828
304,1436966388016,61.779688625949
305,1436966388672,53.3148421075214
306,1436966389364,52.5742413177874
307,1436966390108,52.0930429716135
308,1436966390749,42.0759517432783
309,1436966391414,47.9748758911317
310,1436966393313,56.3490211681893
311,1436966394076,54.8057556116977
312,1436966394803,49.994763148512
313,1436966395539,53.5356680530631
314,1436966396277,50.8798145828833
315,1436966397056,45.9647508317198
316,1436966397793,44.4770853160681
317,1436966398536,46.2994703447217
318,1436966399277,40.3881010198502
319,1436966400014,39.2669574774992
320,1436966400790,38.3204354917084
321,1436966402967,57.0269958946265
322,1436966403645,51.8221510354445
323,1436966404343,52.3636575640792
324,1436966405074,43.7549805023052
325,1436966405786,49.1227257906379
326,1436966406397,51.4127911611289
327,1436966407092,55.9479807570289
328,1436966407811,44.8454781253242
329,1436966408535,45.3906068114782
330,1436966409296,42.130712301247
331,1436966410067,46.0858264033798
332,1436966410784,42.2308214802137
333,1436966411544,50.6831008394215
334,1436966412284,45.610354612188
335,1436966413004,50.0983000270745
336,1436966413732,47.9822210113575
337,1436966414491,49.5499949769374
338,1436966415237,52.5451568276451
339,1436966415966,47.2454951940286
340,1436966416691,58.7225290279856
341,1436966417411,59.3575333679837
342,1436966418149,47.6497644828587
343,1436966418896,47.8368634329215
344,1436966419632,54.4517449553578
345,1436966420360,51.8624861356092
346,1436966421103,50.700984391334
347,1436966421823,61.5520100811963
348,1436966422569,54.4670513593823
349,1436966423282,51.8556156399534
350,1436966424019,57.2313697123209
351,1436966424743,49.8312029347282
352,1436966425521,40.9085950180527
353,1436966426250,52.7400743618267
354,1436966426888,45.2950055749099
355,1436966427581,47.8382447748891
356,1436966428257,58.388530551635
357,1436966428988,59.7708932651522
358,1436966429714,55.6381126601909
359,1436966430436,49.2396706609524
360,1436966431206,41.6583708728579
361,1436966431946,47.8728032494036
362,1436966432774,41.877391394952
363,1436966433509,45.3879592691117
364,1436966434165,52.086744557835
365,1436966434888,59.6506857549925
366,1436966435632,52.6350286169675
367,1436966436370,58.2969965227759
368,1436966437089,48.3911001482534
369,1436966437793,53.1311973874239
370,1436966438388,45.0509202453065
371,1436966439155,52.3537318265327
372,1436966439891,43.4886352856117
373,1436966440599,58.8624959053453
374,1436966441324,58.575811413455
375,1436966442054,44.8885011972161
376,1436966442813,45.437773133955
377,1436966443552,47.043316881616
378,1436966444337,44.0174394253183
379,1436966445076,53.8758525579902
380,1436966445816,58.4539556418748
381,1436966446514,61.1410773501495
382,1436966447178,50.7681950812635
383,1436966447896,45.1819399411112
384,1436966448627,43.685931629497
385,1436966449360,44.6646198202525
386,1436966450081,46.0848804219053
387,1436966450797,50.3374249984849
388,1436966451523,44.3692970372449
389,1436966452264,58.2294231336529
390,1436966453026,48.29786580898
391,1436966453759,56.1198992558302
392,1436966454486,52.2172217813781
393,1436966455246,53.2027074004874
394,1436966455983,57.5912184596161
395,1436966456724,62.4565384316439
396,1436966457443,58.2027311305984
397,1436966458119,50.1951504149078
398,1436966458862,43.1010527466235
399,1436966459582,56.3765126754942
400,1436966460331,45.8482768419124
401,1436966461099,50.8077548161502
402,1436966461808,51.9756292410903
403,1436966462552,61.0805830076584
404,1436966463272,59.4592813294494
405,1436966464009,62.6725638630593
406,1436966464739,60.7666998466201
407,1436966465457,56.6276500991217
408,1436966466209,54.4185712048018
409,1436966466979,60.1520572660266
410,1436966467622,48.8938857691472
411,1436966468305,43.5115469375064
412,1436966469035,47.2975297902643
413,1436966469751,48.1410964420012
414,1436966470468,55.3076824531407
415,1436966471242,52.7003704847025
416,1436966471989,51.6783938473757
417,1436966472688,51.2491683213157
418,1436966473393,47.3466754309374
419,1436966474037,55.9895135445769
420,1436966474720,46.6290708866394
421,1436966475420,52.438217453739
422,1436966476120,48.7562980887205
423,1436966476824,59.0148256988375
424,1436966477554,48.5669420186226
425,1436966478363,50.4524942895632
426,1436966479078,54.3390976667604
427,1436966479800,49.19612235856
428,1436966480545,44.9004552379367
429,1436966481270,49.5072458385032
430,1436966481933,50.1025602473183
431,1436966482671,48.6823923176275
432,1436966483387,49.2176908052068
433,1436966484074,57.5732972097033
434,1436966484794,55.6129399726169
435,1436966485543,48.6718944957684
436,1436966486276,41.33879200234
437,1436966487009,51.5676256374988
438,1436966487686,50.5848229536071
439,1436966488327,49.6972720402495
440,1436966489049,54.7174769440238
441,1436966489778,47.3302289332487
442,1436966490502,41.6798051748887
443,1436966491271,49.4504803461164
444,1436966492007,43.5208331446769
445,1436966492742,47.4228941510584
446,1436966493402,40.6024178514518
447,1436966493975,55.5991823387996
448,1436966494617,45.8382641760046
449,1436966495300,58.1227849407002
450,1436966496042,56.4904973838192
451,1436966496794,58.6996997052118
452,1436966497519,50.6961635625086
453,1436966498328,58.5737717804801
454,1436966499082,56.546365734371
455,1436966499751,51.8466965032931
456,1436966500472,57.4335118737108
457,1436966501198,54.0021552593797
458,1436966501957,47.0670523688216
459,1436966502701,49.5965129225037
460,1436966503439,43.5396180083383
461,1436966504157,38.575277252814
462,1436966504862,47.8711215547093
463,1436966505613,53.2736737897017
464,1436966506340,44.5233292954236
465,1436966507114,55.012106206816
466,1436966507793,47.3739225819016
467,1436966508513,62.0125400742494
468,1436966509248,51.8612061952171
469,1436966510005,58.7345318813602
470,1436966510796,44.6960114358492
471,1436966511479,44.0632673608016
472,1436966512212,45.5144916065291
473,1436966512946,45.3041076990901
474,1436966513683,61.1188132356639
475,1436966514413,54.7412749552793
476,1436966515102,53.0383075292966
477,1436966515769,40.4069205991018
478,1436966516511,44.2951357842378
479,1436966517259,44.0853388537196
480,1436966518006,48.1585955007124
481,1436966518722,50.4511371037117
482,1436966519475,46.2776170269098
483,1436966520242,50.415263151492
484,1436966520970,45.7196079110857
485,1436966521684,49.4359252194813
486,1436966522377,58.9498645336268
487,1436966523059,44.9137596960511
488,1436966523798,46.729153786527
489,1436966524522,58.5947524422017
490,1436966525249,46.4101575500878
491,1436966525896,58.8630521516901
492,1436966526612,59.939179366679
493,1436966527325,47.149587359243
494,1436966527997,39.1641942783858
495,1436966528674,49.1963830374794
496,1436966529382,52.0221845087796
497,1436966530154,47.7444056569167
498,1436966530860,54.7440042964546
499,1436966531546,55.8692431658696
500,1436966532222,54.8654582594316
501,1436966532909,57.79371077915
502,1436966533630,52.207923176045
503,1436966534370,48.3904004016257
504,1436966535118,52.3934717939695
505,1436966535826,46.0982112734059
506,1436966536524,40.1938006670369
507,1436966537208,43.5973747744968
508,1436966537946,55.208280147848
509,1436966538686,50.3015122408123
510,1436966539411,51.7289192781327
511,1436966540175,48.3790382407218
512,1436966540907,48.2081352765772
513,1436966541604,60.780068778201
514,1436966542387,57.1609087501583
515,1436966543100,58.8753948933593
516,1436966543844,59.4250480557148
517,1436966544572,45.4083386140336
518,1436966545303,47.6418854254343
519,1436966546018,44.239711452015
520,1436966546687,50.4815422097737
521,1436966547355,53.3444318738387
522,1436966548056,46.5889829513934
523,1436966548776,48.8690638502328
524,1436966549521,46.7735811814719
525,1436966550273,46.0512570594881
526,1436966550995,42.5432415585537
527,1436966551743,44.5960311447603
528,1436966552487,42.9717241849077
529,1436966553254,38.2553133318067
530,1436966553996,42.5221113643825
531,1436966554726,46.3582479808564
532,1436966555455,57.4597609226975
533,1436966556201,43.95117990966
534,1436966556927,55.3106058376003
535,1436966557810,41.1238400711108
536,1436966558549,49.2822639965313
537,1436966559284,52.7097193131482
538,1436966560011,50.9255550592145
539,1436966560751,53.656706819447
540,1436966561489,50.9122482169342
541,1436966562296,53.8614727352305
542,1436966563007,53.6465881488342
543,1436966563650,45.0801129941977
544,1436966564379,60.6184046278305
545,1436966565166,56.5460580802602
546,1436966565893,57.4903774055656
547,1436966566603,46.9389651184877
548,1436966567319,44.4561513710013
549,1436966568045,45.3412613830731
550,1436966568734,56.5902677681782
551,1436966569465,59.7750863667561
552,1436966570217,56.2465517436421
553,1436966572199,40.4016595737583
554,1436966572912,48.7085745500866
555,1436966573654,45.7961631158515
556,1436966574384,48.7225040870498
557,1436966575139,51.0933275817835
558,1436966575870,53.8561649794641
559,1436966576604,60.6239536123723
560,1436966577339,55.8071512747253
561,1436966578080,57.8227898176925
562,1436966578813,50.0683586924975
563,1436966579554,45.3590723888495
564,1436966580281,56.3005562427183
565,1436966581011,51.1542307711556
566,1436966581746,58.9455139004219
567,1436966582469,54.121674543867
568,1436966583231,56.4518357164153
569,1436966583932,54.7883209004219
570,1436966584660,53.1778433807922
571,1436966585374,52.603690231259
572,1436966587342,61.5010110115978
573,1436966588032,58.1423164015299
574,1436966588638,56.1764911921918
575,1436966589321,57.9264311357427
576,1436966590085,53.967794254446
