id,attr_time,attr_db
1,1435994344173,11.6087604153208
2,1435994344791,17.1108576245083
3,1435994345410,10.1796988553529
4,1435994346079,8.05686449912188
5,1435994346724,9.69909025241816
6,1435994347396,15.8695944075096
7,1435994348068,18.5948608335921
8,1435994348752,16.7537666988462
9,1435994349432,26.1240982673998
10,1435994350111,18.2890772203095
11,1435994350794,33.6224454993554
12,1435994351436,12.7401486063338
13,1435994352074,11.4000933297377
14,1435994352687,14.7196261949428
15,1435994353357,7.27297035054662
16,1435994354034,23.3572739339694
17,1435994354677,22.0867295194046
18,1435994355318,43.264587032949
19,1435994355985,55.3931706403179
20,1435994356650,34.5228132147717
21,1435994357302,30.493630210224
22,1435994357950,27.2853912595842
23,1435994358622,27.4383906848423
24,1435994359297,34.6937776646989
25,1435994359967,56.4556897555598
26,1435994360621,42.653479878439
27,1435994361293,27.8847993006662
28,1435994361907,34.4538604153621
29,1435994363077,32.741542568843
30,1435994363694,47.6456166100612
31,1435994364384,49.3488714587069
32,1435994365077,37.6385305748813
33,1435994365703,43.8081650642706
34,1435994366373,13.5871516503133
35,1435994367014,55.3692162497495
36,1435994367671,59.4866920818426
37,1435994368331,17.8637142963423
38,1435994368979,23.3364502143976
39,1435994369630,30.3229911411898
40,1435994370336,65.2877700970178
41,1435994370968,39.3341674712153
42,1435994371645,50.6991568379961
43,1435994372274,55.6622316832671
44,1435994372854,29.0687274623767
45,1435994373860,54.3895772706842
46,1435994374459,62.7380926312894
47,1435994375105,34.9185227025294
48,1435994375767,37.6254697308173
49,1435994376407,34.8968092032433
50,1435994377070,46.9484270395902
51,1435994377737,41.3065795949121
52,1435994378398,16.7292553639651
53,1435994379049,9.35456183035706
54,1435994379702,21.0128710708577
55,1435994380399,11.2432210171233
56,1435994381062,8.73444614755528
57,1435994381738,31.6115424223818
58,1435994382366,11.6794269964905
59,1435994382984,11.0002740993167
60,1435994383598,34.7479701909412
61,1435994384265,65.8610419790421
62,1435994384922,60.6839639077808
63,1435994385549,64.5509248204484
64,1435994386148,46.0268963302035
65,1435994386824,60.3103763508505
66,1435994387446,55.0198481803037
67,1435994388523,35.3599953602196
68,1435994389207,36.9055808390357
69,1435994389874,18.2856321700281
70,1435994390553,10.0267039929495
71,1435994391228,21.1260437933179
72,1435994391896,19.9357565042309
73,1435994392509,16.8132327871224
74,1435994393116,16.9368070453544
75,1435994393778,18.62438790728
76,1435994394458,12.0675757124832
77,1435994395093,33.3599118108884
78,1435994395697,50.7890403418629
79,1435994396259,18.3781600592373
80,1435994397244,54.6153026063774
81,1435994397914,30.9392378181724
82,1435994398585,36.4662675791948
83,1435994399243,38.5898412056214
84,1435994399907,27.7689025451992
85,1435994400558,41.1722570360926
86,1435994401240,34.0927051585315
87,1435994401902,16.7800530488916
88,1435994402579,34.6585112783638
89,1435994403235,30.2004820823288
90,1435994403899,36.408101649805
91,1435994404568,39.5205447104787
92,1435994405207,30.6219734920064
93,1435994405922,29.9150522666454
94,1435994406580,25.7414260837898
95,1435994407215,10.5902191641412
96,1435994407802,20.0928234554833
97,1435994408405,19.6382869651931
98,1435994409040,26.1125768419937
99,1435994409721,23.2710981967829
100,1435994410371,27.4791842585891
101,1435994411045,10.9375350426511
102,1435994411713,29.6848347345562
103,1435994412374,23.1773770910749
104,1435994413029,30.1629411629707
105,1435994413670,15.0027288901944
106,1435994414344,20.0088320289579
107,1435994414992,30.7892539878587
108,1435994415674,38.3204597642203
109,1435994416332,31.753527103498
110,1435994416976,23.3362723273778
111,1435994417650,18.3032590275578
112,1435994418325,19.1955794674361
113,1435994418982,20.4389630438184
114,1435994419621,17.2713215458334
115,1435994420283,57.1430989940808
116,1435994420949,24.9854583508293
117,1435994421623,67.7685470584801
118,1435994422311,26.3571202126166
119,1435994422956,22.5436816095414
120,1435994423614,27.2112706972615
121,1435994424291,27.2742725549882
122,1435994424951,27.5628663126176
123,1435994425567,30.32576238277
124,1435994426194,36.1613962834281
125,1435994426861,30.6574313978467
126,1435994427488,13.331002934769
127,1435994428133,28.3631562208926
128,1435994428779,63.9738761136069
129,1435994429446,43.006815103486
130,1435994430097,64.6954379014297
131,1435994430759,60.982306840622
132,1435994431395,24.3164504821419
133,1435994432040,32.364124518216
134,1435994432717,11.0821177320799
135,1435994433371,39.9520460077658
136,1435994434004,48.2647863145049
137,1435994434640,64.0021583982477
138,1435994435312,45.8309191510535
139,1435994435968,32.6292208465713
140,1435994436636,28.0614285126345
141,1435994437310,13.5022033972963
142,1435994437963,26.5194186331166
143,1435994438616,39.9231160125016
144,1435994439249,26.4750888013927
145,1435994439840,10.8189260853374
146,1435994440478,27.5384515809128
147,1435994441076,36.1882246311294
148,1435994441703,47.1576697499202
149,1435994442379,66.3560138233444
150,1435994443058,47.0796179688471
151,1435994443711,60.6499000009425
152,1435994444353,13.1032472347509
153,1435994444995,61.5190838994331
154,1435994445624,68.6059339835334
155,1435994446262,56.5213515645918
156,1435994446891,25.3542283183219
157,1435994447541,24.282346844184
158,1435994448160,61.3770602385516
159,1435994448803,43.9400078527222
160,1435994449463,33.0373133314624
161,1435994450130,16.210476596676
162,1435994450830,13.84647618988
163,1435994451489,11.0951321763631
164,1435994452154,10.5320529975247
165,1435994452782,30.3548378977391
166,1435994453443,18.0595088748395
167,1435994454109,40.5171571590532
168,1435994454764,36.3786492513661
169,1435994455408,27.5432736658423
170,1435994456090,20.7782021721754
171,1435994456778,22.2955074206685
172,1435994457419,33.2080290928175
173,1435994458085,37.2527627883549
174,1435994458735,23.0848536660183
175,1435994459354,29.261854205469
176,1435994459968,32.8818892162935
177,1435994460629,36.4515850960242
178,1435994461329,13.144065267179
179,1435994461987,30.5291218237536
180,1435994462668,10.9513776210612
181,1435994463338,14.8071144790954
182,1435994464006,28.4151088886638
183,1435994464676,45.7962739279052
184,1435994465357,68.3997499151183
185,1435994465987,39.2851123345821
186,1435994466603,18.6304828258239
187,1435994467272,13.4258967146509
188,1435994467955,15.1810453226427
189,1435994468551,22.8012955054473
190,1435994469186,12.5934931615327
191,1435994469832,25.5711679166546
192,1435994470528,35.5257315967818
193,1435994471198,32.4980855689733
194,1435994471857,16.3461582382924
195,1435994472519,42.5777496563451
196,1435994473163,31.5824540718106
197,1435994473839,32.8221046913694
198,1435994474499,18.9506307449704
199,1435994475163,14.0596522003248
200,1435994475816,12.6736004476453
201,1435994476473,11.8925749388307
202,1435994477137,42.8584775918564
203,1435994477785,23.6542607701281
204,1435994478445,30.4147661521071
205,1435994479113,9.3433314896859
206,1435994479789,23.3020177114362
207,1435994480448,34.7447749651411
208,1435994481075,29.3235790292609
209,1435994481730,26.5530794707874
210,1435994482337,31.7614069696732
211,1435994482984,55.497315092227
212,1435994483646,66.6537887671919
213,1435994484332,57.3780235738902
214,1435994484956,48.9479709321343
215,1435994485580,26.476632385919
216,1435994486172,38.1164035536823
217,1435994486831,12.1621810313875
218,1435994487503,29.5938394418583
219,1435994488148,28.6036957903043
220,1435994488740,18.8051303847844
221,1435994489400,22.4086710363579
222,1435994490054,20.558097273226
223,1435994490646,24.7445818229967
224,1435994491260,34.882620514884
225,1435994491909,38.6695579054846
226,1435994492535,18.6537213006726
227,1435994493140,33.7630445279562
228,1435994493804,36.3100630512422
229,1435994494452,14.7979477029505
230,1435994495095,28.3050750914884
231,1435994495715,24.9577245687365
232,1435994496327,17.6536842610261
233,1435994496991,35.6807139773011
234,1435994497666,13.782882935724
235,1435994498284,59.4792270302413
236,1435994498952,59.9658109584453
237,1435994499624,14.9411512731522
238,1435994500222,14.9704462404841
239,1435994500847,16.4998653717001
240,1435994501507,26.5553953357596
241,1435994502188,25.2159088957867
242,1435994502862,38.6576448332623
243,1435994503519,40.9352215995805
244,1435994504184,16.3057367183424
245,1435994504861,7.89904916462483
246,1435994505479,8.45061696654787
247,1435994506077,16.4912091984568
248,1435994506744,10.4388907534595
249,1435994507433,10.3586577498709
250,1435994508074,26.5643441459014
251,1435994508746,17.2929624956546
252,1435994509358,27.0070420471232
253,1435994509939,33.2155843720273
254,1435994510604,23.895117292409
255,1435994511245,55.964595097062
256,1435994511862,20.4638484777613
257,1435994512486,61.487715263973
258,1435994513158,41.2060445588925
259,1435994513797,43.874183221814
260,1435994514451,26.1752619361507
261,1435994515105,52.8362052825618
262,1435994515756,58.0332223184839
263,1435994516405,22.2337682224401
264,1435994517038,29.9860355420307
265,1435994517728,66.9418385781721
266,1435994518398,61.8505229793073
267,1435994519015,21.8593185764814
268,1435994519664,29.6030231573343
269,1435994520284,41.7447111100404
270,1435994520911,64.903072198576
271,1435994521589,32.9973579123943
272,1435994522252,36.6942873774352
273,1435994522907,12.2825267690548
274,1435994523583,45.6292952643449
275,1435994524258,11.6205846069001
276,1435994524911,45.7351679651697
277,1435994525568,34.0553091193288
278,1435994526210,35.122472159049
279,1435994526849,18.7176278497664
280,1435994527463,32.942490355342
281,1435994528142,23.7695548380027
282,1435994528781,30.5801187208081
283,1435994529424,51.0322659177067
284,1435994530045,54.8593272587058
285,1435994530641,55.7648517753689
286,1435994531244,56.3951427613071
287,1435994531890,30.0345338687605
288,1435994532560,22.2541860007643
289,1435994533238,12.5995232804975
290,1435994533912,18.1150524112065
291,1435994534582,22.8026462317984
292,1435994535255,60.0988990104148
293,1435994535928,56.4054830416716
294,1435994536589,19.3293900146158
295,1435994537257,57.1111128914208
296,1435994537900,58.5387170058546
297,1435994538555,11.9824853251024
298,1435994539218,21.4325362840964
299,1435994539792,53.4325708926221
300,1435994540425,40.2422471512887
301,1435994541007,11.3793856526714
302,1435994541664,15.8863989368717
303,1435994542332,59.9566811226401
304,1435994542968,43.310108874252
305,1435994543608,24.5677885973309
306,1435994544282,26.7094594084257
307,1435994544929,13.0590389808248
308,1435994545584,34.3396418581246
309,1435994546240,39.8194137946015
310,1435994546894,28.7206756161342
311,1435994547485,35.5297351734724
312,1435994548158,27.3403422924377
313,1435994548804,36.2623344494088
314,1435994549443,35.8191133758695
315,1435994550054,59.2305384219774
316,1435994550689,43.3556779481324
317,1435994551307,60.8906239208639
318,1435994551971,49.5695549585683
319,1435994552626,37.8697424293844
320,1435994553255,23.4124296711008
321,1435994553930,27.6054982869537
322,1435994554572,20.1002748352389
323,1435994555221,41.7393289774763
324,1435994555893,9.83486196035913
325,1435994556539,12.4069275793218
326,1435994557108,21.4316490966831
327,1435994557784,35.9193254324555
328,1435994558456,32.979268764956
329,1435994559048,37.5752759039578
330,1435994559589,25.5535402640044
331,1435994560127,21.641728414962
332,1435994560699,19.0176094264263
333,1435994561275,33.6147268559008
334,1435994561979,13.3637799156946
335,1435994562658,21.971822563074
336,1435994563388,11.6509486442969
337,1435994564121,21.4430987280062
338,1435994564809,51.9200085139721
339,1435994565448,38.5105782403527
340,1435994566165,44.0184443527748
341,1435994568066,50.6861806171716
342,1435994568791,38.4837056140612
343,1435994569482,40.0446318913263
344,1435994570205,31.7497106573266
345,1435994570930,42.325103291764
346,1435994571661,61.402368756034
347,1435994572449,27.5942006620459
348,1435994573181,37.683017033155
349,1435994573838,29.1146947551749
350,1435994574578,36.6094250882207
351,1435994575264,47.2326061191697
352,1435994575998,10.9417441469926
353,1435994576715,25.5186703037731
354,1435994577503,18.748987005574
355,1435994578230,11.9614602737689
356,1435994578950,17.7243550641528
357,1435994579677,12.9233129575395
358,1435994580343,9.52594215216654
359,1435994580916,15.7802554929725
360,1435994582052,23.0551962071099
361,1435994582730,19.6643417661564
362,1435994583472,31.48272053012
363,1435994584200,50.1252510719904
364,1435994584917,48.747601083345
365,1435994585649,52.5063233352947
366,1435994586378,33.4616425427911
367,1435994587110,59.3072358445649
368,1435994587832,43.5009487725954
369,1435994588509,57.9996390885244
370,1435994589198,41.6872089738635
371,1435994589923,47.1569309494368
372,1435994590677,28.7391404703507
373,1435994591459,15.9363728511255
374,1435994592054,48.4971973102029
375,1435994592726,56.1730319329671
376,1435994593444,21.9202579479232
377,1435994594183,36.3131753078799
378,1435994594907,42.2994168391434
379,1435994595619,38.9072623925235
380,1435994596328,36.2097165489581
381,1435994597060,42.0397754189511
382,1435994597784,37.8998158312153
383,1435994598925,29.8344836685177
384,1435994599549,35.3180560491068
385,1435994600176,37.4715863712618
386,1435994600834,37.4618512047769
387,1435994601565,61.9209914176719
388,1435994602272,35.7236892570708
389,1435994602950,36.3181040649637
390,1435994603610,35.0769579314743
391,1435994605127,55.4429231406046
392,1435994605806,60.9269139406708
393,1435994606509,27.581656965141
394,1435994607217,49.0870240286925
395,1435994607944,58.1051198779284
396,1435994608688,37.4698925584032
397,1435994609411,45.47710769005
398,1435994610115,46.8186181955785
399,1435994610845,30.9773510237238
400,1435994611584,49.1416451879236
401,1435994612290,39.6886118794003
402,1435994612954,54.9498059942004
403,1435994613719,52.197096884731
404,1435994614426,55.9221739507446
405,1435994615163,56.5254682220156
406,1435994615898,50.368521775134
407,1435994616629,52.0929277113573
408,1435994618367,37.9919598714893
409,1435994619087,37.8450073779387
410,1435994619825,31.7082042057459
411,1435994620554,22.4841679983602
412,1435994621353,32.8878654998477
413,1435994622008,30.0609902795497
414,1435994622628,44.9047524626153
415,1435994623330,46.3213262823503
416,1435994624099,26.0877758371194
417,1435994624830,32.9391139248935
418,1435994625547,28.8443513011615
419,1435994626269,21.2723174204096
420,1435994626994,26.6150090750995
421,1435994627772,40.7772206857133
422,1435994628497,34.9681885430951
423,1435994629225,50.2140313685241
424,1435994629966,34.8479419308522
425,1435994630704,30.3366149485656
426,1435994631437,51.5270453590896
427,1435994632165,60.9201839726849
428,1435994632864,57.5681923082627
429,1435994633508,53.8629822767969
430,1435994634228,24.9616124674794
431,1435994634939,63.2289516507092
432,1435994635657,52.9356280797105
433,1435994636348,59.6436744048144
434,1435994637004,23.8023479784601
435,1435994637721,25.7202347925533
436,1435994638424,60.9260712824986
437,1435994639150,46.5373250172003
438,1435994639883,48.6084698559142
439,1435994640615,23.2920271742537
440,1435994641341,42.8993782233999
441,1435994642018,23.0179081783354
442,1435994642715,31.887259016106
443,1435994643372,58.3820450375046
444,1435994644090,53.4459111576471
445,1435994644808,21.7426327711024
446,1435994645539,30.7214054924965
447,1435994646256,35.0556693444593
448,1435994647000,43.3611317016728
449,1435994647791,33.6290778801589
450,1435994648510,16.8860736545771
451,1435994649245,44.9852192370207
452,1435994649990,23.0203821057058
453,1435994650745,19.2988215614339
454,1435994651530,18.9248798564427
455,1435994652259,24.3969750312436
456,1435994652992,42.0318328388619
457,1435994653731,17.4617148347694
458,1435994654471,14.5496933443039
459,1435994655166,26.1494940890441
460,1435994655860,30.2783641023634
461,1435994656576,29.6713162825308
462,1435994657285,15.736506590275
463,1435994657997,12.1792985145442
464,1435994658719,13.3042131074161
465,1435994659404,13.738236878408
466,1435994660119,45.1111133521443
467,1435994660857,56.597191779475
468,1435994661578,30.4293079540805
469,1435994662224,15.233105595725
470,1435994662930,16.0349772134087
471,1435994663667,18.6225914254861
472,1435994664393,17.6864808328622
473,1435994665113,59.1715944291659
474,1435994665785,47.8915678359106
475,1435994666460,32.5102121661711
476,1435994667147,44.7905361011203
477,1435994667852,22.927419761895
478,1435994668557,50.1984833300494
479,1435994669296,48.6774256418741
480,1435994670018,10.7884745444278
481,1435994670750,19.8208356317948
482,1435994671472,9.39854932554799
483,1435994672246,16.8104548136321
484,1435994672984,21.8435278262631
485,1435994673680,16.3186359151429
486,1435994674500,31.8659577738875
487,1435994675219,13.9940098616782
488,1435994675942,32.1200899367911
489,1435994676671,39.1005167778597
490,1435994677466,24.9451127715317
491,1435994678172,32.7772660409191
492,1435994678892,65.7980361806484
493,1435994679620,42.2955110484043
494,1435994680331,12.909863909146
495,1435994681113,15.3506530021479
496,1435994681912,57.1336773286642
497,1435994682521,18.179299963418
498,1435994683182,21.6113400563377
499,1435994683869,57.5176237633864
500,1435994684604,16.7471786222339
501,1435994685324,36.0184201895495
502,1435994686048,17.2130469744263
503,1435994686759,31.6406887868904
504,1435994687514,20.3661640736737
505,1435994688186,20.9568736673144
506,1435994688905,15.8408297698063
507,1435994689609,13.4264648573859
508,1435994690349,10.9016723668822
509,1435994691093,13.7623551907631
510,1435994691815,8.11874934439946
511,1435994692507,13.3274026711202
512,1435994693251,16.918909088771
513,1435994693928,10.2123058807703
514,1435994694639,21.474072923729
515,1435994695380,46.2474002050567
516,1435994696100,25.3520221359279
517,1435994696801,10.005483648357
518,1435994697551,31.910497636624
519,1435994698230,19.1583652885808
520,1435994698965,57.8107126388354
521,1435994699664,57.3893865292789
522,1435994700407,58.7285491580213
523,1435994701139,53.6624948352869
524,1435994701880,35.0565641950298
525,1435994702537,14.2862887092418
526,1435994703271,13.1071201261482
527,1435994703981,24.7007105269087
528,1435994704700,27.6690801584002
529,1435994705435,25.9708843295612
530,1435994706170,36.1120589889334
531,1435994706907,14.5854817610497
532,1435994707636,13.8332564730948
533,1435994708308,54.1059143664051
534,1435994708966,45.3341554496904
535,1435994709697,54.5014382731638
536,1435994710414,52.7894045110382
537,1435994711163,26.8498218825765
538,1435994711892,15.6322654385228
539,1435994712584,27.4183091062736
540,1435994713316,9.705047222877
541,1435994714049,10.2718114795579
542,1435994714772,9.13580766612431
543,1435994715499,8.8850736236927
544,1435994716243,25.2428946746915
545,1435994717041,17.8324122268176
546,1435994717778,14.0235994945142
547,1435994718502,20.9429176414459
548,1435994719227,6.58677939513809
549,1435994719955,21.5297525171418
550,1435994720681,18.0026181276036
551,1435994721389,18.5921674756783
552,1435994722049,19.9181058623696
553,1435994722773,31.1830840107945
554,1435994723458,14.902506648387
555,1435994724182,14.5486577886294
556,1435994724917,38.4215579281599
557,1435994725654,13.3366268460453
558,1435994726464,6.1675160713963
559,1435994727210,9.53634544024164
560,1435994727898,28.9448732457228
561,1435994728549,28.2444694678158
562,1435994729266,26.3261482940683
563,1435994730015,31.8862516575924
564,1435994730752,30.6387474495691
565,1435994731530,29.5442452681412
566,1435994732248,24.2661465919901
567,1435994732933,15.2611396909746
568,1435994733665,9.81899391892171
569,1435994734423,13.8445057588928
570,1435994735158,24.2207670864235
571,1435994735883,12.7941955763246
572,1435994736623,8.7670704579756
573,1435994737359,12.1629432952876
574,1435994738075,20.8191499607172
575,1435994738792,10.2809481808634
