id,attr_time,attr_db
1,1435994343843,20.0271436550697
2,1435994344332,11.5742810630564
3,1435994345872,14.7110957279034
4,1435994346258,13.2560902989728
5,1435994346702,12.0912123296218
6,1435994347169,19.6950875166937
7,1435994347650,34.3432056867547
8,1435994348130,27.0483101086841
9,1435994348586,22.5763071426596
10,1435994349078,22.9164021304009
11,1435994349572,43.9230891973391
12,1435994350049,19.1935522971848
13,1435994350522,14.3908305948045
14,1435994351012,38.0462259725878
15,1435994351496,19.42250554888
16,1435994352008,14.2803209682417
17,1435994352439,17.3441650859563
18,1435994352871,13.43553374169
19,1435994353371,11.7265730380939
20,1435994353860,36.5630089127828
21,1435994354372,42.618246539402
22,1435994354871,27.0697219838576
23,1435994355381,41.3281232328406
24,1435994355866,21.1249033921688
25,1435994356353,24.5125815573155
26,1435994356819,15.9093262570785
27,1435994357280,23.5344575123447
28,1435994357691,26.9431890856583
29,1435994358121,17.3218316188822
30,1435994358597,14.3720091426028
31,1435994359071,26.0393998404375
32,1435994359557,25.3201605992891
33,1435994360046,69.4009327521455
34,1435994360531,56.8848282275834
35,1435994361020,20.1261191518445
36,1435994361517,30.7567973641983
37,1435994361994,27.8242191361408
38,1435994362479,36.1445669591407
39,1435994362944,18.0839704831855
40,1435994363470,22.3932171063156
41,1435994363928,18.6367421138578
42,1435994364425,26.9727521343564
43,1435994364917,17.0248266698734
44,1435994365404,68.1828891030959
45,1435994365914,17.4939581244963
46,1435994366278,12.3911810973691
47,1435994366713,18.7069536867303
48,1435994367172,64.5798254903453
49,1435994367584,64.7001382683511
50,1435994368008,15.7225339764593
51,1435994368447,18.353536987302
52,1435994368986,16.0003195616728
53,1435994369448,63.5946776438645
54,1435994369912,56.8323936077461
55,1435994370413,69.3552709985765
56,1435994370895,66.4516990547892
57,1435994371379,69.9185152334326
58,1435994371887,64.746391700499
59,1435994372376,61.3554793096502
60,1435994372902,22.7511685123664
61,1435994373388,23.5911180864318
62,1435994373915,32.7213368701909
63,1435994374383,58.3683691396756
64,1435994374870,25.1387277398262
65,1435994375373,16.8076398710638
66,1435994375929,24.3990840594042
67,1435994376419,35.1787664356501
68,1435994376930,32.9239187498148
69,1435994377314,29.2824235500242
70,1435994377740,18.1001684815991
71,1435994378198,13.8002366896478
72,1435994378700,13.168557080322
73,1435994379188,14.6639182013232
74,1435994379670,20.6459524134265
75,1435994380172,13.1187290636838
76,1435994380626,11.8741610331424
77,1435994381082,11.91594447567
78,1435994381546,56.152200115861
79,1435994382005,42.1588999677125
80,1435994382332,16.2431453509753
81,1435994382765,28.5226378343566
82,1435994383229,13.2156108930584
83,1435994383713,9.96249060145389
84,1435994384196,18.1374706117922
85,1435994384661,16.7768660122722
86,1435994385160,42.0493615102899
87,1435994385664,41.5670273503744
88,1435994386161,39.2235660804971
89,1435994386640,23.1261144697176
90,1435994387115,25.9216062386901
91,1435994387562,15.9017203760885
92,1435994388018,13.4344724283606
93,1435994388491,16.9986421428597
94,1435994388958,13.5213012258531
95,1435994389438,21.5574307643725
96,1435994389907,20.7579824682326
97,1435994390332,11.8218601774675
98,1435994390826,15.3122126286491
99,1435994391342,19.4339988702673
100,1435994391843,21.4115503073036
101,1435994392335,36.0116772902122
102,1435994392879,30.4103630725804
103,1435994393307,9.03595891744256
104,1435994393764,11.2627282084176
105,1435994394255,19.2760784237661
106,1435994394758,16.1933588361552
107,1435994395232,10.7352726730788
108,1435994395720,63.2694601077773
109,1435994396211,16.7766217892454
110,1435994396708,14.6906849498227
111,1435994397199,13.3950655201631
112,1435994397744,19.1628686733062
113,1435994398240,17.7503077822143
114,1435994398688,12.470926825223
115,1435994399112,10.377441160802
116,1435994399603,32.288174017363
117,1435994400102,33.6340110229383
118,1435994400558,12.9470336939448
119,1435994401032,19.4229737129131
120,1435994401519,23.3146863694566
121,1435994401991,10.5820337856787
122,1435994402430,15.3466831367548
123,1435994402826,14.7725137198592
124,1435994403263,15.9734745580917
125,1435994403721,17.3145852823912
126,1435994404197,13.9345060681931
127,1435994404653,20.3928836299455
128,1435994405138,17.7626083069938
129,1435994405729,15.1668983806416
130,1435994406185,13.9876050048813
131,1435994406531,14.3295335619022
132,1435994406976,16.0569688458133
133,1435994407468,17.8646835387451
134,1435994407995,14.1617924423275
135,1435994408390,19.9117847463426
136,1435994408839,22.637505029781
137,1435994409305,21.0143196340406
138,1435994409814,13.5197468105822
139,1435994410292,15.0405804198606
140,1435994410806,27.5479412556014
141,1435994411291,12.5807905455997
142,1435994411813,19.2281087303455
143,1435994412286,15.1662431632281
144,1435994412792,13.9994725856557
145,1435994413286,15.8792385778775
146,1435994413779,9.57109675149703
147,1435994414235,20.374834866354
148,1435994414680,26.820843383137
149,1435994415177,18.5324742579211
150,1435994415660,33.5933741868278
151,1435994416153,32.5511575807969
152,1435994416640,15.6495407413686
153,1435994417133,69.4845062924964
154,1435994417637,31.2832591543515
155,1435994418125,21.2427354987041
156,1435994418559,44.9822263366134
157,1435994418968,27.0493270681191
158,1435994419427,16.1761788737065
159,1435994419879,67.8767763071633
160,1435994420387,59.4375545758791
161,1435994420932,37.8452972015445
162,1435994421426,77.0063184620388
163,1435994421922,71.1272923715991
164,1435994422409,27.8456400130289
165,1435994422952,21.1224692395274
166,1435994423333,16.430318542655
167,1435994423779,36.7503264187974
168,1435994424281,32.7651450331509
169,1435994424769,27.0955125475958
170,1435994425258,19.1553489661212
171,1435994425742,42.4379799735508
172,1435994426236,22.9387237676035
173,1435994426663,41.4503375998145
174,1435994427113,48.3402723935002
175,1435994427608,13.2647023132177
176,1435994428133,34.9729656630885
177,1435994428621,55.4361108445794
178,1435994429057,46.6270205929105
179,1435994429438,70.2000623997383
180,1435994429859,68.8021638981554
181,1435994430312,61.671409131634
182,1435994430833,69.7245716400614
183,1435994431312,37.8912898271751
184,1435994431830,45.7431496217731
185,1435994432337,17.0006173201142
186,1435994432857,23.7401490926711
187,1435994433355,47.2283880903247
188,1435994433876,63.2271484548319
189,1435994434330,64.1563353514607
190,1435994434777,69.7878988595163
191,1435994435266,58.7844421108039
192,1435994435752,33.2666082048186
193,1435994436284,22.6692385211987
194,1435994436792,17.1574831792459
195,1435994437299,11.5870921120426
196,1435994437779,12.5956973728312
197,1435994438300,57.9367734510121
198,1435994438790,26.2753853314713
199,1435994439262,27.2363799469894
200,1435994439690,11.6794893012406
201,1435994440152,22.9617211946749
202,1435994440643,31.6401234637161
203,1435994441136,19.3789607440706
204,1435994441620,64.6961899281464
205,1435994442104,50.5806883177297
206,1435994442597,63.2246878160276
207,1435994443146,60.778487728441
208,1435994443637,63.5744168646685
209,1435994444146,32.5854951541215
210,1435994444626,60.21331755058
211,1435994445123,63.7770183185717
212,1435994445622,69.7931040682633
213,1435994446120,72.9949173640847
214,1435994446608,24.472174018424
215,1435994447082,22.1353335425805
216,1435994447553,18.4599948403934
217,1435994447955,71.7623654659487
218,1435994448401,56.3352386095477
219,1435994448913,69.6514102502178
220,1435994449414,36.765871538448
221,1435994449897,21.1299867901327
222,1435994450392,20.9205705299368
223,1435994450885,17.2689305721176
224,1435994451341,17.8243961872122
225,1435994451786,12.0239746211408
226,1435994452286,14.6420702596123
227,1435994452781,32.8337550801383
228,1435994453197,16.6719978017985
229,1435994453689,35.7166333540788
230,1435994454174,35.8216550035389
231,1435994454656,35.4250141948969
232,1435994455138,42.4859654793768
233,1435994455630,16.4671183902038
234,1435994456120,31.4512236589453
235,1435994456601,13.738642600661
236,1435994457091,37.4485249501093
237,1435994457601,16.7544134726813
238,1435994458084,16.0174480225954
239,1435994458579,9.0837071069224
240,1435994459062,13.4106598913273
241,1435994459551,14.8719644225565
242,1435994460044,39.9892134649214
243,1435994460518,56.5256018487908
244,1435994461010,33.4834927321058
245,1435994461485,53.6804159816801
246,1435994461964,35.3610309366002
247,1435994462618,13.8417908490315
248,1435994463035,12.065246144398
249,1435994463437,10.0563642250407
250,1435994463883,26.4923723652691
251,1435994464363,22.5003508703197
252,1435994464829,71.4348121261703
253,1435994465252,72.8424589493539
254,1435994465721,48.6318734926421
255,1435994466199,38.9212102002932
256,1435994466702,40.2950301328692
257,1435994467189,16.1077871707169
258,1435994467729,13.061886994323
259,1435994468123,11.6025190391445
260,1435994468497,16.7116344059886
261,1435994468951,13.2575851698367
262,1435994469442,10.0089924066021
263,1435994469951,14.9773377967671
264,1435994470442,15.1834128608203
265,1435994470951,33.5934204199237
266,1435994471439,42.3582257354472
267,1435994471921,14.2534280217182
268,1435994472432,25.8392805342134
269,1435994472928,22.0848886309981
270,1435994473453,27.5230128595273
271,1435994473892,12.3187825958374
272,1435994474316,20.3453826073536
273,1435994474774,9.55134062013039
274,1435994475248,17.9405203033061
275,1435994475768,10.6788367134614
276,1435994476280,13.8664738928168
277,1435994476785,53.6372176729974
278,1435994477261,48.7245668151229
279,1435994477777,25.3589031783045
280,1435994478247,12.1603379191831
281,1435994478768,73.0680409036271
282,1435994479252,15.1636367465064
283,1435994479731,29.254203958374
284,1435994480154,35.1573054670158
285,1435994480616,35.8080500804886
286,1435994481064,32.9186000990601
287,1435994481547,17.8640396468224
288,1435994482066,29.4758974665803
289,1435994482562,22.2035457037574
290,1435994483104,44.0309998691929
291,1435994483567,74.3062940019307
292,1435994483981,68.4248626682737
293,1435994484423,50.8041767324769
294,1435994484927,63.0231781297294
295,1435994485419,30.3364470216272
296,1435994485880,41.9933987305616
297,1435994486357,42.0664280688535
298,1435994486861,51.3363306251634
299,1435994487369,21.4073179059475
300,1435994487874,31.6254931460569
301,1435994488253,15.3416297091586
302,1435994488711,20.4435173684448
303,1435994489209,17.646852817477
304,1435994489701,19.6015550370141
305,1435994490189,23.5248814901737
306,1435994490672,29.873768083118
307,1435994491145,38.8355234583979
308,1435994491671,40.0568760899096
309,1435994492173,37.6978715593583
310,1435994492647,21.1619896063738
311,1435994493148,37.14168249324
312,1435994493592,31.1423451825421
313,1435994494092,28.3639698793973
314,1435994494526,38.2127607394538
315,1435994494967,29.2526075137222
316,1435994495437,39.9834761855835
317,1435994495936,38.0609266889138
318,1435994496442,20.6775287651418
319,1435994496918,35.5267512295604
320,1435994497465,27.5947769371393
321,1435994497956,52.5089712149196
322,1435994498462,67.3217490686573
323,1435994498962,67.3955489995376
324,1435994499388,16.8229631236849
325,1435994499842,16.9961722524233
326,1435994500320,13.9778210414197
327,1435994500826,23.5638517130414
328,1435994501323,22.7509506365822
329,1435994501816,16.9598928755755
330,1435994502325,39.249350151205
331,1435994502809,38.6607379572554
332,1435994503298,23.8249234437397
333,1435994503727,36.0832172048561
334,1435994504223,13.0574022645377
335,1435994504617,13.5482454917716
336,1435994505038,12.6030410743008
337,1435994505512,11.6629518923854
338,1435994506003,13.9514148404056
339,1435994506508,14.320404589827
340,1435994507003,11.3640843234215
341,1435994507499,19.8915826366814
342,1435994507971,18.4609754451377
343,1435994508407,17.3433144990559
344,1435994508830,27.4033070880621
345,1435994510876,64.0976638960549
346,1435994511299,67.7358969497998
347,1435994511780,47.2684901834721
348,1435994512270,43.3239538825031
349,1435994512792,59.4161170549266
350,1435994513297,30.7636952892756
351,1435994513823,33.0031586212835
352,1435994514338,32.8155447013432
353,1435994514784,72.9742110214988
354,1435994515211,73.5867424893306
355,1435994515688,68.1679828930149
356,1435994516170,21.4462690789264
357,1435994516655,33.1611259712183
358,1435994517130,14.703891627917
359,1435994517634,69.2157938871839
360,1435994518121,70.9086064370206
361,1435994518602,22.1509330915836
362,1435994519038,13.3887842932016
363,1435994519472,36.8330077132656
364,1435994519927,38.3047897610933
365,1435994520393,30.4410477619972
366,1435994520892,74.7695785235882
367,1435994521405,25.8799740339504
368,1435994521902,16.7080941218597
369,1435994522391,35.2119555604969
370,1435994522859,18.9232507386382
371,1435994523320,68.9031730559845
372,1435994523833,17.9673687120843
373,1435994524314,13.4998988947193
374,1435994524849,54.8679358352152
375,1435994525290,48.0603025052135
376,1435994525696,69.954106590072
377,1435994526188,18.0685473778086
378,1435994526662,19.2834236330073
379,1435994527139,44.1808444961976
380,1435994527631,32.7270055211239
381,1435994528042,35.292393588388
382,1435994528379,21.2212541156236
383,1435994528779,33.516175540938
384,1435994530174,62.5948021508412
385,1435994530602,59.8394944643845
386,1435994531115,64.5158035078301
387,1435994531605,72.7351827006295
388,1435994532089,15.826327121837
389,1435994532590,14.3683802019815
390,1435994533131,13.0263574382969
391,1435994533634,15.915214295005
392,1435994534136,13.3983502519197
393,1435994534650,13.3072964039412
394,1435994535132,67.922589253385
395,1435994535516,53.7504835661518
396,1435994535901,58.6229852477698
397,1435994536377,62.6925696077226
398,1435994536868,17.0478219193428
399,1435994537379,70.7225927934278
400,1435994537860,65.9910296531545
401,1435994538363,16.3275723295787
402,1435994538817,14.3767923540046
403,1435994539249,12.5347537277908
404,1435994539717,70.5445298885829
405,1435994540209,39.9760778455306
406,1435994540721,15.6654397264668
407,1435994541222,13.3240846298914
408,1435994541735,11.0339283574678
409,1435994542233,58.5009924074261
410,1435994542792,67.731509557009
411,1435994543282,63.8046442120447
412,1435994543786,24.9428901180297
413,1435994544283,34.5479896762116
414,1435994544769,31.7415912208453
415,1435994545236,23.6091719840668
416,1435994545623,27.0156315018535
417,1435994546034,44.8661831070232
418,1435994546504,39.723313115682
419,1435994546978,29.5417393985298
420,1435994547470,41.4691820107283
421,1435994548010,57.0658770600487
422,1435994548510,16.5639193133978
423,1435994548997,24.0621941642889
424,1435994549408,36.5196944742184
425,1435994549862,57.616176314312
426,1435994550351,58.0078550788658
427,1435994550843,57.9453353838162
428,1435994551334,64.4923987801692
429,1435994553042,20.0272514905117
430,1435994553449,24.3993453229319
431,1435994553899,24.920476062657
432,1435994554372,24.0407095728843
433,1435994554868,13.261420307619
434,1435994555348,24.6435507571256
435,1435994555791,13.0881125722095
436,1435994556225,12.4466051022593
437,1435994556702,22.8643526070403
438,1435994557179,45.5658422656617
439,1435994557676,39.2087804058278
440,1435994558201,33.1644803956741
441,1435994558696,39.133680918533
442,1435994559169,24.1231692335082
443,1435994559670,30.8446278968849
444,1435994560231,14.6206916765122
445,1435994560677,27.0335911192619
446,1435994561150,31.2036606851655
447,1435994561642,15.9717576155527
448,1435994562122,14.6694386432828
449,1435994562577,35.5763543812522
450,1435994562976,66.6322764391663
451,1435994563388,22.3559198102046
452,1435994563871,20.7855448871636
453,1435994564356,20.7836499343836
454,1435994566359,33.7481683005016
455,1435994566807,25.6661969968152
456,1435994567300,28.4446074181922
457,1435994567814,25.3922632647757
458,1435994568288,20.0221081552527
459,1435994568769,26.929496074322
460,1435994569220,18.9889675316846
461,1435994569710,60.0999870651731
462,1435994570181,29.0193117976626
463,1435994570691,38.3635352133329
464,1435994571178,32.4486244878228
465,1435994571695,32.4992881473619
466,1435994572052,33.6475614748478
467,1435994572475,37.9587557447249
468,1435994572938,33.7065265388202
469,1435994573423,21.3403717047268
470,1435994573931,17.3478597891978
471,1435994574402,15.6367609061667
472,1435994574893,22.2774675163728
473,1435994575398,40.1048773217869
474,1435994575878,18.3693867270853
475,1435994576316,15.4605955264273
476,1435994576726,36.3963183738901
477,1435994577210,45.1615572700814
478,1435994577689,16.5245466999389
479,1435994578199,20.1983092200561
480,1435994578679,14.747921784572
481,1435994579168,46.8323646957094
482,1435994579677,17.9052966707411
483,1435994580111,38.8963894182696
484,1435994580546,15.9144970939189
485,1435994581018,22.7416214590402
486,1435994581509,15.1389338615083
487,1435994582020,27.8029407549699
488,1435994582513,18.2338622813977
489,1435994583037,30.9134628269761
490,1435994583530,33.6384427034507
491,1435994583978,46.7263696015806
492,1435994584428,56.9908110180045
493,1435994584900,54.365060661364
494,1435994585394,63.9478460306944
495,1435994585887,37.1601303247317
496,1435994586331,17.4554912077544
497,1435994586783,60.9883197486971
498,1435994587242,65.1345865665462
499,1435994587720,57.2308227760155
500,1435994588278,37.2203707825406
501,1435994588827,38.5570421897097
502,1435994589153,35.1725936907329
503,1435994589549,41.8599334624623
504,1435994589933,34.1578571313052
505,1435994590358,18.38908806291
506,1435994590826,28.5622861771525
507,1435994591299,13.8696647999899
508,1435994591788,14.5411933519535
509,1435994592304,55.684889628795
510,1435994592801,66.5636643803174
511,1435994593330,24.537048637743
512,1435994593800,23.7104637305666
513,1435994594290,35.7965871942276
514,1435994594771,40.458576347926
515,1435994595251,36.1793247783098
516,1435994595802,17.9906991072267
517,1435994596284,21.3127846028842
518,1435994596723,27.0300885881601
519,1435994597182,22.6626973591359
520,1435994597621,22.9807660839306
521,1435994598045,20.9009279708202
522,1435994598483,28.7959662996721
523,1435994598914,21.7325036422939
524,1435994599355,22.7465027006043
525,1435994599805,17.0206452110906
526,1435994600245,33.5270930894209
527,1435994600752,33.6931252200826
528,1435994601177,29.8799685671082
529,1435994601642,25.7561167290348
530,1435994602121,31.3693628291045
531,1435994602599,35.3474841471428
532,1435994603093,37.0424903057366
533,1435994603553,41.8998268388061
534,1435994604024,32.1995106482202
535,1435994604500,23.9062078776191
536,1435994604990,61.6991113106824
537,1435994605479,70.0586828110411
538,1435994605968,28.8826400626012
539,1435994606457,28.7189737246032
540,1435994606976,50.1399766188642
541,1435994607425,28.7218132924567
542,1435994607866,34.8293138478346
543,1435994608397,71.3625372721009
544,1435994608900,49.9642437676332
545,1435994609351,48.5712459436656
546,1435994609788,53.0407711776276
547,1435994610269,32.2135243642518
548,1435994610732,31.382593764069
549,1435994611185,40.0451547544621
550,1435994611656,38.547605748647
551,1435994612132,33.6527010785702
552,1435994612618,33.9745523442578
553,1435994613154,38.8953687633256
554,1435994613637,37.2563638579622
555,1435994614121,30.0683698766286
556,1435994614611,33.3142591130022
557,1435994615104,64.468669251067
558,1435994615611,65.7138148807525
559,1435994616118,35.9792899918523
560,1435994616601,36.7192254547954
561,1435994617127,38.7501495393833
562,1435994617543,32.7748150934896
563,1435994617971,23.7822502326836
564,1435994618476,42.4371376249431
565,1435994618930,39.6647202763942
566,1435994619393,32.1679934366653
567,1435994619984,26.618118349766
568,1435994620401,27.0013811968327
569,1435994620739,27.6445690129411
570,1435994621198,32.2119551406985
571,1435994621691,28.21502735878
572,1435994622197,58.8793684908589
573,1435994622688,41.6021664546545
574,1435994623197,68.8259755268861
575,1435994623701,24.4618508127447
