id,attr_time,attr_light
1,1438346754031,0.0
2,1438346754049,0.0
3,1438346754072,0.0
4,1438346754089,0.0
5,1438346754111,0.0
6,1438346754132,0.0
7,1438346754150,0.0
8,1438346754171,0.0
9,1438346754192,0.0
10,1438346754213,0.0
11,1438346754233,0.0
12,1438346754252,0.0
13,1438346754273,0.0
14,1438346754291,0.0
15,1438346754312,0.0
16,1438346754333,0.0
17,1438346754352,0.0
18,1438346754373,0.0
19,1438346754392,0.0
20,1438346754410,0.0
21,1438346754441,0.0
22,1438346754496,0.0
23,1438346754497,0.0
24,1438346754498,0.0
25,1438346754516,0.0
26,1438346754531,0.0
27,1438346754552,0.0
28,1438346754571,0.0
29,1438346754591,0.0
30,1438346754617,0.0
31,1438346754631,0.0
32,1438346754652,0.0
33,1438346754671,0.0
34,1438346754696,0.0
35,1438346754710,0.0
36,1438346754734,0.0
37,1438346754754,0.0
38,1438346754772,0.0
39,1438346754793,0.0
40,1438346754814,0.0
41,1438346754832,0.0
42,1438346754854,0.0
43,1438346754874,0.0
44,1438346754893,0.0
45,1438346754914,0.0
46,1438346754935,0.0
47,1438346754950,0.0
48,1438346754970,0.0
49,1438346754990,0.0
50,1438346755010,0.0
51,1438346755036,0.0
52,1438346755050,0.0
53,1438346755073,0.0
54,1438346755090,0.0
55,1438346755111,0.0
56,1438346755131,0.0
57,1438346755153,0.0
58,1438346755226,0.0
59,1438346755239,0.0
60,1438346755240,0.0
61,1438346755241,0.0
62,1438346755254,0.0
63,1438346755272,0.0
64,1438346755291,0.0
65,1438346755310,0.0
66,1438346755331,0.0
67,1438346755352,0.0
68,1438346755373,0.0
69,1438346755392,0.0
70,1438346755411,0.0
71,1438346755431,0.0
72,1438346755455,0.0
73,1438346755474,0.0
74,1438346755494,0.0
75,1438346755515,0.0
76,1438346755534,0.0
77,1438346755554,0.0
78,1438346755575,0.0
79,1438346755594,0.0
80,1438346755614,0.0
81,1438346755633,0.0
82,1438346755654,0.0
83,1438346755675,0.0
84,1438346755691,0.0
85,1438346755711,0.0
86,1438346755731,0.0
87,1438346755757,0.0
88,1438346755777,0.0
89,1438346755797,0.0
90,1438346755814,0.0
91,1438346755831,0.0
92,1438346755851,0.0
93,1438346755871,0.0
94,1438346755894,0.0
95,1438346755915,0.0
96,1438346755987,0.0
97,1438346755992,0.0
98,1438346755995,0.0
99,1438346755996,0.0
100,1438346756011,0.0
101,1438346756043,0.0
102,1438346756055,0.0
103,1438346756071,0.0
104,1438346756123,0.0
105,1438346756125,0.0
106,1438346756132,0.0
107,1438346756163,0.0
108,1438346756188,0.0
109,1438346756206,0.0
110,1438346756218,0.0
111,1438346756231,0.0
112,1438346756252,0.0
113,1438346756275,0.0
114,1438346756294,0.0
115,1438346756315,0.0
116,1438346756335,0.0
117,1438346756355,0.0
118,1438346756375,0.0
119,1438346756395,0.0
120,1438346756417,0.0
121,1438346756433,0.0
122,1438346756455,0.0
123,1438346756475,0.0
124,1438346756495,0.0
125,1438346756515,0.0
126,1438346756535,0.0
127,1438346756555,0.0
128,1438346756575,0.0
129,1438346756595,0.0
130,1438346756616,0.0
131,1438346756636,0.0
132,1438346756656,0.0
133,1438346756676,0.0
134,1438346756695,0.0
135,1438346756764,0.0
136,1438346756765,0.0
137,1438346756766,0.0
138,1438346756773,0.0
139,1438346756800,0.0
140,1438346756814,0.0
141,1438346756832,0.0
142,1438346756853,0.0
143,1438346756873,0.0
144,1438346756895,0.0
145,1438346756914,0.0
146,1438346756935,0.0
147,1438346756952,0.0
148,1438346756975,0.0
149,1438346756995,0.0
150,1438346757016,0.0
151,1438346757035,0.0
152,1438346757052,0.0
153,1438346757075,0.0
154,1438346757095,0.0
155,1438346757116,0.0
156,1438346757135,0.0
157,1438346757156,0.0
158,1438346757176,0.0
159,1438346757195,0.0
160,1438346757216,0.0
161,1438346757235,0.0
162,1438346757259,0.0
163,1438346757277,0.0
164,1438346757296,0.0
165,1438346757316,0.0
166,1438346757335,0.0
167,1438346757353,0.0
168,1438346757375,0.0
169,1438346757394,0.0
170,1438346757418,0.0
171,1438346757482,0.0
172,1438346757483,0.0
173,1438346757484,0.0
174,1438346757493,0.0
175,1438346757518,0.0
176,1438346757535,0.0
177,1438346757566,0.0
178,1438346757584,0.0
179,1438346757596,0.0
180,1438346757620,0.0
181,1438346757634,0.0
182,1438346757656,0.0
183,1438346757673,0.0
184,1438346757696,0.0
185,1438346757716,0.0
186,1438346757736,0.0
187,1438346757756,0.0
188,1438346757776,0.0
189,1438346757796,0.0
190,1438346757816,0.0
191,1438346757837,0.0
192,1438346757853,0.0
193,1438346757876,0.0
194,1438346757896,0.0
195,1438346757916,0.0
196,1438346757935,0.0
197,1438346757956,0.0
198,1438346757976,0.0
199,1438346757996,0.0
200,1438346758017,0.0
201,1438346758040,0.0
202,1438346758064,0.0
203,1438346758081,0.0
204,1438346758097,0.0
205,1438346758197,0.0
206,1438346758198,0.0
207,1438346758199,0.0
208,1438346758200,0.0
209,1438346758201,0.0
210,1438346758226,0.0
211,1438346758246,0.0
212,1438346758289,0.0
213,1438346758290,0.0
214,1438346758294,0.0
215,1438346758316,0.0
216,1438346758334,0.0
217,1438346758354,0.0
218,1438346758376,0.0
219,1438346758394,0.0
220,1438346758417,0.0
221,1438346758437,0.0
222,1438346758457,0.0
223,1438346758477,0.0
224,1438346758497,0.0
225,1438346758517,0.0
226,1438346758537,0.0
227,1438346758558,0.0
228,1438346758576,0.0
229,1438346758597,0.0
230,1438346758615,0.0
231,1438346758636,0.0
232,1438346758654,0.0
233,1438346758679,0.0
234,1438346758699,0.0
235,1438346758720,0.0
236,1438346758737,0.0
237,1438346758755,0.0
238,1438346758776,0.0
239,1438346758797,0.0
240,1438346758816,0.0
241,1438346758834,0.0
242,1438346758887,0.0
243,1438346758888,0.0
244,1438346758896,0.0
245,1438346758915,0.0
246,1438346758936,0.0
247,1438346758954,0.0
248,1438346758974,0.0
249,1438346758998,0.0
250,1438346759015,0.0
251,1438346759034,0.0
252,1438346759058,0.0
253,1438346759081,0.0
254,1438346759101,0.0
255,1438346759117,0.0
256,1438346759135,0.0
257,1438346759157,0.0
258,1438346759177,0.0
259,1438346759197,0.0
260,1438346759268,0.0
261,1438346759269,0.0
262,1438346759270,0.0
263,1438346759328,0.0
264,1438346759329,0.0
265,1438346759330,0.0
266,1438346759344,0.0
267,1438346759355,0.0
268,1438346759375,0.0
269,1438346759404,0.0
270,1438346759416,0.0
271,1438346759435,0.0
272,1438346759455,0.0
273,1438346759476,0.0
274,1438346759495,0.0
275,1438346759519,0.0
276,1438346759535,0.0
277,1438346759555,0.0
278,1438346759605,0.0
279,1438346759607,0.0
280,1438346759614,0.0
281,1438346759634,0.0
282,1438346759654,0.0
283,1438346759674,0.0
284,1438346759695,0.0
285,1438346759715,0.0
286,1438346759736,0.0
287,1438346759755,0.0
288,1438346759778,0.0
289,1438346759798,0.0
290,1438346759815,0.0
291,1438346759835,0.0
292,1438346759858,0.0
293,1438346759878,0.0
294,1438346759898,0.0
295,1438346759918,0.0
296,1438346759938,0.0
297,1438346759955,0.0
298,1438346759978,0.0
299,1438346759999,0.0
300,1438346760015,0.0
301,1438346760039,0.0
302,1438346760057,0.0
303,1438346760107,0.0
304,1438346760108,0.0
305,1438346760116,0.0
306,1438346760138,0.0
307,1438346760158,0.0
308,1438346760178,0.0
309,1438346760196,0.0
310,1438346760216,0.0
311,1438346760290,0.0
312,1438346760291,0.0
313,1438346760292,0.0
314,1438346760299,0.0
315,1438346760316,0.0
316,1438346760341,0.0
317,1438346760355,0.0
318,1438346760375,0.0
319,1438346760397,0.0
320,1438346760417,0.0
321,1438346760442,0.0
322,1438346760457,0.0
323,1438346760477,0.0
324,1438346760499,0.0
325,1438346760519,0.0
326,1438346760539,0.0
327,1438346760559,0.0
328,1438346760579,0.0
329,1438346760599,0.0
330,1438346760619,0.0
331,1438346760639,0.0
332,1438346760658,0.0
333,1438346760677,0.0
334,1438346760698,0.0
335,1438346760719,0.0
336,1438346760738,0.0
337,1438346760758,0.0
338,1438346760778,0.0
339,1438346760799,0.0
340,1438346760820,0.0
341,1438346760839,0.0
342,1438346760858,0.0
343,1438346760878,0.0
344,1438346760898,0.0
345,1438346760918,0.0
346,1438346760946,0.0
347,1438346761001,0.0
348,1438346761002,0.0
349,1438346761003,0.0
350,1438346761047,0.0
351,1438346761048,0.0
352,1438346761063,0.0
353,1438346761095,0.0
354,1438346761096,0.0
355,1438346761116,0.0
356,1438346761198,0.0
357,1438346761199,0.0
358,1438346761209,0.0
359,1438346761210,0.0
360,1438346761233,0.0
361,1438346761247,0.0
362,1438346761262,0.0
363,1438346761280,0.0
364,1438346761299,0.0
365,1438346761319,0.0
366,1438346761337,0.0
367,1438346761359,0.0
368,1438346761379,0.0
369,1438346761399,0.0
370,1438346761419,0.0
371,1438346761439,0.0
372,1438346761459,0.0
373,1438346761481,0.0
374,1438346761496,0.0
375,1438346761519,0.0
376,1438346761539,0.0
377,1438346761559,0.0
378,1438346761579,0.0
379,1438346761601,0.0
380,1438346761619,0.0
381,1438346761638,0.0
382,1438346761659,0.0
383,1438346761679,0.0
384,1438346761700,0.0
385,1438346761720,0.0
386,1438346761737,0.0
387,1438346761768,0.0
388,1438346761829,0.0
389,1438346761830,0.0
390,1438346761831,0.0
391,1438346761842,0.0
392,1438346761857,0.0
393,1438346761879,0.0
394,1438346761897,0.0
395,1438346761918,0.0
396,1438346761938,0.0
397,1438346761962,0.0
398,1438346761981,0.0
399,1438346762001,0.0
400,1438346762020,0.0
401,1438346762039,0.0
402,1438346762057,0.0
403,1438346762078,0.0
404,1438346762097,0.0
405,1438346762120,0.0
406,1438346762140,0.0
407,1438346762160,0.0
408,1438346762180,0.0
409,1438346762197,0.0
410,1438346762219,0.0
411,1438346762238,0.0
412,1438346762259,0.0
413,1438346762277,0.0
414,1438346762298,0.0
415,1438346762318,0.0
416,1438346762339,0.0
417,1438346762359,0.0
418,1438346762379,0.0
419,1438346762401,0.0
420,1438346762418,0.0
421,1438346762437,0.0
422,1438346762458,0.0
423,1438346762479,0.0
424,1438346762501,0.0
425,1438346762548,0.0
426,1438346762549,0.0
427,1438346762567,0.0
428,1438346762577,0.0
429,1438346762598,0.0
430,1438346762618,0.0
431,1438346762638,0.0
432,1438346762672,0.0
433,1438346762679,0.0
434,1438346762699,0.0
435,1438346762719,0.0
436,1438346762739,0.0
437,1438346762759,0.0
438,1438346762781,0.0
439,1438346762801,0.0
440,1438346762819,0.0
441,1438346762854,0.0
442,1438346762858,0.0
443,1438346762878,0.0
444,1438346762898,0.0
445,1438346762918,0.0
446,1438346762938,0.0
447,1438346762958,0.0
448,1438346762978,0.0
449,1438346762999,0.0
450,1438346763018,0.0
451,1438346763039,0.0
452,1438346763058,0.0
453,1438346763079,0.0
454,1438346763098,0.0
455,1438346763122,0.0
456,1438346763138,0.0
457,1438346763158,0.0
458,1438346763179,0.0
459,1438346763198,0.0
460,1438346763218,0.0
461,1438346763238,0.0
462,1438346763289,0.0
463,1438346763290,0.0
464,1438346763302,0.0
465,1438346763325,0.0
466,1438346763354,0.0
467,1438346763361,0.0
468,1438346763378,0.0
469,1438346763399,0.0
470,1438346763420,0.0
471,1438346763451,0.0
472,1438346763470,0.0
473,1438346763479,0.0
474,1438346763498,0.0
475,1438346763519,0.0
476,1438346763537,0.0
477,1438346763557,0.0
478,1438346763577,0.0
479,1438346763598,0.0
480,1438346763618,0.0
481,1438346763640,0.0
482,1438346763662,0.0
483,1438346763682,0.0
484,1438346763702,0.0
485,1438346763719,0.0
486,1438346763740,0.0
487,1438346763762,0.0
488,1438346763779,0.0
489,1438346763800,0.0
490,1438346763820,0.0
491,1438346763839,0.0
492,1438346763873,0.0
493,1438346763878,0.0
494,1438346763899,0.0
495,1438346763919,0.0
496,1438346763940,0.0
497,1438346763960,0.0
498,1438346763980,0.0
499,1438346764000,0.0
500,1438346764017,0.0
501,1438346764038,0.0
502,1438346764058,0.0
503,1438346764078,0.0
504,1438346764098,0.0
505,1438346764118,0.0
506,1438346764143,0.0
507,1438346764161,0.0
508,1438346764179,0.0
509,1438346764203,0.0
510,1438346764220,0.0
511,1438346764243,0.0
512,1438346764264,0.0
513,1438346764280,0.0
514,1438346764301,0.0
515,1438346764318,0.0
516,1438346764340,0.0
517,1438346764361,0.0
518,1438346764380,0.0
519,1438346764401,0.0
520,1438346764420,0.0
521,1438346764440,0.0
522,1438346764463,0.0
523,1438346764480,0.0
524,1438346764503,0.0
525,1438346764519,0.0
526,1438346764540,0.0
527,1438346764562,0.0
528,1438346764580,0.0
529,1438346764603,0.0
530,1438346764620,0.0
531,1438346764642,0.0
532,1438346764671,0.0
533,1438346764731,0.0
534,1438346764732,0.0
535,1438346764743,0.0
536,1438346764744,0.0
537,1438346764760,0.0
538,1438346764781,0.0
539,1438346764801,0.0
540,1438346764820,0.0
541,1438346764841,0.0
542,1438346764861,0.0
543,1438346764886,0.0
544,1438346764900,0.0
545,1438346764922,0.0
546,1438346764944,0.0
547,1438346764962,0.0
548,1438346764983,0.0
549,1438346765002,0.0
550,1438346765024,0.0
551,1438346765043,0.0
552,1438346765062,0.0
553,1438346765083,0.0
554,1438346765104,0.0
555,1438346765123,0.0
556,1438346765141,0.0
557,1438346765164,0.0
558,1438346765180,0.0
559,1438346765201,0.0
560,1438346765220,0.0
561,1438346765243,0.0
562,1438346765267,0.0
563,1438346765282,0.0
564,1438346765302,0.0
565,1438346765321,0.0
566,1438346765340,0.0
567,1438346765365,0.0
568,1438346765384,0.0
569,1438346765402,0.0
570,1438346765474,0.0
571,1438346765475,0.0
572,1438346765476,0.0
573,1438346765483,0.0
574,1438346765502,0.0
575,1438346765524,0.0
576,1438346765540,0.0
577,1438346765567,0.0
578,1438346765582,0.0
579,1438346765604,0.0
580,1438346765623,0.0
581,1438346765641,0.0
582,1438346765660,0.0
583,1438346765685,0.0
584,1438346765703,0.0
585,1438346765723,0.0
586,1438346765744,0.0
587,1438346765764,0.0
588,1438346765784,0.0
589,1438346765805,0.0
590,1438346765823,0.0
591,1438346765844,0.0
592,1438346765863,0.0
593,1438346765883,0.0
594,1438346765905,0.0
595,1438346765921,0.0
596,1438346765942,0.0
597,1438346765961,0.0
598,1438346765987,0.0
599,1438346766004,0.0
600,1438346766024,0.0
601,1438346766043,0.0
602,1438346766064,0.0
603,1438346766086,0.0
604,1438346766103,0.0
605,1438346766124,0.0
606,1438346766143,0.0
607,1438346766216,0.0
608,1438346766217,0.0
609,1438346766218,0.0
610,1438346766225,0.0
611,1438346766243,0.0
612,1438346766316,0.0
613,1438346766317,0.0
614,1438346766318,0.0
615,1438346766336,0.0
616,1438346766382,0.0
617,1438346766383,0.0
618,1438346766384,0.0
619,1438346766407,0.0
620,1438346766423,0.0
621,1438346766442,0.0
622,1438346766465,0.0
623,1438346766484,0.0
624,1438346766505,0.0
625,1438346766524,0.0
626,1438346766545,0.0
627,1438346766565,0.0
628,1438346766585,0.0
629,1438346766605,0.0
630,1438346766625,0.0
631,1438346766645,0.0
632,1438346766668,0.0
633,1438346766685,0.0
634,1438346766705,0.0
635,1438346766721,0.0
636,1438346766743,0.0
637,1438346766764,0.0
638,1438346766785,0.0
639,1438346766805,0.0
640,1438346766826,0.0
641,1438346766845,0.0
642,1438346766865,0.0
643,1438346766882,0.0
644,1438346766904,0.0
645,1438346766925,0.0
646,1438346766943,0.0
647,1438346767010,0.0
648,1438346767011,0.0
649,1438346767012,0.0
650,1438346767026,0.0
651,1438346767043,0.0
652,1438346767087,0.0
653,1438346767088,0.0
654,1438346767102,0.0
655,1438346767151,0.0
656,1438346767152,0.0
657,1438346767165,0.0
658,1438346767188,0.0
659,1438346767202,0.0
660,1438346767225,0.0
661,1438346767245,0.0
662,1438346767264,0.0
663,1438346767285,0.0
664,1438346767308,0.0
665,1438346767325,0.0
666,1438346767345,0.0
667,1438346767365,0.0
668,1438346767385,0.0
669,1438346767411,0.0
670,1438346767422,0.0
671,1438346767445,0.0
672,1438346767466,0.0
673,1438346767485,0.0
674,1438346767505,0.0
675,1438346767525,0.0
676,1438346767545,0.0
677,1438346767566,0.0
678,1438346767586,0.0
679,1438346767608,0.0
680,1438346767626,0.0
681,1438346767646,0.0
682,1438346767666,0.0
683,1438346767684,0.0
684,1438346767756,0.0
685,1438346767757,0.0
686,1438346767758,0.0
687,1438346767767,0.0
688,1438346767783,0.0
689,1438346767811,0.0
690,1438346767864,0.0
691,1438346767865,0.0
692,1438346767866,0.0
693,1438346767890,0.0
694,1438346767904,0.0
695,1438346767926,0.0
696,1438346767946,0.0
697,1438346767966,0.0
698,1438346767986,0.0
699,1438346768009,0.0
700,1438346768025,0.0
701,1438346768043,0.0
702,1438346768070,0.0
703,1438346768083,0.0
704,1438346768107,0.0
705,1438346768124,0.0
706,1438346768146,0.0
707,1438346768164,0.0
708,1438346768185,0.0
709,1438346768203,0.0
710,1438346768228,0.0
711,1438346768248,0.0
712,1438346768269,0.0
713,1438346768286,0.0
714,1438346768303,0.0
715,1438346768325,0.0
716,1438346768345,0.0
717,1438346768363,0.0
718,1438346768436,0.0
719,1438346768437,0.0
720,1438346768438,0.0
721,1438346768445,0.0
722,1438346768463,0.0
723,1438346768484,0.0
724,1438346768503,0.0
725,1438346768529,0.0
726,1438346768554,0.0
727,1438346768567,0.0
728,1438346768585,0.0
729,1438346768605,0.0
730,1438346768624,0.0
731,1438346768646,0.0
732,1438346768667,0.0
733,1438346768687,0.0
734,1438346768707,0.0
735,1438346768727,0.0
736,1438346768746,0.0
737,1438346768767,0.0
738,1438346768787,0.0
739,1438346768807,0.0
740,1438346768826,0.0
741,1438346768845,0.0
742,1438346768867,0.0
743,1438346768885,0.0
744,1438346768905,0.0
745,1438346768925,0.0
746,1438346768949,0.0
747,1438346768969,0.0
748,1438346768989,0.0
749,1438346769009,0.0
750,1438346769042,0.0
751,1438346769047,0.0
752,1438346769067,0.0
753,1438346769096,0.0
754,1438346769153,0.0
755,1438346769155,0.0
756,1438346769158,0.0
757,1438346769185,0.0
758,1438346769186,0.0
759,1438346769204,0.0
760,1438346769234,0.0
761,1438346769244,0.0
762,1438346769265,0.0
763,1438346769285,0.0
764,1438346769304,0.0
765,1438346769325,0.0
766,1438346769344,0.0
767,1438346769365,0.0
768,1438346769387,0.0
769,1438346769407,0.0
770,1438346769429,0.0
771,1438346769446,0.0
772,1438346769467,0.0
773,1438346769487,0.0
774,1438346769507,0.0
775,1438346769527,0.0
776,1438346769547,0.0
777,1438346769566,0.0
778,1438346769587,0.0
779,1438346769610,0.0
780,1438346769626,0.0
781,1438346769647,0.0
782,1438346769667,0.0
783,1438346769689,0.0
784,1438346769710,0.0
785,1438346769730,0.0
786,1438346769748,0.0
787,1438346769764,0.0
788,1438346769785,0.0
789,1438346769807,0.0
790,1438346769826,0.0
791,1438346769845,0.0
792,1438346769916,0.0
793,1438346769917,0.0
794,1438346769918,0.0
795,1438346769925,0.0
796,1438346769945,0.0
797,1438346769965,0.0
798,1438346769985,0.0
799,1438346770009,0.0
800,1438346770031,0.0
801,1438346770050,0.0
802,1438346770066,0.0
803,1438346770115,0.0
804,1438346770116,0.0
805,1438346770127,0.0
806,1438346770149,0.0
807,1438346770168,0.0
808,1438346770188,0.0
809,1438346770208,0.0
810,1438346770228,0.0
811,1438346770248,0.0
812,1438346770268,0.0
813,1438346770290,0.0
814,1438346770307,0.0
815,1438346770326,0.0
816,1438346770345,0.0
817,1438346770365,0.0
818,1438346770385,0.0
819,1438346770411,0.0
820,1438346770434,0.0
821,1438346770452,0.0
822,1438346770468,0.0
823,1438346770485,0.0
824,1438346770506,0.0
825,1438346770525,0.0
826,1438346770547,0.0
827,1438346770566,0.0
828,1438346770634,0.0
829,1438346770635,0.0
830,1438346770636,0.0
831,1438346770646,0.0
832,1438346770670,0.0
833,1438346770686,0.0
834,1438346770707,0.0
835,1438346770727,0.0
836,1438346770747,0.0
837,1438346770767,0.0
838,1438346770787,0.0
839,1438346770809,0.0
840,1438346770828,0.0
841,1438346770849,0.0
842,1438346770869,0.0
843,1438346770889,0.0
844,1438346770909,0.0
845,1438346770929,0.0
846,1438346770949,0.0
847,1438346770969,0.0
848,1438346770989,0.0
849,1438346771010,0.0
850,1438346771026,0.0
851,1438346771048,0.0
852,1438346771066,0.0
853,1438346771086,0.0
854,1438346771107,0.0
855,1438346771131,0.0
856,1438346771151,0.0
857,1438346771171,0.0
858,1438346771189,0.0
859,1438346771206,0.0
860,1438346771229,0.0
861,1438346771268,0.0
862,1438346771269,0.0
863,1438346771286,0.0
864,1438346771316,0.0
865,1438346771378,0.0
866,1438346771379,0.0
867,1438346771380,0.0
868,1438346771395,0.0
869,1438346771407,0.0
870,1438346771439,0.0
871,1438346771447,0.0
872,1438346771466,0.0
873,1438346771487,0.0
874,1438346771507,0.0
875,1438346771527,0.0
876,1438346771548,0.0
877,1438346771569,0.0
878,1438346771587,0.0
879,1438346771609,0.0
880,1438346771629,0.0
881,1438346771649,0.0
882,1438346771669,0.0
883,1438346771690,0.0
884,1438346771709,0.0
885,1438346771729,0.0
886,1438346771749,0.0
887,1438346771767,0.0
888,1438346771790,0.0
889,1438346771809,0.0
890,1438346771828,0.0
891,1438346771849,0.0
892,1438346771870,0.0
893,1438346771890,0.0
894,1438346771910,0.0
895,1438346771931,0.0
896,1438346771950,0.0
897,1438346771969,0.0
898,1438346771988,0.0
899,1438346772009,0.0
900,1438346772027,0.0
901,1438346772149,0.0
902,1438346772150,0.0
903,1438346772151,0.0
904,1438346772152,0.0
905,1438346772153,0.0
906,1438346772154,0.0
907,1438346772168,0.0
908,1438346772187,0.0
909,1438346772208,0.0
910,1438346772229,0.0
911,1438346772248,0.0
912,1438346772269,0.0
