id,attr_time,attr_light
1,1438346754030,957.0
2,1438346754051,957.0
3,1438346754072,957.0
4,1438346754091,957.0
5,1438346754112,956.0
6,1438346754131,956.0
7,1438346754152,957.0
8,1438346754171,957.0
9,1438346754209,957.0
10,1438346754225,957.0
11,1438346754232,957.0
12,1438346754261,957.0
13,1438346754273,957.0
14,1438346754292,957.0
15,1438346754313,957.0
16,1438346754334,957.0
17,1438346754353,957.0
18,1438346754374,957.0
19,1438346754393,957.0
20,1438346754413,956.0
21,1438346754434,956.0
22,1438346754455,958.0
23,1438346754475,958.0
24,1438346754495,957.0
25,1438346754515,957.0
26,1438346754535,957.0
27,1438346754554,957.0
28,1438346754574,956.0
29,1438346754596,957.0
30,1438346754614,957.0
31,1438346754636,956.0
32,1438346754654,956.0
33,1438346754674,956.0
34,1438346754694,956.0
35,1438346754714,956.0
36,1438346754735,956.0
37,1438346754755,957.0
38,1438346754774,957.0
39,1438346754796,956.0
40,1438346754816,956.0
41,1438346754833,955.0
42,1438346754853,955.0
43,1438346754873,956.0
44,1438346754893,956.0
45,1438346754929,955.0
46,1438346754936,955.0
47,1438346754953,955.0
48,1438346754973,955.0
49,1438346754993,955.0
50,1438346755013,955.0
51,1438346755033,955.0
52,1438346755070,955.0
53,1438346755102,955.0
54,1438346755103,955.0
55,1438346755114,955.0
56,1438346755149,955.0
57,1438346755154,955.0
58,1438346755174,956.0
59,1438346755196,956.0
60,1438346755216,956.0
61,1438346755236,956.0
62,1438346755254,956.0
63,1438346755276,956.0
64,1438346755296,956.0
65,1438346755318,956.0
66,1438346755334,957.0
67,1438346755354,957.0
68,1438346755376,957.0
69,1438346755396,957.0
70,1438346755413,957.0
71,1438346755436,956.0
72,1438346755456,956.0
73,1438346755474,957.0
74,1438346755494,957.0
75,1438346755514,957.0
76,1438346755536,957.0
77,1438346755554,956.0
78,1438346755574,956.0
79,1438346755594,958.0
80,1438346755618,958.0
81,1438346755673,959.0
82,1438346755674,959.0
83,1438346755675,963.0
84,1438346755693,963.0
85,1438346755714,968.0
86,1438346755734,968.0
87,1438346755753,975.0
88,1438346755774,984.0
89,1438346755793,984.0
90,1438346755818,996.0
91,1438346755837,996.0
92,1438346755854,1012.0
93,1438346755874,1012.0
94,1438346755895,1025.0
95,1438346755917,1025.0
96,1438346755935,1036.0
97,1438346755957,1036.0
98,1438346755977,1049.0
99,1438346755994,1049.0
100,1438346756017,1060.0
101,1438346756036,1060.0
102,1438346756054,1071.0
103,1438346756087,1071.0
104,1438346756094,1082.0
105,1438346756116,1082.0
106,1438346756135,1094.0
107,1438346756154,1107.0
108,1438346756177,1107.0
109,1438346756194,1120.0
110,1438346756216,1120.0
111,1438346756237,1134.0
112,1438346756255,1134.0
113,1438346756277,1149.0
114,1438346756295,1149.0
115,1438346756316,1164.0
116,1438346756346,1164.0
117,1438346756396,1179.0
118,1438346756397,1179.0
119,1438346756398,1197.0
120,1438346756418,1197.0
121,1438346756436,1217.0
122,1438346756455,1217.0
123,1438346756474,1235.0
124,1438346756494,1235.0
125,1438346756516,1259.0
126,1438346756537,1287.0
127,1438346756556,1287.0
128,1438346756577,1316.0
129,1438346756595,1316.0
130,1438346756618,1340.0
131,1438346756637,1340.0
132,1438346756657,1352.0
133,1438346756678,1352.0
134,1438346756695,1365.0
135,1438346756717,1365.0
136,1438346756738,1379.0
137,1438346756756,1379.0
138,1438346756778,1393.0
139,1438346756794,1393.0
140,1438346756817,1402.0
141,1438346756842,1402.0
142,1438346756857,1408.0
143,1438346756877,1408.0
144,1438346756899,1415.0
145,1438346756917,1424.0
146,1438346756938,1424.0
147,1438346756959,1429.0
148,1438346756977,1429.0
149,1438346756998,1433.0
150,1438346757017,1433.0
151,1438346757038,1432.0
152,1438346757146,1432.0
153,1438346757147,1429.0
154,1438346757148,1429.0
155,1438346757149,1425.0
156,1438346757150,1425.0
157,1438346757162,1418.0
158,1438346757188,1418.0
159,1438346757196,1410.0
160,1438346757215,1410.0
161,1438346757240,1403.0
162,1438346757256,1403.0
163,1438346757280,1398.0
164,1438346757296,1396.0
165,1438346757323,1396.0
166,1438346757339,1393.0
167,1438346757357,1393.0
168,1438346757379,1394.0
169,1438346757398,1394.0
170,1438346758935,1392.0
171,1438346758936,1392.0
172,1438346758937,1388.0
173,1438346758938,1388.0
174,1438346758939,1384.0
175,1438346758940,1384.0
176,1438346758941,1382.0
177,1438346758942,1382.0
178,1438346758943,1380.0
179,1438346758944,1380.0
180,1438346758945,1377.0
181,1438346758946,1377.0
182,1438346758947,1374.0
183,1438346758948,1374.0
184,1438346758949,1368.0
185,1438346758950,1362.0
186,1438346758951,1362.0
187,1438346758952,1353.0
188,1438346758953,1353.0
189,1438346758954,1344.0
190,1438346758955,1344.0
191,1438346758956,1335.0
192,1438346758957,1335.0
193,1438346758958,1325.0
194,1438346758959,1325.0
195,1438346758960,1317.0
196,1438346758961,1317.0
197,1438346758962,1311.0
198,1438346758963,1311.0
199,1438346758964,1305.0
200,1438346758965,1305.0
201,1438346758966,1294.0
202,1438346758967,1294.0
203,1438346758968,1278.0
204,1438346758969,1263.0
205,1438346758970,1263.0
206,1438346758971,1250.0
207,1438346758972,1250.0
208,1438346758973,1236.0
209,1438346758974,1236.0
210,1438346758975,1217.0
211,1438346758976,1217.0
212,1438346758977,1196.0
213,1438346758978,1196.0
214,1438346758979,1172.0
215,1438346758980,1172.0
216,1438346758981,1147.0
217,1438346758982,1147.0
218,1438346758983,1120.0
219,1438346758984,1120.0
220,1438346758985,1090.0
221,1438346758986,1090.0
222,1438346758987,1056.0
223,1438346758988,1019.0
224,1438346758989,1019.0
225,1438346758990,977.0
226,1438346758991,977.0
227,1438346758992,923.0
228,1438346758993,923.0
229,1438346758994,875.0
230,1438346758995,875.0
231,1438346758996,823.0
232,1438346758997,823.0
233,1438346758998,771.0
234,1438346758999,771.0
235,1438346759000,731.0
236,1438346759001,731.0
237,1438346759002,719.0
238,1438346759003,719.0
239,1438346759004,746.0
240,1438346759005,746.0
241,1438346759006,811.0
242,1438346759007,866.0
243,1438346759008,866.0
244,1438346759009,891.0
245,1438346759010,891.0
246,1438346759011,911.0
247,1438346759012,911.0
248,1438346759013,945.0
249,1438346759014,945.0
250,1438346759015,959.0
251,1438346759035,959.0
252,1438346759056,961.0
253,1438346759075,961.0
254,1438346759096,969.0
255,1438346759115,969.0
256,1438346759135,990.0
257,1438346759155,990.0
258,1438346759175,1010.0
259,1438346759201,1010.0
260,1438346759217,1029.0
261,1438346759238,1052.0
262,1438346759260,1052.0
263,1438346759279,1081.0
264,1438346759298,1081.0
265,1438346759316,1112.0
266,1438346759340,1112.0
267,1438346759360,1171.0
268,1438346759380,1171.0
269,1438346759400,1240.0
270,1438346759419,1240.0
271,1438346759438,1297.0
272,1438346759458,1297.0
273,1438346759477,1376.0
274,1438346759498,1376.0
275,1438346759520,1454.0
276,1438346759536,1454.0
277,1438346759557,1492.0
278,1438346759594,1492.0
279,1438346759596,1327.0
280,1438346759619,1115.0
281,1438346759638,1115.0
282,1438346759656,1006.0
283,1438346759676,1006.0
284,1438346759696,949.0
285,1438346759716,949.0
286,1438346759736,871.0
287,1438346759756,871.0
288,1438346759776,790.0
289,1438346759796,790.0
290,1438346759816,727.0
291,1438346759839,727.0
292,1438346759857,700.0
293,1438346759880,700.0
294,1438346759900,689.0
295,1438346759918,689.0
296,1438346759940,664.0
297,1438346759960,664.0
298,1438346759980,624.0
299,1438346760000,624.0
300,1438346760021,581.0
301,1438346760041,539.0
302,1438346760058,539.0
303,1438346760078,497.0
304,1438346760098,497.0
305,1438346760120,455.0
306,1438346760150,455.0
307,1438346760163,414.0
308,1438346760193,414.0
309,1438346760198,389.0
310,1438346760218,389.0
311,1438346760247,377.0
312,1438346760262,377.0
313,1438346760279,375.0
314,1438346760302,375.0
315,1438346760318,374.0
316,1438346760338,374.0
317,1438346760359,373.0
318,1438346760379,373.0
319,1438346760399,369.0
320,1438346760418,362.0
321,1438346760439,362.0
322,1438346760459,360.0
323,1438346760479,360.0
324,1438346760499,367.0
325,1438346760520,367.0
326,1438346760538,380.0
327,1438346760559,380.0
328,1438346760579,382.0
329,1438346760598,382.0
330,1438346760619,373.0
331,1438346760639,373.0
332,1438346760659,359.0
333,1438346760679,359.0
334,1438346760697,345.0
335,1438346760717,345.0
336,1438346760739,336.0
337,1438346760759,336.0
338,1438346760779,334.0
339,1438346760798,342.0
340,1438346760818,342.0
341,1438346760841,356.0
342,1438346760857,356.0
343,1438346760877,364.0
344,1438346760899,364.0
345,1438346760918,366.0
346,1438346760938,366.0
347,1438346760963,369.0
348,1438346760982,369.0
349,1438346761002,366.0
350,1438346761022,366.0
351,1438346761039,359.0
352,1438346761059,359.0
353,1438346761084,364.0
354,1438346761122,364.0
355,1438346761123,375.0
356,1438346761140,375.0
357,1438346761160,379.0
358,1438346761180,376.0
359,1438346761201,376.0
360,1438346761223,374.0
361,1438346761243,374.0
362,1438346761260,374.0
363,1438346761282,374.0
364,1438346761302,376.0
365,1438346761322,376.0
366,1438346761343,384.0
367,1438346761363,384.0
368,1438346761380,393.0
369,1438346761401,393.0
370,1438346761420,400.0
371,1438346761439,400.0
372,1438346761476,405.0
373,1438346761481,405.0
374,1438346761500,410.0
375,1438346761519,410.0
376,1438346761540,416.0
377,1438346761559,428.0
378,1438346761581,428.0
379,1438346761600,446.0
380,1438346761619,446.0
381,1438346761643,464.0
382,1438346761663,464.0
383,1438346761682,475.0
384,1438346761700,475.0
385,1438346761722,475.0
386,1438346761743,475.0
387,1438346761763,471.0
388,1438346761781,471.0
389,1438346761803,470.0
390,1438346761822,470.0
391,1438346761841,469.0
392,1438346761859,469.0
393,1438346761883,468.0
394,1438346761901,468.0
395,1438346761922,465.0
396,1438346761943,465.0
397,1438346761964,459.0
398,1438346761984,453.0
399,1438346762004,453.0
400,1438346762026,447.0
401,1438346762042,447.0
402,1438346762060,441.0
403,1438346762086,441.0
404,1438346762169,432.0
405,1438346762170,432.0
406,1438346762171,422.0
407,1438346762172,422.0
408,1438346762190,411.0
409,1438346762200,411.0
410,1438346762220,400.0
411,1438346762241,400.0
412,1438346762260,393.0
413,1438346762282,393.0
414,1438346762301,387.0
415,1438346762321,387.0
416,1438346762341,382.0
417,1438346762361,374.0
418,1438346762380,374.0
419,1438346762403,364.0
420,1438346762423,364.0
421,1438346762454,362.0
422,1438346762465,362.0
423,1438346762480,364.0
424,1438346762500,364.0
425,1438346762520,367.0
426,1438346762541,367.0
427,1438346762560,368.0
428,1438346762580,368.0
429,1438346762601,367.0
430,1438346762620,367.0
431,1438346762641,361.0
432,1438346762660,361.0
433,1438346762683,353.0
434,1438346762703,353.0
435,1438346762724,346.0
436,1438346762742,349.0
437,1438346762760,349.0
438,1438346762780,356.0
439,1438346762801,356.0
440,1438346762820,364.0
441,1438346762841,364.0
442,1438346762864,370.0
443,1438346762880,370.0
444,1438346762931,376.0
445,1438346762932,376.0
446,1438346762969,371.0
447,1438346762970,371.0
448,1438346762985,364.0
449,1438346763001,364.0
450,1438346763022,359.0
451,1438346763042,359.0
452,1438346763064,358.0
453,1438346763111,358.0
454,1438346763113,358.0
455,1438346763124,361.0
456,1438346763141,361.0
457,1438346763162,359.0
458,1438346763181,359.0
459,1438346763201,348.0
460,1438346763220,348.0
461,1438346763240,341.0
462,1438346763262,341.0
463,1438346763281,344.0
464,1438346763303,344.0
465,1438346763323,363.0
466,1438346763342,363.0
467,1438346763361,387.0
468,1438346763383,387.0
469,1438346763403,400.0
470,1438346764492,400.0
471,1438346764493,401.0
472,1438346764494,401.0
473,1438346764495,389.0
474,1438346764496,374.0
475,1438346764497,374.0
476,1438346764498,364.0
477,1438346764499,364.0
478,1438346764500,357.0
479,1438346764501,357.0
480,1438346764502,349.0
481,1438346764503,349.0
482,1438346764504,339.0
483,1438346764505,339.0
484,1438346764506,326.0
485,1438346764507,326.0
486,1438346764508,319.0
487,1438346764509,319.0
488,1438346764510,320.0
489,1438346764511,320.0
490,1438346764512,326.0
491,1438346764513,326.0
492,1438346764514,332.0
493,1438346764515,335.0
494,1438346764516,335.0
495,1438346764517,336.0
496,1438346764518,336.0
497,1438346764519,341.0
498,1438346764520,341.0
499,1438346764521,348.0
500,1438346764522,348.0
501,1438346764523,352.0
502,1438346764524,352.0
503,1438346764525,353.0
504,1438346764526,353.0
505,1438346764527,352.0
506,1438346764528,352.0
507,1438346764529,348.0
508,1438346764530,348.0
509,1438346764531,340.0
510,1438346764532,340.0
511,1438346764533,335.0
512,1438346764534,335.0
513,1438346764535,334.0
514,1438346764536,337.0
515,1438346764537,337.0
516,1438346764538,338.0
517,1438346764539,338.0
518,1438346764540,335.0
519,1438346764541,335.0
520,1438346764542,335.0
521,1438346764543,335.0
522,1438346764544,338.0
523,1438346764545,338.0
524,1438346764546,334.0
525,1438346764547,334.0
526,1438346764548,334.0
527,1438346764561,334.0
528,1438346764581,338.0
529,1438346764601,338.0
530,1438346764621,342.0
531,1438346764641,342.0
532,1438346764661,343.0
533,1438346764681,346.0
534,1438346764701,346.0
535,1438346764721,348.0
536,1438346764742,348.0
537,1438346764762,346.0
538,1438346764782,346.0
539,1438346764803,338.0
540,1438346764826,338.0
541,1438346764843,327.0
542,1438346764863,327.0
543,1438346764883,322.0
544,1438346764902,322.0
545,1438346764922,324.0
546,1438346764943,324.0
547,1438346764963,328.0
548,1438346764987,328.0
549,1438346765003,329.0
550,1438346765024,329.0
551,1438346765041,327.0
552,1438346765066,324.0
553,1438346765088,324.0
554,1438346765101,322.0
555,1438346765122,322.0
556,1438346765143,320.0
557,1438346765162,320.0
558,1438346765183,315.0
559,1438346765204,315.0
560,1438346765224,313.0
561,1438346765244,313.0
562,1438346765264,316.0
563,1438346765284,316.0
564,1438346765305,322.0
565,1438346765325,322.0
566,1438346765344,323.0
567,1438346765364,323.0
568,1438346765385,322.0
569,1438346765404,322.0
570,1438346765424,323.0
571,1438346765443,328.0
572,1438346765464,328.0
573,1438346765485,336.0
574,1438346765504,336.0
575,1438346765523,340.0
576,1438346765543,340.0
577,1438346765565,335.0
578,1438346765584,335.0
579,1438346765606,332.0
580,1438346765624,332.0
581,1438346765644,329.0
582,1438346765673,329.0
583,1438346765731,327.0
584,1438346765735,327.0
585,1438346765736,327.0
586,1438346765749,327.0
587,1438346765763,326.0
588,1438346765786,326.0
589,1438346765803,325.0
590,1438346765823,324.0
591,1438346765843,324.0
592,1438346765863,323.0
593,1438346765884,323.0
594,1438346765910,322.0
595,1438346765923,322.0
596,1438346765943,324.0
597,1438346765963,324.0
598,1438346765985,324.0
599,1438346766005,324.0
600,1438346766029,325.0
601,1438346766045,325.0
602,1438346766066,324.0
603,1438346766084,324.0
604,1438346766106,324.0
605,1438346766125,324.0
606,1438346766145,322.0
607,1438346766164,322.0
608,1438346766184,321.0
609,1438346766206,321.0
610,1438346766226,321.0
611,1438346766243,321.0
612,1438346766267,321.0
613,1438346766289,321.0
614,1438346766304,321.0
615,1438346766326,322.0
616,1438346766344,322.0
617,1438346766365,323.0
618,1438346766385,323.0
619,1438346766465,323.0
620,1438346766466,323.0
621,1438346766467,323.0
622,1438346766468,323.0
623,1438346766485,322.0
624,1438346766506,322.0
625,1438346766524,322.0
626,1438346766545,322.0
627,1438346766564,323.0
628,1438346766585,323.0
629,1438346766606,323.0
630,1438346766629,323.0
631,1438346766646,323.0
632,1438346766665,323.0
633,1438346766686,323.0
634,1438346766707,323.0
635,1438346766727,323.0
636,1438346766744,323.0
637,1438346766766,323.0
638,1438346766787,324.0
639,1438346766826,324.0
640,1438346766827,324.0
641,1438346766844,324.0
642,1438346766871,324.0
643,1438346766884,324.0
644,1438346766904,324.0
645,1438346766924,324.0
646,1438346766944,324.0
647,1438346766965,324.0
648,1438346766984,324.0
649,1438346767004,324.0
650,1438346767025,324.0
651,1438346767045,324.0
652,1438346767065,324.0
653,1438346767085,324.0
654,1438346767132,324.0
655,1438346767133,324.0
656,1438346767152,324.0
657,1438346767165,324.0
658,1438346767260,324.0
659,1438346767261,324.0
660,1438346767262,324.0
661,1438346767263,324.0
662,1438346767271,324.0
663,1438346767288,324.0
664,1438346767308,324.0
665,1438346767326,325.0
666,1438346767346,325.0
667,1438346767369,325.0
668,1438346767386,325.0
669,1438346767408,325.0
670,1438346767429,325.0
671,1438346767446,325.0
672,1438346767468,325.0
673,1438346767489,325.0
674,1438346767507,325.0
675,1438346767528,325.0
676,1438346767544,325.0
677,1438346767567,325.0
678,1438346767588,325.0
679,1438346767606,325.0
680,1438346767627,325.0
681,1438346767647,325.0
682,1438346767667,325.0
683,1438346767689,325.0
684,1438346767707,325.0
685,1438346767727,325.0
686,1438346767746,325.0
687,1438346767767,325.0
688,1438346767787,325.0
689,1438346767862,325.0
690,1438346767863,325.0
691,1438346767875,325.0
692,1438346767876,325.0
693,1438346767887,325.0
694,1438346767907,325.0
695,1438346767927,325.0
696,1438346767945,325.0
697,1438346767970,325.0
698,1438346767996,325.0
699,1438346768008,325.0
700,1438346768036,325.0
701,1438346768045,325.0
702,1438346768067,325.0
703,1438346768085,325.0
704,1438346768109,325.0
705,1438346768125,325.0
706,1438346768148,325.0
707,1438346768169,325.0
708,1438346768189,326.0
709,1438346768208,326.0
710,1438346768229,326.0
711,1438346768248,326.0
712,1438346768267,325.0
713,1438346768290,325.0
714,1438346768309,325.0
715,1438346768329,325.0
716,1438346768348,325.0
717,1438346768369,325.0
718,1438346768389,325.0
719,1438346768409,325.0
720,1438346768429,326.0
721,1438346768448,326.0
722,1438346768469,325.0
723,1438346768489,325.0
724,1438346768508,326.0
725,1438346768529,326.0
726,1438346768547,326.0
727,1438346768594,326.0
728,1438346768595,326.0
729,1438346768616,326.0
730,1438346768626,326.0
731,1438346768648,326.0
732,1438346768669,326.0
733,1438346768689,325.0
734,1438346768709,325.0
735,1438346768727,326.0
736,1438346768748,326.0
737,1438346768767,326.0
738,1438346768789,326.0
739,1438346768806,326.0
740,1438346768829,326.0
741,1438346768850,326.0
742,1438346768869,326.0
743,1438346768886,326.0
744,1438346768909,326.0
745,1438346768927,326.0
746,1438346768949,326.0
747,1438346768970,326.0
748,1438346768987,326.0
749,1438346769009,326.0
750,1438346769031,326.0
751,1438346769046,326.0
752,1438346769069,326.0
753,1438346769090,326.0
754,1438346769114,326.0
755,1438346769131,326.0
756,1438346769150,326.0
757,1438346769170,326.0
758,1438346769189,326.0
759,1438346769209,326.0
760,1438346769229,326.0
761,1438346769257,326.0
762,1438346769321,325.0
763,1438346769322,325.0
764,1438346769323,326.0
765,1438346769331,326.0
766,1438346769347,326.0
767,1438346769370,326.0
768,1438346769387,326.0
769,1438346769408,326.0
770,1438346769427,326.0
771,1438346769450,326.0
772,1438346769469,326.0
773,1438346769488,326.0
774,1438346769510,326.0
775,1438346769530,326.0
776,1438346769550,326.0
777,1438346769570,326.0
778,1438346769590,326.0
779,1438346769610,326.0
780,1438346769630,326.0
781,1438346769647,326.0
782,1438346769667,326.0
783,1438346769687,326.0
784,1438346769707,326.0
785,1438346769729,326.0
786,1438346769749,326.0
787,1438346769769,326.0
788,1438346769790,326.0
789,1438346769812,326.0
790,1438346769833,326.0
791,1438346769853,326.0
792,1438346769872,326.0
793,1438346769890,326.0
794,1438346769908,326.0
795,1438346769929,326.0
796,1438346769950,327.0
797,1438346769972,327.0
798,1438346770045,326.0
799,1438346770050,326.0
800,1438346770051,326.0
801,1438346770052,326.0
802,1438346770068,326.0
803,1438346770102,327.0
804,1438346770109,327.0
805,1438346770129,327.0
806,1438346770153,327.0
807,1438346770179,326.0
808,1438346770188,326.0
809,1438346770209,326.0
810,1438346770228,326.0
811,1438346770251,327.0
812,1438346770271,327.0
813,1438346770291,326.0
814,1438346770311,326.0
815,1438346770331,326.0
816,1438346770351,326.0
817,1438346770371,326.0
818,1438346770391,326.0
819,1438346770411,326.0
820,1438346770432,326.0
821,1438346770448,326.0
822,1438346770471,326.0
823,1438346770490,326.0
824,1438346770508,326.0
825,1438346770529,326.0
826,1438346770551,326.0
827,1438346770571,326.0
828,1438346770591,326.0
829,1438346770611,326.0
830,1438346770630,326.0
