id,attr_time,attr_x,attr_y,attr_z
1,1437154490056,27.909,-32.231,2.902
2,1437154490145,27.909,-32.231,2.902
3,1437154490146,27.909,-32.231,2.902
4,1437154490147,27.909,-32.231,2.902
5,1437154490148,27.909,-32.231,2.902
6,1437154490157,27.909,-32.231,2.902
7,1437154490176,27.909,-32.231,2.902
8,1437154490199,27.909,-32.231,2.902
9,1437154490216,27.909,-32.231,2.902
10,1437154490236,27.909,-32.231,2.902
11,1437154490258,27.909,-31.925,2.902
12,1437154490281,27.909,-31.925,2.902
13,1437154490309,27.909,-31.925,2.902
14,1437154490320,27.909,-31.925,2.902
15,1437154490338,27.909,-31.925,2.902
16,1437154490358,27.909,-31.925,2.902
17,1437154490378,27.909,-31.925,2.902
18,1437154490400,27.909,-31.925,2.902
19,1437154490418,27.909,-31.925,2.902
20,1437154490437,27.909,-31.925,2.902
21,1437154490457,27.909,-31.925,2.902
22,1437154490478,27.909,-31.925,2.902
23,1437154490498,27.909,-31.925,2.902
24,1437154490517,27.909,-31.925,3.218
25,1437154490542,27.909,-31.925,3.218
26,1437154490556,27.909,-31.925,3.218
27,1437154490577,27.909,-31.925,3.218
28,1437154490601,27.909,-31.925,3.218
29,1437154490623,27.909,-31.925,3.218
30,1437154490640,27.909,-31.925,3.218
31,1437154490657,27.909,-31.925,3.218
32,1437154490676,27.909,-31.925,3.218
33,1437154490697,27.909,-31.925,3.218
34,1437154490721,27.909,-31.925,3.218
35,1437154490740,27.909,-31.925,3.218
36,1437154490757,27.909,-31.925,3.218
37,1437154490776,27.909,-31.925,3.218
38,1437154490799,27.909,-31.925,3.218
39,1437154490889,27.909,-31.925,3.218
40,1437154490890,27.909,-31.925,3.218
41,1437154490891,27.909,-31.925,3.218
42,1437154490892,27.909,-31.925,3.218
43,1437154490906,27.909,-31.925,3.218
44,1437154490918,27.909,-31.925,3.218
45,1437154490937,27.909,-31.925,3.218
46,1437154490957,27.909,-31.925,3.218
47,1437154490985,27.909,-31.925,3.218
48,1437154490996,27.909,-31.925,3.218
49,1437154491019,27.909,-31.925,3.218
50,1437154491046,27.909,-31.925,3.218
51,1437154491057,27.909,-31.925,3.218
52,1437154491077,27.909,-31.925,3.218
53,1437154491100,27.909,-31.925,3.218
54,1437154491120,27.909,-31.925,3.218
55,1437154491139,27.909,-31.925,3.218
56,1437154491158,27.909,-31.925,3.218
57,1437154491178,27.909,-31.925,3.218
58,1437154491198,27.909,-31.925,3.218
59,1437154491217,27.909,-31.925,3.218
60,1437154491237,27.909,-31.925,3.218
61,1437154491273,27.909,-31.925,3.218
62,1437154491279,27.909,-31.925,3.218
63,1437154491297,27.909,-31.925,3.218
64,1437154491321,27.909,-31.925,3.218
65,1437154491338,27.909,-31.925,3.218
66,1437154491360,27.909,-31.925,3.535
67,1437154491383,27.909,-31.925,3.535
68,1437154491401,27.909,-31.925,3.535
69,1437154491423,27.909,-31.925,3.535
70,1437154491440,27.909,-31.925,3.535
71,1437154491460,27.909,-31.925,3.535
72,1437154491477,27.909,-31.925,3.535
73,1437154491498,27.909,-31.925,3.535
74,1437154491518,27.909,-31.925,3.535
75,1437154491589,27.909,-31.925,3.535
76,1437154491590,27.909,-31.925,3.535
77,1437154491591,27.909,-31.925,3.535
78,1437154491610,27.909,-31.925,3.535
79,1437154491617,27.909,-31.925,3.535
80,1437154491639,27.909,-31.925,3.535
81,1437154491660,27.909,-31.925,3.535
82,1437154491677,27.909,-31.925,3.535
83,1437154491697,27.909,-31.925,3.535
84,1437154491718,27.909,-31.925,3.535
85,1437154491739,27.909,-31.925,3.535
86,1437154491758,27.909,-31.925,3.535
87,1437154491778,27.909,-31.925,3.854
88,1437154491799,27.601,-31.925,3.854
89,1437154491820,27.601,-31.925,3.854
90,1437154491839,27.601,-31.925,3.854
91,1437154491887,27.601,-31.925,3.854
92,1437154491888,27.601,-31.925,3.854
93,1437154491904,27.601,-31.925,3.854
94,1437154491917,27.601,-31.925,3.854
95,1437154491937,27.601,-31.925,3.854
96,1437154491958,27.601,-31.925,3.854
97,1437154491980,27.601,-31.925,3.854
98,1437154492012,27.601,-31.925,3.854
99,1437154492017,27.601,-31.925,3.854
100,1437154492038,27.601,-31.925,3.854
101,1437154492062,27.601,-31.925,3.854
102,1437154492176,27.601,-31.925,3.854
103,1437154492177,27.601,-31.925,3.854
104,1437154492178,27.601,-31.925,3.854
105,1437154492179,27.601,-31.925,3.854
106,1437154492180,27.601,-31.925,3.854
107,1437154492181,27.601,-31.925,3.544
108,1437154492197,27.601,-31.925,3.544
109,1437154492217,27.601,-31.925,3.544
110,1437154492238,27.601,-31.925,3.544
111,1437154492257,27.601,-31.925,3.544
112,1437154492277,27.601,-31.925,3.544
113,1437154492297,27.601,-31.925,3.544
114,1437154492321,27.601,-31.925,3.208
115,1437154492337,27.601,-31.925,3.208
116,1437154492357,27.601,-31.925,3.208
117,1437154492381,27.601,-31.925,3.208
118,1437154492396,27.601,-31.925,3.208
119,1437154492416,27.601,-31.623,3.208
120,1437154492436,27.601,-31.623,3.208
121,1437154492456,27.601,-31.623,3.208
122,1437154492476,27.601,-31.623,3.208
123,1437154492497,27.601,-31.623,3.208
124,1437154492516,27.601,-31.623,3.208
125,1437154492536,27.601,-31.623,3.208
126,1437154492557,27.601,-31.623,3.208
127,1437154492577,27.601,-31.623,3.208
128,1437154492597,27.601,-31.623,3.208
129,1437154492617,27.601,-31.623,3.208
130,1437154492637,27.601,-31.623,3.208
131,1437154492659,27.601,-31.623,3.208
132,1437154492680,27.601,-31.623,3.208
133,1437154492699,27.601,-31.623,3.208
134,1437154492719,27.601,-31.623,3.524
135,1437154492740,27.601,-31.623,3.524
136,1437154492758,27.29,-31.942,3.524
137,1437154492778,27.29,-31.942,3.524
138,1437154492798,27.29,-31.942,3.524
139,1437154492818,27.29,-31.942,3.524
140,1437154492839,27.29,-31.942,3.524
141,1437154492863,27.29,-31.942,3.524
142,1437154492878,27.29,-31.942,3.524
143,1437154492899,27.29,-31.942,3.524
144,1437154492951,27.29,-31.942,3.524
145,1437154492952,27.29,-31.942,3.524
146,1437154492959,27.29,-31.942,3.524
147,1437154492979,27.29,-31.942,3.524
148,1437154492998,27.29,-32.258,3.524
149,1437154493018,27.29,-32.258,3.524
150,1437154493039,27.29,-32.258,3.524
151,1437154493058,27.29,-32.258,3.524
152,1437154493078,27.29,-32.258,3.524
153,1437154493101,27.29,-32.258,3.524
154,1437154493118,27.29,-32.258,3.524
155,1437154493138,27.29,-32.258,3.524
156,1437154493159,27.29,-32.258,3.524
157,1437154493180,27.29,-32.258,3.524
158,1437154493200,27.29,-32.258,3.524
159,1437154493218,27.29,-32.258,3.524
160,1437154493239,26.963,-32.258,3.834
161,1437154493263,26.963,-32.258,3.834
162,1437154493281,26.963,-32.258,3.834
163,1437154493306,26.963,-32.258,3.834
164,1437154493326,26.963,-32.258,3.834
165,1437154493339,26.963,-32.258,3.834
166,1437154493361,26.963,-32.258,3.834
167,1437154493379,26.963,-32.563,3.834
168,1437154493399,26.963,-32.563,3.834
169,1437154493419,26.963,-32.563,3.834
170,1437154493440,26.963,-32.563,3.834
171,1437154493461,26.963,-32.563,3.834
172,1437154493480,26.963,-32.563,3.834
173,1437154493499,26.963,-32.563,3.834
174,1437154493519,26.963,-32.563,3.834
175,1437154493540,26.963,-32.563,3.834
176,1437154493567,26.963,-32.563,3.834
177,1437154493621,26.963,-32.563,3.834
178,1437154493622,26.963,-32.563,3.834
179,1437154493623,26.663,-32.563,3.834
180,1437154493640,26.663,-32.563,3.834
181,1437154493660,26.663,-32.563,3.834
182,1437154493682,26.663,-32.563,3.834
183,1437154493699,26.663,-32.563,3.834
184,1437154493722,26.663,-32.563,3.834
185,1437154493741,26.663,-32.563,3.834
186,1437154493759,26.663,-32.563,3.834
187,1437154493780,26.663,-32.563,3.834
188,1437154493800,26.663,-32.563,3.834
189,1437154493822,26.663,-32.563,3.834
190,1437154493842,26.663,-32.563,3.834
191,1437154493862,26.663,-32.563,3.834
192,1437154493881,26.663,-32.563,3.834
193,1437154493899,26.663,-32.563,3.834
194,1437154493920,26.663,-32.87,3.834
195,1437154493942,26.663,-32.87,3.834
196,1437154493962,26.663,-32.87,3.834
197,1437154493982,26.663,-32.87,3.834
198,1437154494001,26.663,-32.87,3.834
199,1437154494029,26.663,-32.87,3.834
200,1437154494041,26.663,-32.87,3.834
201,1437154494060,26.663,-32.87,3.834
202,1437154494082,26.663,-32.87,3.834
203,1437154494100,26.663,-32.87,3.834
204,1437154494130,26.663,-32.87,3.834
205,1437154494141,26.663,-32.87,3.834
206,1437154494160,26.663,-32.87,3.834
207,1437154494180,26.663,-32.87,3.834
208,1437154494200,26.663,-32.87,3.834
209,1437154494220,26.359,-32.87,3.834
210,1437154494240,26.359,-32.87,3.834
211,1437154494264,26.359,-32.87,3.834
212,1437154494402,26.359,-32.87,3.834
213,1437154494403,26.359,-32.87,3.834
214,1437154494404,26.359,-32.87,3.834
215,1437154494405,26.359,-32.87,3.834
216,1437154494409,26.359,-32.87,3.834
217,1437154494410,26.359,-32.87,3.834
218,1437154494411,26.359,-32.87,3.834
219,1437154494421,26.359,-32.87,3.834
220,1437154494441,26.359,-32.87,3.834
221,1437154494460,26.359,-32.87,3.834
222,1437154494480,26.359,-32.87,3.834
223,1437154494501,26.359,-32.87,3.834
224,1437154494521,26.359,-32.87,3.834
225,1437154494541,26.359,-32.87,3.834
226,1437154494561,26.359,-32.87,3.834
227,1437154494584,26.359,-32.87,3.834
228,1437154494602,26.359,-32.87,3.509
229,1437154494623,26.359,-32.87,3.509
230,1437154494642,26.359,-32.87,3.509
231,1437154494662,26.718,-32.87,3.509
232,1437154494681,26.718,-32.87,3.509
233,1437154494702,26.718,-32.87,3.509
234,1437154494723,26.718,-32.87,3.509
235,1437154494743,26.718,-32.87,3.195
236,1437154494763,26.718,-32.87,3.195
237,1437154494782,27.082,-32.87,3.195
238,1437154494805,27.082,-32.568,3.195
239,1437154494823,27.082,-32.568,3.195
240,1437154494842,27.082,-32.568,3.195
241,1437154494860,27.082,-32.568,3.195
242,1437154494881,27.082,-32.568,3.195
243,1437154494902,27.082,-32.568,3.195
244,1437154494923,27.082,-32.568,3.195
245,1437154494944,27.082,-32.568,3.195
246,1437154494963,27.082,-32.568,3.195
247,1437154494984,27.082,-32.568,3.195
248,1437154495004,27.082,-32.568,3.195
249,1437154495022,27.383,-32.568,3.195
250,1437154495122,27.383,-32.568,3.195
251,1437154495123,27.383,-32.568,3.195
252,1437154495124,27.383,-32.568,3.195
253,1437154495125,27.383,-32.568,3.195
254,1437154495126,27.383,-32.568,3.195
255,1437154495142,27.383,-32.568,3.195
256,1437154495173,27.383,-32.568,3.195
257,1437154495185,27.383,-32.568,3.195
258,1437154495201,27.383,-32.568,3.195
259,1437154495222,27.383,-32.568,3.195
260,1437154495241,27.383,-32.568,3.5
261,1437154495265,27.383,-32.568,3.5
262,1437154495291,27.383,-32.568,3.5
263,1437154495312,27.383,-32.568,3.5
264,1437154495326,27.383,-32.568,3.5
265,1437154495346,27.383,-32.568,3.5
266,1437154495364,27.383,-32.568,3.5
267,1437154495385,27.383,-32.568,3.5
268,1437154495404,27.383,-32.568,3.5
269,1437154495423,27.383,-32.568,3.5
270,1437154495441,27.383,-32.568,3.819
271,1437154495461,27.383,-32.568,3.819
272,1437154495535,27.383,-32.568,3.819
273,1437154495536,27.383,-32.568,3.819
274,1437154495537,27.383,-32.568,3.819
275,1437154495541,27.383,-32.568,3.819
276,1437154495561,27.383,-32.257,3.819
277,1437154495582,27.383,-32.257,3.819
278,1437154495608,27.383,-32.257,3.819
279,1437154495625,27.383,-32.257,3.819
280,1437154495641,27.383,-32.257,3.819
281,1437154495661,27.383,-32.257,3.819
282,1437154495681,27.383,-32.257,3.819
283,1437154495701,27.383,-32.257,3.819
284,1437154495722,27.383,-32.257,4.159
285,1437154495741,27.383,-32.257,4.159
286,1437154495762,27.383,-32.257,4.159
287,1437154495790,27.383,-32.257,4.159
288,1437154495811,27.383,-32.257,4.159
289,1437154495850,27.383,-32.257,4.159
290,1437154495851,27.383,-32.257,4.159
291,1437154495867,27.383,-32.257,4.159
292,1437154495881,27.383,-32.257,4.159
293,1437154495912,27.383,-32.257,4.159
294,1437154495922,27.383,-32.257,4.46
295,1437154495941,27.383,-32.257,4.46
296,1437154495962,27.383,-32.257,4.46
297,1437154495983,27.383,-32.257,4.46
298,1437154496005,27.383,-32.257,4.46
299,1437154496025,27.383,-32.257,4.46
300,1437154496042,27.383,-32.257,4.46
301,1437154496066,27.383,-32.257,4.46
302,1437154496082,27.383,-32.257,4.46
303,1437154496104,27.383,-32.257,4.46
304,1437154496124,27.383,-32.257,4.46
305,1437154496144,27.383,-32.257,4.46
306,1437154496164,27.383,-32.257,4.46
307,1437154496184,27.383,-32.257,4.46
308,1437154496207,27.383,-32.257,4.46
309,1437154496225,27.383,-32.257,4.46
310,1437154496248,27.383,-32.257,4.46
311,1437154496266,27.383,-32.257,4.46
312,1437154496286,27.383,-32.257,4.46
313,1437154496310,27.383,-32.257,4.46
314,1437154496336,27.383,-32.257,4.46
315,1437154496350,27.383,-32.257,4.46
316,1437154496362,27.383,-32.257,4.46
317,1437154496385,27.383,-32.257,4.46
318,1437154496404,27.383,-32.257,4.46
319,1437154496422,27.383,-32.257,4.46
320,1437154496442,27.383,-32.257,4.46
321,1437154496463,27.383,-32.257,4.46
322,1437154496488,27.383,-32.257,4.46
323,1437154496505,27.383,-32.257,4.46
324,1437154496524,27.383,-32.257,4.46
325,1437154496616,27.383,-32.257,4.46
326,1437154496617,27.383,-32.257,4.46
327,1437154496618,27.383,-32.257,4.46
328,1437154496619,27.383,-32.257,4.46
329,1437154496642,27.383,-32.257,4.46
330,1437154496643,27.383,-32.257,4.46
331,1437154496662,27.383,-32.257,4.46
332,1437154496682,27.383,-32.257,4.46
333,1437154496702,27.383,-32.257,4.46
334,1437154496736,27.383,-32.257,4.46
335,1437154496756,27.383,-32.257,4.46
336,1437154496763,27.383,-32.257,4.46
337,1437154496782,27.383,-32.257,4.46
338,1437154496802,27.383,-32.257,4.46
339,1437154496822,27.383,-32.257,4.46
340,1437154496845,27.383,-32.257,4.46
341,1437154496864,27.383,-32.257,4.46
342,1437154496888,27.383,-32.257,4.46
343,1437154496905,27.383,-32.257,4.46
344,1437154496924,27.383,-32.257,4.116
345,1437154496944,27.383,-32.257,4.116
346,1437154496962,27.383,-32.257,4.116
347,1437154496984,27.383,-32.257,4.116
348,1437154497009,27.383,-32.257,4.116
349,1437154497026,27.383,-32.257,4.116
350,1437154497045,27.383,-32.257,4.116
351,1437154497065,27.383,-32.257,3.816
352,1437154497083,27.383,-32.257,3.816
353,1437154497115,27.383,-32.257,3.816
354,1437154497132,27.383,-32.257,3.816
355,1437154497154,27.383,-32.257,3.816
356,1437154497163,27.383,-32.257,3.816
357,1437154497184,27.383,-32.257,3.816
358,1437154497205,27.383,-32.257,3.816
359,1437154497225,27.383,-32.257,3.816
360,1437154497244,27.383,-32.257,3.816
361,1437154497429,27.383,-32.257,3.816
362,1437154497430,27.383,-32.257,3.509
363,1437154497431,27.383,-32.257,3.509
364,1437154497432,27.383,-32.257,3.509
365,1437154497433,27.383,-32.257,3.509
366,1437154497434,27.383,-32.257,3.509
367,1437154497435,27.383,-32.257,3.509
368,1437154497436,27.383,-32.257,3.509
369,1437154497437,27.383,-32.257,3.509
370,1437154497587,27.383,-32.257,3.509
371,1437154497588,27.383,-32.257,3.509
372,1437154497589,27.383,-32.257,3.509
373,1437154497590,27.383,-32.257,3.509
374,1437154497591,27.383,-32.257,3.509
375,1437154497592,27.383,-32.257,3.509
376,1437154497593,27.383,-32.257,3.509
377,1437154497594,27.383,-32.257,3.509
378,1437154497605,27.383,-32.257,3.509
379,1437154497624,27.383,-32.257,3.509
380,1437154497645,27.383,-32.257,3.509
381,1437154497663,27.383,-32.257,3.509
382,1437154497756,27.383,-32.257,3.509
383,1437154497757,27.383,-32.257,3.509
384,1437154497758,27.383,-32.257,3.509
385,1437154497759,27.383,-32.257,3.509
386,1437154497762,27.383,-32.257,3.509
387,1437154497782,27.383,-32.257,3.509
388,1437154497802,27.383,-32.257,3.509
389,1437154497822,27.383,-32.257,3.509
390,1437154497842,27.383,-32.257,3.509
391,1437154497862,27.383,-32.257,3.509
392,1437154497882,27.078,-32.257,3.509
393,1437154497918,27.078,-32.257,3.509
394,1437154497922,27.078,-32.257,3.509
395,1437154497942,27.078,-32.257,3.509
396,1437154497962,27.078,-32.257,3.831
397,1437154497982,27.078,-32.257,3.831
398,1437154498002,27.078,-32.257,3.831
399,1437154498022,27.078,-32.257,3.831
400,1437154498042,27.078,-32.257,3.831
401,1437154498062,27.078,-32.257,3.831
402,1437154498083,27.078,-32.257,3.831
403,1437154498102,27.078,-32.257,3.831
404,1437154498122,27.078,-32.257,3.831
405,1437154498142,27.078,-32.257,3.831
406,1437154498162,27.078,-32.257,3.831
407,1437154498184,27.078,-32.257,3.831
408,1437154498206,27.078,-32.257,3.831
409,1437154498224,27.078,-32.257,3.831
410,1437154498243,27.078,-32.257,3.831
411,1437154498264,27.078,-32.257,4.159
412,1437154498286,27.078,-32.257,4.159
413,1437154498306,27.078,-32.257,4.159
414,1437154498324,27.078,-32.257,4.159
415,1437154498346,27.078,-32.257,4.159
416,1437154498364,27.078,-32.257,4.159
417,1437154498383,27.078,-32.257,4.159
418,1437154498404,27.078,-32.257,4.159
419,1437154498425,27.078,-32.257,4.159
420,1437154498448,27.078,-32.257,4.159
421,1437154498465,27.078,-32.257,4.159
422,1437154498487,27.078,-32.56,4.159
423,1437154498504,27.078,-32.56,4.159
424,1437154498524,27.078,-32.56,4.159
425,1437154498545,27.078,-32.56,4.159
426,1437154498567,27.078,-32.56,4.159
427,1437154498587,27.078,-32.56,4.159
428,1437154498608,27.078,-32.56,4.159
429,1437154498627,27.078,-32.56,4.159
430,1437154498645,27.078,-32.56,4.159
431,1437154498664,27.078,-32.56,4.159
432,1437154498688,27.078,-32.56,4.159
433,1437154498706,27.078,-32.56,4.159
434,1437154498724,27.078,-32.56,4.159
435,1437154498784,27.078,-32.56,4.159
436,1437154498785,27.078,-32.56,4.159
437,1437154498786,27.078,-32.56,4.159
438,1437154498805,27.078,-32.56,4.159
439,1437154498825,27.078,-32.56,4.159
440,1437154498847,27.078,-32.56,4.159
441,1437154498864,27.078,-32.56,4.159
442,1437154498885,27.078,-32.56,4.159
443,1437154498907,27.078,-32.56,4.159
444,1437154498926,27.078,-32.56,4.159
445,1437154498947,27.078,-32.56,4.159
446,1437154498964,27.078,-32.56,4.159
447,1437154498988,27.078,-32.56,4.159
448,1437154499006,27.078,-32.56,4.159
449,1437154499027,27.078,-32.56,4.159
450,1437154499046,27.078,-32.56,4.159
451,1437154499065,27.078,-32.56,4.159
452,1437154499084,27.078,-32.56,4.159
453,1437154499107,27.078,-32.56,4.159
454,1437154499126,27.078,-32.56,4.159
455,1437154499148,27.078,-32.56,4.159
456,1437154499169,27.078,-32.56,4.159
457,1437154499190,27.078,-32.56,4.159
458,1437154499207,27.078,-32.56,4.159
459,1437154499227,27.078,-32.56,4.159
460,1437154499245,27.078,-32.56,4.159
461,1437154499264,27.078,-32.56,4.159
462,1437154499284,27.078,-32.56,4.159
463,1437154499305,27.389,-32.56,4.159
464,1437154499326,27.389,-32.56,4.159
465,1437154499350,27.389,-32.56,4.159
466,1437154499366,27.389,-32.212,3.857
467,1437154499396,27.389,-32.212,3.857
468,1437154499407,27.389,-32.212,3.857
469,1437154499437,27.389,-32.212,3.857
470,1437154499448,27.731,-32.212,3.857
471,1437154499468,27.731,-32.212,3.857
472,1437154499539,27.731,-32.212,3.857
473,1437154499540,27.731,-31.887,3.857
474,1437154499541,27.731,-31.887,3.857
475,1437154499549,27.731,-31.887,3.857
476,1437154499567,27.731,-31.887,3.857
477,1437154499589,27.731,-31.887,4.177
478,1437154499606,27.731,-31.887,4.177
479,1437154499626,28.036,-31.579,4.177
480,1437154499647,28.036,-31.579,4.177
481,1437154499666,28.036,-31.579,4.177
482,1437154499686,28.036,-31.579,4.177
483,1437154499706,28.036,-31.579,4.489
484,1437154499728,28.036,-31.579,4.489
485,1437154499748,28.036,-31.579,4.489
486,1437154499769,28.036,-31.579,4.489
487,1437154499788,28.036,-31.579,4.489
488,1437154499808,28.036,-31.579,4.489
489,1437154499827,28.036,-31.579,4.489
490,1437154499846,28.036,-31.579,4.489
491,1437154499865,28.036,-31.579,4.489
492,1437154499885,28.036,-31.579,4.814
493,1437154499905,28.036,-31.579,4.814
494,1437154499927,28.036,-31.579,4.814
495,1437154499946,28.036,-31.579,4.814
496,1437154499967,28.036,-31.579,4.814
497,1437154499987,28.036,-31.579,4.814
498,1437154500007,28.036,-31.579,4.814
499,1437154500027,28.036,-31.579,4.814
500,1437154500052,28.036,-31.579,4.814
501,1437154500072,28.036,-31.579,4.814
502,1437154500088,28.036,-31.579,4.814
503,1437154500107,28.036,-31.579,4.814
504,1437154500128,28.036,-31.579,4.814
505,1437154500149,28.036,-31.579,4.814
506,1437154500169,28.036,-31.579,4.814
507,1437154500187,28.036,-31.579,4.508
508,1437154500211,28.036,-31.579,4.508
509,1437154500328,28.036,-31.579,4.508
510,1437154500329,28.036,-31.579,4.508
511,1437154500330,28.036,-31.579,4.508
512,1437154500331,28.036,-31.579,4.508
513,1437154500340,28.036,-31.579,4.508
514,1437154500342,28.036,-31.579,4.508
515,1437154500350,28.036,-31.579,4.508
516,1437154500378,28.036,-31.579,4.508
517,1437154500386,28.036,-31.579,4.508
518,1437154500418,28.036,-31.579,4.508
519,1437154500426,27.725,-31.579,4.508
