id,attr_time,attr_light
1,1437228625015,110.0
2,1437228625036,110.0
3,1437228625061,110.0
4,1437228625078,110.0
5,1437228625101,110.0
6,1437228625115,110.0
7,1437228625136,110.0
8,1437228625155,110.0
9,1437228625175,110.0
10,1437228625195,110.0
11,1437228625215,110.0
12,1437228625235,110.0
13,1437228625256,110.0
14,1437228625276,110.0
15,1437228625296,110.0
16,1437228625320,110.0
17,1437228625396,110.0
18,1437228625397,110.0
19,1437228625398,110.0
20,1437228625399,110.0
21,1437228625416,110.0
22,1437228625440,109.0
23,1437228625455,109.0
24,1437228625475,110.0
25,1437228625496,110.0
26,1437228625518,110.0
27,1437228625540,110.0
28,1437228625556,110.0
29,1437228625577,110.0
30,1437228625599,110.0
31,1437228625616,110.0
32,1437228625641,110.0
33,1437228625656,110.0
34,1437228625678,110.0
35,1437228625699,110.0
36,1437228625746,110.0
37,1437228625747,111.0
38,1437228625757,111.0
39,1437228625778,111.0
40,1437228625797,111.0
41,1437228625819,111.0
42,1437228625836,111.0
43,1437228625855,111.0
44,1437228625876,110.0
45,1437228625898,110.0
46,1437228625919,110.0
47,1437228625942,110.0
48,1437228625958,111.0
49,1437228625978,111.0
50,1437228625997,111.0
51,1437228626027,111.0
52,1437228626163,111.0
53,1437228626164,111.0
54,1437228626165,112.0
55,1437228626166,112.0
56,1437228626167,112.0
57,1437228626168,112.0
58,1437228626169,112.0
59,1437228626196,112.0
60,1437228626199,112.0
61,1437228626226,113.0
62,1437228626236,113.0
63,1437228626256,113.0
64,1437228626276,113.0
65,1437228626300,114.0
66,1437228626327,114.0
67,1437228626356,114.0
68,1437228626357,114.0
69,1437228626377,114.0
70,1437228626396,114.0
71,1437228626416,115.0
72,1437228626442,115.0
73,1437228626457,115.0
74,1437228626476,115.0
75,1437228626497,115.0
76,1437228626520,115.0
77,1437228626539,115.0
78,1437228626563,115.0
79,1437228626577,115.0
80,1437228626600,115.0
81,1437228626621,115.0
82,1437228626641,115.0
83,1437228626658,115.0
84,1437228626677,115.0
85,1437228626698,115.0
86,1437228626720,115.0
87,1437228626740,115.0
88,1437228626760,115.0
89,1437228626778,115.0
90,1437228626799,115.0
91,1437228626819,116.0
92,1437228626836,116.0
93,1437228626866,115.0
94,1437228626881,115.0
95,1437228626899,116.0
96,1437228626916,116.0
97,1437228626939,116.0
98,1437228626958,116.0
99,1437228626977,116.0
100,1437228626997,116.0
101,1437228627020,116.0
102,1437228627040,116.0
103,1437228627060,116.0
104,1437228627076,116.0
105,1437228627100,116.0
106,1437228627120,116.0
107,1437228627136,116.0
108,1437228627160,116.0
109,1437228627177,116.0
110,1437228627200,117.0
111,1437228627219,117.0
112,1437228627241,117.0
113,1437228627260,117.0
114,1437228627277,118.0
115,1437228627300,118.0
116,1437228627320,118.0
117,1437228627340,118.0
118,1437228627360,118.0
119,1437228627380,119.0
120,1437228627400,119.0
121,1437228627421,119.0
122,1437228627440,119.0
123,1437228627460,120.0
124,1437228627482,120.0
125,1437228627497,120.0
126,1437228627554,120.0
127,1437228627555,120.0
128,1437228627567,120.0
129,1437228627577,120.0
130,1437228627605,120.0
131,1437228627620,120.0
132,1437228627639,121.0
133,1437228627661,121.0
134,1437228627678,121.0
135,1437228627699,121.0
136,1437228627719,121.0
137,1437228627740,121.0
138,1437228627758,121.0
139,1437228627781,121.0
140,1437228627801,121.0
141,1437228627821,121.0
142,1437228627841,122.0
143,1437228627871,122.0
144,1437228627877,123.0
145,1437228627897,123.0
146,1437228627917,123.0
147,1437228627938,123.0
148,1437228627958,123.0
149,1437228627981,123.0
150,1437228628000,123.0
151,1437228628018,123.0
152,1437228628040,123.0
153,1437228628063,123.0
154,1437228628082,123.0
155,1437228628101,122.0
156,1437228628121,122.0
157,1437228628139,122.0
158,1437228628159,122.0
159,1437228628180,122.0
160,1437228628200,123.0
161,1437228628218,123.0
162,1437228628272,124.0
163,1437228628273,124.0
164,1437228628289,125.0
165,1437228628300,125.0
166,1437228628325,125.0
167,1437228628338,125.0
168,1437228628360,125.0
169,1437228628378,125.0
170,1437228628398,125.0
171,1437228628419,125.0
172,1437228628443,126.0
173,1437228628458,126.0
174,1437228628478,126.0
175,1437228628499,125.0
176,1437228628520,125.0
177,1437228628542,126.0
178,1437228628562,126.0
179,1437228628582,126.0
180,1437228628602,126.0
181,1437228628618,126.0
182,1437228628642,126.0
183,1437228628662,126.0
184,1437228628683,126.0
185,1437228628699,127.0
186,1437228628722,126.0
187,1437228628742,126.0
188,1437228628762,126.0
189,1437228628782,126.0
190,1437228628801,126.0
191,1437228628822,126.0
192,1437228628841,126.0
193,1437228628862,126.0
194,1437228628882,127.0
195,1437228628902,127.0
196,1437228628924,127.0
197,1437228628941,127.0
198,1437228628961,128.0
199,1437228629034,128.0
200,1437228629035,127.0
201,1437228629038,127.0
202,1437228629039,127.0
203,1437228629062,127.0
204,1437228629083,127.0
205,1437228629099,127.0
206,1437228629119,127.0
207,1437228629152,127.0
208,1437228629160,127.0
209,1437228629181,127.0
210,1437228629199,127.0
211,1437228629222,127.0
212,1437228629242,127.0
213,1437228629262,128.0
214,1437228629282,128.0
215,1437228629302,128.0
216,1437228629319,128.0
217,1437228629342,128.0
218,1437228629362,128.0
219,1437228629380,128.0
220,1437228629402,128.0
221,1437228629423,128.0
222,1437228629440,128.0
223,1437228629462,128.0
224,1437228629482,129.0
225,1437228629503,129.0
226,1437228629522,129.0
227,1437228629542,129.0
228,1437228629563,129.0
229,1437228629583,129.0
230,1437228629603,129.0
231,1437228629623,130.0
232,1437228629644,130.0
233,1437228629663,130.0
234,1437228629683,130.0
235,1437228629707,132.0
236,1437228629766,132.0
237,1437228629767,133.0
238,1437228629768,133.0
239,1437228629791,135.0
240,1437228629800,135.0
241,1437228629828,135.0
242,1437228629841,135.0
243,1437228629864,135.0
244,1437228629880,134.0
245,1437228629900,134.0
246,1437228629920,133.0
247,1437228629946,133.0
248,1437228629961,133.0
249,1437228629980,133.0
250,1437228630000,134.0
251,1437228630020,134.0
252,1437228630046,134.0
253,1437228630060,134.0
254,1437228630082,134.0
255,1437228630103,134.0
256,1437228630120,134.0
257,1437228630140,134.0
258,1437228630159,135.0
259,1437228630179,135.0
260,1437228630199,135.0
261,1437228630219,135.0
262,1437228630239,135.0
263,1437228630259,136.0
264,1437228630279,136.0
265,1437228630299,136.0
266,1437228630319,136.0
267,1437228630338,136.0
268,1437228630358,136.0
269,1437228630378,136.0
270,1437228630398,136.0
271,1437228630419,136.0
272,1437228630439,136.0
273,1437228630459,136.0
274,1437228630479,137.0
275,1437228630498,137.0
276,1437228630518,138.0
277,1437228630538,138.0
278,1437228630558,138.0
279,1437228630579,138.0
280,1437228630601,139.0
281,1437228630622,139.0
282,1437228630641,139.0
283,1437228630663,139.0
284,1437228630683,139.0
285,1437228630737,139.0
286,1437228630738,140.0
287,1437228630740,140.0
288,1437228630760,140.0
289,1437228630783,140.0
290,1437228630800,140.0
291,1437228630820,140.0
292,1437228630840,140.0
293,1437228630860,139.0
294,1437228630880,139.0
295,1437228630902,138.0
296,1437228630920,138.0
297,1437228630943,138.0
298,1437228630961,138.0
299,1437228630984,138.0
300,1437228631003,138.0
301,1437228631020,138.0
302,1437228631040,138.0
303,1437228631060,138.0
304,1437228631084,138.0
305,1437228631100,138.0
306,1437228631120,137.0
307,1437228631140,137.0
308,1437228631160,137.0
309,1437228631180,137.0
310,1437228631200,137.0
311,1437228631220,137.0
312,1437228631240,137.0
313,1437228631260,137.0
314,1437228631280,137.0
315,1437228631300,136.0
316,1437228631320,136.0
317,1437228631340,136.0
318,1437228631360,136.0
319,1437228631380,137.0
320,1437228631400,137.0
321,1437228631421,137.0
322,1437228631440,137.0
323,1437228631461,137.0
324,1437228631481,137.0
325,1437228631501,137.0
326,1437228631522,137.0
327,1437228631544,138.0
328,1437228631564,138.0
329,1437228631580,139.0
330,1437228631602,139.0
331,1437228631620,139.0
332,1437228631651,139.0
333,1437228631662,139.0
334,1437228631681,140.0
335,1437228631702,140.0
336,1437228631723,141.0
337,1437228631742,141.0
338,1437228631762,142.0
339,1437228631781,142.0
340,1437228631805,144.0
341,1437228631822,144.0
342,1437228631845,144.0
343,1437228631862,145.0
344,1437228631881,145.0
345,1437228631901,146.0
346,1437228631925,146.0
347,1437228631941,147.0
348,1437228631961,147.0
349,1437228631981,148.0
350,1437228632003,148.0
351,1437228632023,149.0
352,1437228632041,149.0
353,1437228632062,150.0
354,1437228632084,150.0
355,1437228632103,150.0
356,1437228632124,150.0
357,1437228632144,151.0
358,1437228632165,151.0
359,1437228632185,151.0
360,1437228632202,151.0
361,1437228632223,151.0
362,1437228632244,152.0
363,1437228632264,152.0
364,1437228632334,152.0
365,1437228632335,152.0
366,1437228632336,152.0
367,1437228632347,152.0
368,1437228632362,152.0
369,1437228632417,152.0
370,1437228632418,152.0
371,1437228632422,152.0
372,1437228632442,152.0
373,1437228632465,152.0
374,1437228632482,152.0
375,1437228632506,152.0
376,1437228632525,152.0
377,1437228632543,152.0
378,1437228632565,152.0
379,1437228632585,152.0
380,1437228632603,152.0
381,1437228632626,152.0
382,1437228632645,152.0
383,1437228632665,152.0
384,1437228632685,152.0
385,1437228632706,152.0
386,1437228632723,153.0
387,1437228632745,153.0
388,1437228632763,154.0
389,1437228632782,154.0
390,1437228632803,157.0
391,1437228632828,157.0
392,1437228632848,160.0
393,1437228632868,160.0
394,1437228632885,163.0
395,1437228632904,163.0
396,1437228632926,167.0
397,1437228632943,167.0
398,1437228633066,175.0
399,1437228633067,175.0
400,1437228633068,186.0
401,1437228633069,197.0
402,1437228633070,197.0
403,1437228633071,202.0
404,1437228633083,202.0
405,1437228633109,201.0
406,1437228633123,201.0
407,1437228633143,204.0
408,1437228633166,204.0
409,1437228633185,205.0
410,1437228633204,205.0
411,1437228633224,210.0
412,1437228633260,210.0
413,1437228633263,218.0
414,1437228633283,231.0
415,1437228633303,231.0
416,1437228633323,248.0
417,1437228633344,248.0
418,1437228633366,266.0
419,1437228633383,266.0
420,1437228633406,277.0
421,1437228633426,277.0
422,1437228633446,283.0
423,1437228633504,283.0
424,1437228633505,293.0
425,1437228633506,293.0
426,1437228633561,304.0
427,1437228633562,304.0
428,1437228633563,311.0
429,1437228633583,315.0
430,1437228633603,315.0
431,1437228633623,318.0
432,1437228633644,318.0
433,1437228633663,321.0
434,1437228633682,321.0
435,1437228633718,323.0
436,1437228633722,323.0
437,1437228633743,320.0
438,1437228633769,320.0
439,1437228633782,314.0
440,1437228633803,314.0
441,1437228633823,310.0
442,1437228633845,310.0
443,1437228633862,308.0
444,1437228633882,310.0
445,1437228633902,310.0
446,1437228633922,312.0
447,1437228633942,312.0
448,1437228633962,316.0
449,1437228633982,316.0
450,1437228634002,321.0
451,1437228634022,321.0
452,1437228634042,327.0
453,1437228634062,327.0
454,1437228634082,333.0
455,1437228634102,333.0
456,1437228634122,340.0
457,1437228634145,348.0
458,1437228634164,348.0
459,1437228634184,355.0
460,1437228634206,355.0
461,1437228634226,358.0
462,1437228634244,358.0
463,1437228634264,360.0
464,1437228634284,360.0
465,1437228634305,363.0
466,1437228634326,363.0
467,1437228634344,367.0
468,1437228634365,367.0
469,1437228634407,376.0
470,1437228634408,376.0
471,1437228634425,389.0
472,1437228634444,397.0
473,1437228634465,397.0
474,1437228634487,400.0
475,1437228634503,400.0
476,1437228634524,408.0
477,1437228634543,408.0
478,1437228634565,419.0
479,1437228634588,419.0
480,1437228634608,431.0
481,1437228634625,431.0
482,1437228634645,443.0
483,1437228634664,443.0
484,1437228634686,455.0
485,1437228634707,466.0
486,1437228634727,466.0
487,1437228634745,475.0
488,1437228634765,475.0
489,1437228634786,485.0
490,1437228634805,485.0
491,1437228634827,492.0
492,1437228634844,492.0
493,1437228634865,498.0
494,1437228634888,498.0
495,1437228634907,505.0
496,1437228634930,505.0
497,1437228634950,510.0
498,1437228634967,510.0
499,1437228634991,513.0
500,1437228635006,518.0
501,1437228635025,518.0
502,1437228635053,519.0
503,1437228635110,519.0
504,1437228635111,522.0
505,1437228635112,522.0
506,1437228635134,523.0
507,1437228635145,523.0
508,1437228635173,523.0
509,1437228635185,523.0
510,1437228635205,524.0
511,1437228635225,524.0
512,1437228635247,526.0
513,1437228635266,526.0
514,1437228635285,529.0
515,1437228635305,532.0
516,1437228635325,532.0
517,1437228635348,533.0
518,1437228635367,533.0
519,1437228635386,535.0
520,1437228635405,535.0
521,1437228635426,538.0
522,1437228635448,538.0
523,1437228635466,540.0
524,1437228635486,540.0
525,1437228635506,540.0
526,1437228635527,540.0
527,1437228635548,540.0
528,1437228635565,542.0
529,1437228635587,542.0
530,1437228635606,546.0
531,1437228635628,546.0
532,1437228635648,547.0
533,1437228635668,547.0
534,1437228635686,548.0
535,1437228635708,548.0
536,1437228635757,550.0
537,1437228635758,550.0
538,1437228635773,552.0
539,1437228635846,552.0
540,1437228635847,554.0
541,1437228635848,554.0
542,1437228635849,556.0
543,1437228635865,559.0
544,1437228635886,559.0
545,1437228635905,562.0
546,1437228635927,562.0
547,1437228635948,564.0
548,1437228635976,564.0
549,1437228635988,567.0
550,1437228636008,567.0
551,1437228636027,570.0
552,1437228636048,570.0
553,1437228636069,573.0
554,1437228636088,573.0
555,1437228636109,578.0
556,1437228636129,581.0
557,1437228636147,581.0
558,1437228636170,584.0
559,1437228636186,584.0
560,1437228636208,588.0
561,1437228636228,588.0
562,1437228636248,596.0
563,1437228636269,596.0
564,1437228636286,596.0
565,1437228636309,596.0
566,1437228636328,594.0
567,1437228636348,594.0
568,1437228636368,597.0
569,1437228636390,597.0
570,1437228636406,610.0
571,1437228636429,612.0
572,1437228636447,612.0
573,1437228636468,616.0
574,1437228636497,616.0
575,1437228636556,616.0
576,1437228636557,616.0
577,1437228636558,618.0
578,1437228636572,618.0
579,1437228636587,622.0
580,1437228636611,622.0
581,1437228636628,625.0
582,1437228636648,625.0
583,1437228636670,627.0
584,1437228636687,627.0
585,1437228636707,619.0
586,1437228636726,620.0
587,1437228636749,620.0
588,1437228636770,633.0
589,1437228636790,633.0
590,1437228636807,632.0
591,1437228636828,632.0
592,1437228636848,629.0
593,1437228636870,629.0
594,1437228636889,627.0
595,1437228636909,627.0
596,1437228636930,625.0
597,1437228636956,625.0
598,1437228636970,624.0
599,1437228636999,625.0
600,1437228637009,625.0
601,1437228637029,628.0
602,1437228637048,628.0
603,1437228637067,631.0
604,1437228637087,631.0
605,1437228637193,636.0
606,1437228637194,636.0
607,1437228637195,639.0
608,1437228637196,639.0
609,1437228637197,641.0
610,1437228637209,641.0
611,1437228637281,644.0
612,1437228637282,644.0
613,1437228637283,649.0
614,1437228637309,657.0
615,1437228637310,657.0
616,1437228637327,667.0
617,1437228637347,667.0
618,1437228637368,677.0
619,1437228637387,677.0
620,1437228637407,689.0
621,1437228637427,689.0
622,1437228637452,716.0
623,1437228637467,716.0
624,1437228637487,740.0
625,1437228637507,740.0
626,1437228637527,750.0
627,1437228637547,760.0
628,1437228637567,760.0
629,1437228637587,769.0
630,1437228637607,769.0
631,1437228637627,785.0
632,1437228637647,785.0
633,1437228637668,797.0
634,1437228637686,797.0
635,1437228637706,804.0
636,1437228637744,804.0
637,1437228637746,806.0
638,1437228637766,806.0
639,1437228637787,808.0
640,1437228637806,808.0
641,1437228637827,806.0
642,1437228637851,806.0
643,1437228637871,806.0
644,1437228637890,806.0
645,1437228637908,806.0
646,1437228637928,805.0
647,1437228637949,805.0
648,1437228637967,805.0
649,1437228637986,805.0
650,1437228638006,805.0
651,1437228638031,805.0
652,1437228638048,805.0
653,1437228638067,805.0
654,1437228638087,804.0
655,1437228638111,804.0
656,1437228638129,807.0
657,1437228638152,813.0
658,1437228638171,813.0
659,1437228638191,823.0
660,1437228638207,823.0
661,1437228638231,834.0
662,1437228638251,834.0
663,1437228638271,844.0
664,1437228638291,844.0
665,1437228638311,855.0
666,1437228638333,855.0
667,1437228638352,866.0
668,1437228638372,866.0
669,1437228638390,876.0
670,1437228638410,887.0
671,1437228638427,887.0
672,1437228638450,898.0
673,1437228638473,898.0
674,1437228638493,911.0
675,1437228638514,911.0
676,1437228638531,925.0
677,1437228638547,925.0
678,1437228638580,939.0
679,1437228638588,939.0
680,1437228638607,958.0
681,1437228638627,958.0
682,1437228638654,977.0
683,1437228638668,977.0
684,1437228638688,991.0
685,1437228638709,998.0
686,1437228638729,998.0
687,1437228638751,1004.0
688,1437228638772,1004.0
689,1437228638788,1013.0
690,1437228638812,1013.0
691,1437228638831,1022.0
692,1437228638852,1022.0
693,1437228638870,1032.0
694,1437228638891,1032.0
695,1437228638912,1041.0
696,1437228638933,1041.0
697,1437228638949,1051.0
698,1437228638969,1051.0
699,1437228638991,1057.0
700,1437228639011,1063.0
701,1437228639032,1063.0
702,1437228639051,1063.0
703,1437228639070,1063.0
704,1437228639090,1054.0
705,1437228639112,1054.0
706,1437228639132,1039.0
707,1437228639154,1039.0
708,1437228639174,1024.0
709,1437228639191,1024.0
710,1437228639214,1015.0
711,1437228639277,1015.0
712,1437228639278,1004.0
713,1437228639279,991.0
714,1437228639289,991.0
715,1437228639309,980.0
716,1437228639337,980.0
717,1437228639350,976.0
718,1437228639371,976.0
719,1437228639391,979.0
720,1437228639409,979.0
721,1437228639432,986.0
722,1437228639456,986.0
723,1437228639471,997.0
724,1437228639493,997.0
725,1437228639512,1016.0
726,1437228639532,1016.0
727,1437228639552,1045.0
728,1437228639572,1079.0
729,1437228639592,1079.0
730,1437228639612,1108.0
731,1437228639632,1108.0
732,1437228639652,1117.0
733,1437228639672,1117.0
734,1437228639690,1116.0
735,1437228639712,1116.0
736,1437228639732,1118.0
737,1437228639753,1118.0
738,1437228639772,1126.0
739,1437228639790,1126.0
740,1437228639812,1138.0
741,1437228639833,1151.0
742,1437228639852,1151.0
743,1437228639872,1166.0
744,1437228639890,1166.0
745,1437228639911,1187.0
746,1437228639932,1187.0
747,1437228639952,1213.0
748,1437228639970,1213.0
749,1437228640024,1241.0
750,1437228640025,1241.0
751,1437228640041,1268.0
752,1437228640050,1268.0
753,1437228640073,1290.0
754,1437228640092,1290.0
755,1437228640110,1307.0
756,1437228640132,1322.0
757,1437228640153,1322.0
758,1437228640172,1332.0
759,1437228640198,1332.0
760,1437228640210,1337.0
761,1437228640233,1337.0
762,1437228640253,1335.0
763,1437228640273,1335.0
764,1437228640293,1331.0
765,1437228640310,1331.0
766,1437228640333,1322.0
767,1437228640353,1322.0
768,1437228640373,1313.0
769,1437228640392,1313.0
770,1437228640413,1304.0
771,1437228640432,1295.0
772,1437228640453,1295.0
773,1437228640473,1284.0
774,1437228640493,1284.0
775,1437228640510,1277.0
776,1437228640533,1277.0
777,1437228640553,1281.0
778,1437228640573,1281.0
779,1437228640593,1311.0
780,1437228640612,1311.0
781,1437228640633,1337.0
782,1437228640652,1337.0
783,1437228640672,1360.0
784,1437228640703,1395.0
785,1437228640772,1395.0
786,1437228640773,1431.0
787,1437228640774,1431.0
788,1437228640775,1444.0
789,1437228640792,1444.0
790,1437228640812,1417.0
791,1437228640831,1417.0
792,1437228640850,1433.0
793,1437228640874,1433.0
794,1437228640890,1476.0
795,1437228640914,1476.0
796,1437228640931,1506.0
797,1437228640953,1506.0
798,1437228640972,1545.0
799,1437228640993,1611.0
800,1437228641031,1611.0
801,1437228641032,1645.0
802,1437228641067,1645.0
803,1437228641071,1610.0
804,1437228641090,1610.0
805,1437228641110,1616.0
806,1437228641131,1616.0
807,1437228641151,1657.0
808,1437228641171,1657.0
809,1437228641193,1818.0
810,1437228641211,1818.0
811,1437228641231,2204.0
812,1437228641250,2204.0
813,1437228641270,2743.0
814,1437228641290,4263.0
815,1437228641312,4263.0
816,1437228641331,6080.0
817,1437228641353,6080.0
818,1437228641373,6787.0
819,1437228641391,6787.0
820,1437228641413,7053.0
821,1437228641461,7053.0
822,1437228641462,7290.0
823,1437228641480,7290.0
824,1437228641490,7404.0
825,1437228641510,7404.0
826,1437228641530,7382.0
827,1437228641552,7377.0
828,1437228641572,7377.0
829,1437228641592,7322.0
830,1437228641611,7322.0
831,1437228641631,7263.0
