id,attr_time,attr_light
1,1436898151014,0.0
2,1436898151032,0.0
3,1436898151053,0.0
4,1436898151073,0.0
5,1436898151091,0.0
6,1436898151110,0.0
7,1436898151131,0.0
8,1436898151149,0.0
9,1436898151170,0.0
10,1436898151192,0.0
11,1436898151211,0.0
12,1436898151230,0.0
13,1436898151251,0.0
14,1436898151273,0.0
15,1436898151290,0.0
16,1436898151312,0.0
17,1436898151332,0.0
18,1436898151350,0.0
19,1436898151373,0.0
20,1436898151393,0.0
21,1436898151414,0.0
22,1436898151434,0.0
23,1436898151453,0.0
24,1436898151473,0.0
25,1436898151492,0.0
26,1436898151512,0.0
27,1436898151531,0.0
28,1436898151605,0.0
29,1436898151606,0.0
30,1436898151607,0.0
31,1436898151611,0.0
32,1436898151634,0.0
33,1436898151651,0.0
34,1436898151671,0.0
35,1436898151695,0.0
36,1436898151714,0.0
37,1436898151731,0.0
38,1436898151752,0.0
39,1436898151772,0.0
40,1436898151793,0.0
41,1436898151811,0.0
42,1436898151831,0.0
43,1436898151850,0.0
44,1436898151876,0.0
45,1436898151897,0.0
46,1436898151912,0.0
47,1436898151934,0.0
48,1436898151952,0.0
49,1436898151971,0.0
50,1436898151991,0.0
51,1436898152012,0.0
52,1436898152035,0.0
53,1436898152078,0.0
54,1436898152079,0.0
55,1436898152098,0.0
56,1436898152113,0.0
57,1436898152132,0.0
58,1436898152151,0.0
59,1436898152171,0.0
60,1436898152194,0.0
61,1436898152212,0.0
62,1436898152232,0.0
63,1436898152252,0.0
64,1436898152271,0.0
65,1436898152292,0.0
66,1436898152320,0.0
67,1436898152333,0.0
68,1436898152355,0.0
69,1436898152373,0.0
70,1436898152394,0.0
71,1436898152419,0.0
72,1436898152434,0.0
73,1436898152453,0.0
74,1436898152473,0.0
75,1436898152493,0.0
76,1436898152514,0.0
77,1436898152539,0.0
78,1436898152603,0.0
79,1436898152604,0.0
80,1436898152605,0.0
81,1436898152626,0.0
82,1436898152639,0.0
83,1436898152678,0.0
84,1436898152679,0.0
85,1436898152693,0.0
86,1436898152716,0.0
87,1436898152732,0.0
88,1436898152753,0.0
89,1436898152775,0.0
90,1436898152794,0.0
91,1436898152813,0.0
92,1436898152834,0.0
93,1436898152854,0.0
94,1436898152874,0.0
95,1436898152895,0.0
96,1436898152915,0.0
97,1436898152932,0.0
98,1436898152954,0.0
99,1436898152974,0.0
100,1436898152993,0.0
101,1436898153012,0.0
102,1436898153079,0.0
103,1436898153080,0.0
104,1436898153081,0.0
105,1436898153104,0.0
106,1436898153122,0.0
107,1436898153134,0.0
108,1436898153153,0.0
109,1436898153172,0.0
110,1436898153197,0.0
111,1436898153215,0.0
112,1436898153241,0.0
113,1436898153252,0.0
114,1436898153275,0.0
115,1436898153294,0.0
116,1436898153312,0.0
117,1436898153333,0.0
118,1436898153353,0.0
119,1436898153378,0.0
120,1436898153399,0.0
121,1436898153414,0.0
122,1436898153435,0.0
123,1436898153454,0.0
124,1436898153473,0.0
125,1436898153493,0.0
126,1436898153514,0.0
127,1436898153537,0.0
128,1436898153585,0.0
129,1436898153586,0.0
130,1436898153602,0.0
131,1436898153629,0.0
132,1436898153632,0.0
133,1436898153663,0.0
134,1436898153676,0.0
135,1436898153693,0.0
136,1436898153717,0.0
137,1436898153734,0.0
138,1436898153755,0.0
139,1436898153776,0.0
140,1436898153794,0.0
141,1436898153812,0.0
142,1436898153840,0.0
143,1436898153853,0.0
144,1436898153873,0.0
145,1436898153893,0.0
146,1436898153918,0.0
147,1436898153933,0.0
148,1436898153953,0.0
149,1436898153973,0.0
150,1436898153994,0.0
151,1436898154015,0.0
152,1436898154033,0.0
153,1436898154053,0.0
154,1436898154084,0.0
155,1436898154093,0.0
156,1436898154113,0.0
157,1436898154133,0.0
158,1436898154153,0.0
159,1436898154185,0.0
160,1436898154193,0.0
161,1436898154213,0.0
162,1436898154233,0.0
163,1436898154253,0.0
164,1436898154272,0.0
165,1436898154292,0.0
166,1436898154312,0.0
167,1436898154333,0.0
168,1436898154357,0.0
169,1436898154373,0.0
170,1436898154393,0.0
171,1436898154417,0.0
172,1436898154434,0.0
173,1436898154453,0.0
174,1436898154473,0.0
175,1436898155676,0.0
176,1436898155677,0.0
177,1436898155678,0.0
178,1436898155679,0.0
179,1436898155680,0.0
180,1436898155681,0.0
181,1436898155682,0.0
182,1436898155683,0.0
183,1436898155684,0.0
184,1436898155685,0.0
185,1436898155686,0.0
186,1436898155687,0.0
187,1436898155688,0.0
188,1436898155689,0.0
189,1436898155690,0.0
190,1436898155691,0.0
191,1436898155692,0.0
192,1436898155693,0.0
193,1436898155694,0.0
194,1436898155695,0.0
195,1436898155696,0.0
196,1436898155697,0.0
197,1436898155698,0.0
198,1436898155699,0.0
199,1436898155700,0.0
200,1436898155701,0.0
201,1436898155702,0.0
202,1436898155703,0.0
203,1436898155704,0.0
204,1436898155705,0.0
205,1436898155706,0.0
206,1436898155707,0.0
207,1436898155708,0.0
208,1436898155709,0.0
209,1436898155710,0.0
210,1436898155711,0.0
211,1436898155712,0.0
212,1436898155713,0.0
213,1436898155714,0.0
214,1436898155715,0.0
215,1436898155716,0.0
216,1436898155717,0.0
217,1436898155718,0.0
218,1436898155719,0.0
219,1436898155720,0.0
220,1436898155721,0.0
221,1436898155722,0.0
222,1436898155723,0.0
223,1436898155724,0.0
224,1436898155725,0.0
225,1436898155726,0.0
226,1436898155727,0.0
227,1436898155728,0.0
228,1436898155729,0.0
229,1436898155730,0.0
230,1436898155731,0.0
231,1436898155732,0.0
232,1436898155733,0.0
233,1436898155734,0.0
234,1436898155735,0.0
235,1436898155736,0.0
236,1436898155737,0.0
237,1436898155738,0.0
238,1436898155753,0.0
239,1436898155773,0.0
240,1436898155793,0.0
241,1436898155813,0.0
242,1436898155833,0.0
243,1436898155853,0.0
244,1436898155874,0.0
245,1436898155895,0.0
246,1436898155916,0.0
247,1436898155955,0.0
248,1436898155956,0.0
249,1436898155975,0.0
250,1436898155994,0.0
251,1436898156014,0.0
252,1436898156039,0.0
253,1436898156056,0.0
254,1436898156079,0.0
255,1436898156095,0.0
256,1436898156115,0.0
257,1436898156134,0.0
258,1436898156154,0.0
259,1436898156175,0.0
260,1436898156194,0.0
261,1436898156214,0.0
262,1436898156241,0.0
263,1436898156257,0.0
264,1436898156278,0.0
265,1436898156299,0.0
266,1436898156314,0.0
267,1436898156335,0.0
268,1436898156355,0.0
269,1436898156376,0.0
270,1436898156419,0.0
271,1436898156420,0.0
272,1436898156437,0.0
273,1436898156460,0.0
274,1436898156475,0.0
275,1436898156497,0.0
276,1436898156519,0.0
277,1436898156537,0.0
278,1436898156556,0.0
279,1436898156576,0.0
280,1436898156596,0.0
281,1436898156618,0.0
282,1436898156638,0.0
283,1436898156658,0.0
284,1436898156677,0.0
285,1436898156697,0.0
286,1436898156718,0.0
287,1436898156739,0.0
288,1436898156759,0.0
289,1436898156779,0.0
290,1436898156801,0.0
291,1436898156820,0.0
292,1436898156839,0.0
293,1436898156860,0.0
294,1436898156909,0.0
295,1436898156910,0.0
296,1436898156916,0.0
297,1436898156936,0.0
298,1436898156956,0.0
299,1436898156979,0.0
300,1436898156996,0.0
301,1436898157019,0.0
302,1436898157037,0.0
303,1436898157064,0.0
304,1436898157077,0.0
305,1436898157099,0.0
306,1436898157122,0.0
307,1436898157139,0.0
308,1436898157159,0.0
309,1436898157178,0.0
310,1436898157199,0.0
311,1436898157220,0.0
312,1436898157240,0.0
313,1436898157259,0.0
314,1436898157277,0.0
315,1436898157297,0.0
316,1436898157319,0.0
317,1436898157339,0.0
318,1436898157358,0.0
319,1436898157453,0.0
320,1436898157454,0.0
321,1436898157455,0.0
322,1436898157456,0.0
323,1436898157551,0.0
324,1436898157552,0.0
325,1436898157553,0.0
326,1436898157554,0.0
327,1436898157555,0.0
328,1436898157560,0.0
329,1436898157577,0.0
330,1436898157597,0.0
331,1436898157616,0.0
332,1436898157638,0.0
333,1436898157656,0.0
334,1436898157680,0.0
335,1436898157698,0.0
336,1436898157721,0.0
337,1436898157740,0.0
338,1436898157761,0.0
339,1436898157780,0.0
340,1436898157800,0.0
341,1436898157819,0.0
342,1436898157838,0.0
343,1436898157866,0.0
344,1436898157915,0.0
345,1436898157919,0.0
346,1436898157929,0.0
347,1436898157951,0.0
348,1436898157960,0.0
349,1436898157981,0.0
350,1436898158008,0.0
351,1436898158022,0.0
352,1436898158041,0.0
353,1436898158061,0.0
354,1436898158079,0.0
355,1436898158098,0.0
356,1436898158123,0.0
357,1436898158137,0.0
358,1436898158157,0.0
359,1436898158177,0.0
360,1436898158200,0.0
361,1436898158218,0.0
362,1436898158237,0.0
363,1436898158260,0.0
364,1436898158277,0.0
365,1436898158317,0.0
366,1436898158318,0.0
367,1436898158452,0.0
368,1436898158453,0.0
369,1436898158454,0.0
370,1436898158455,0.0
371,1436898158456,0.0
372,1436898158457,0.0
373,1436898158470,0.0
374,1436898158477,0.0
375,1436898158506,0.0
376,1436898158517,0.0
377,1436898158544,0.0
378,1436898158557,0.0
379,1436898158577,0.0
380,1436898158597,0.0
381,1436898158617,0.0
382,1436898158637,0.0
383,1436898158657,0.0
384,1436898158677,0.0
385,1436898158697,0.0
386,1436898158718,0.0
387,1436898158737,0.0
388,1436898158757,0.0
389,1436898158777,0.0
390,1436898158798,0.0
391,1436898158817,0.0
392,1436898158858,0.0
393,1436898158859,0.0
394,1436898158878,0.0
395,1436898158898,0.0
396,1436898158918,0.0
397,1436898158961,0.0
398,1436898158962,0.0
399,1436898158978,0.0
400,1436898159005,0.0
401,1436898159019,0.0
402,1436898159040,0.0
403,1436898159058,0.0
404,1436898159077,0.0
405,1436898159099,0.0
406,1436898159121,0.0
407,1436898159142,0.0
408,1436898159157,0.0
409,1436898159181,0.0
410,1436898159198,0.0
411,1436898159219,0.0
412,1436898159239,0.0
413,1436898159258,0.0
414,1436898159280,0.0
415,1436898159311,0.0
416,1436898159317,0.0
417,1436898159337,0.0
418,1436898159357,0.0
419,1436898159378,0.0
420,1436898159402,0.0
421,1436898159418,0.0
422,1436898159438,0.0
423,1436898159458,0.0
424,1436898159482,0.0
425,1436898159501,0.0
426,1436898159520,0.0
427,1436898159540,0.0
428,1436898159559,0.0
429,1436898159581,0.0
430,1436898159602,0.0
431,1436898159622,0.0
432,1436898159640,0.0
433,1436898159661,0.0
434,1436898159681,0.0
435,1436898159701,0.0
436,1436898159720,0.0
437,1436898159783,0.0
438,1436898159784,0.0
439,1436898159785,0.0
440,1436898159804,0.0
441,1436898159819,0.0
442,1436898159851,0.0
443,1436898159865,0.0
444,1436898159879,0.0
445,1436898159905,0.0
446,1436898159920,0.0
447,1436898159940,0.0
448,1436898159962,0.0
449,1436898159978,0.0
450,1436898160000,0.0
451,1436898160021,0.0
452,1436898160050,0.0
453,1436898160064,0.0
454,1436898160080,0.0
455,1436898160100,0.0
456,1436898160119,0.0
457,1436898160140,0.0
458,1436898160159,0.0
459,1436898160180,0.0
460,1436898160225,0.0
461,1436898160226,0.0
462,1436898160265,0.0
463,1436898160266,0.0
464,1436898160290,0.0
465,1436898160332,0.0
466,1436898160333,0.0
467,1436898160346,0.0
468,1436898160380,0.0
469,1436898160381,0.0
470,1436898160401,0.0
471,1436898160420,0.0
472,1436898160439,0.0
473,1436898160461,0.0
474,1436898160482,0.0
475,1436898160500,0.0
476,1436898160526,0.0
477,1436898160546,0.0
478,1436898160563,0.0
479,1436898160580,0.0
480,1436898160602,0.0
481,1436898160620,0.0
482,1436898160642,0.0
483,1436898160663,0.0
484,1436898160683,0.0
485,1436898160700,0.0
486,1436898160730,0.0
487,1436898160772,0.0
488,1436898160773,0.0
489,1436898160780,0.0
490,1436898160800,0.0
491,1436898160820,0.0
492,1436898160840,0.0
493,1436898160859,0.0
494,1436898160880,0.0
495,1436898160902,0.0
496,1436898160920,0.0
497,1436898160941,0.0
498,1436898160962,0.0
499,1436898160984,0.0
500,1436898161001,0.0
501,1436898161021,0.0
502,1436898161048,0.0
503,1436898161062,0.0
504,1436898161081,0.0
505,1436898161126,0.0
506,1436898161127,0.0
507,1436898161166,0.0
508,1436898161167,0.0
509,1436898161180,0.0
510,1436898161550,0.0
511,1436898161551,0.0
512,1436898161552,0.0
513,1436898161553,0.0
514,1436898161554,0.0
515,1436898161555,0.0
516,1436898161556,0.0
517,1436898161557,0.0
518,1436898161558,0.0
519,1436898161559,0.0
520,1436898161560,0.0
521,1436898161561,0.0
522,1436898161562,0.0
523,1436898161563,0.0
524,1436898161564,0.0
525,1436898161565,0.0
526,1436898161566,0.0
527,1436898161567,0.0
528,1436898161569,0.0
529,1436898161581,0.0
530,1436898161602,0.0
531,1436898161620,0.0
532,1436898161640,0.0
533,1436898161662,0.0
534,1436898161679,0.0
535,1436898161699,0.0
536,1436898161719,0.0
537,1436898161740,0.0
538,1436898161764,0.0
539,1436898161780,0.0
540,1436898161800,0.0
541,1436898161825,0.0
542,1436898161840,0.0
543,1436898161864,0.0
544,1436898161881,0.0
545,1436898161901,0.0
546,1436898161924,0.0
547,1436898161942,0.0
548,1436898161964,0.0
549,1436898161984,0.0
550,1436898162004,0.0
551,1436898162022,0.0
552,1436898162041,0.0
553,1436898162061,0.0
554,1436898162124,0.0
555,1436898162125,0.0
556,1436898162126,0.0
557,1436898162151,0.0
558,1436898162162,0.0
559,1436898162181,0.0
560,1436898162205,0.0
561,1436898162221,0.0
562,1436898162241,0.0
563,1436898162262,0.0
564,1436898162283,0.0
565,1436898162321,0.0
566,1436898162322,0.0
567,1436898162341,0.0
568,1436898162362,0.0
569,1436898162384,0.0
570,1436898162404,0.0
571,1436898162424,0.0
572,1436898162442,0.0
573,1436898162462,0.0
574,1436898162483,0.0
575,1436898162503,0.0
576,1436898162523,0.0
577,1436898162548,0.0
578,1436898162610,0.0
579,1436898162611,0.0
580,1436898162612,0.0
581,1436898162632,0.0
582,1436898162642,0.0
583,1436898162685,0.0
584,1436898162686,0.0
585,1436898162701,0.0
586,1436898162725,0.0
587,1436898162745,0.0
588,1436898162762,0.0
589,1436898162785,0.0
590,1436898162804,0.0
591,1436898162823,0.0
592,1436898162844,0.0
593,1436898162863,0.0
594,1436898162884,0.0
595,1436898162904,0.0
596,1436898162925,0.0
597,1436898162945,0.0
598,1436898162962,0.0
599,1436898162983,0.0
600,1436898163004,0.0
601,1436898163022,0.0
602,1436898163045,0.0
603,1436898163089,0.0
604,1436898163090,0.0
605,1436898163109,0.0
606,1436898163123,0.0
607,1436898163142,0.0
608,1436898163162,0.0
609,1436898163182,0.0
610,1436898163204,0.0
611,1436898163222,0.0
612,1436898163247,0.0
613,1436898163265,0.0
614,1436898163284,0.0
615,1436898163304,0.0
616,1436898163322,0.0
617,1436898163342,0.0
618,1436898163362,0.0
619,1436898163386,0.0
620,1436898163408,0.0
621,1436898163429,0.0
622,1436898163444,0.0
623,1436898163462,0.0
624,1436898163482,0.0
625,1436898163502,0.0
626,1436898163523,0.0
627,1436898163546,0.0
628,1436898163590,0.0
629,1436898163591,0.0
630,1436898163610,0.0
631,1436898163623,0.0
632,1436898163642,0.0
633,1436898163662,0.0
634,1436898163682,0.0
635,1436898163704,0.0
636,1436898163726,0.0
637,1436898163746,0.0
638,1436898163764,0.0
639,1436898163782,0.0
640,1436898163804,0.0
641,1436898163824,0.0
642,1436898163844,0.0
643,1436898163863,0.0
644,1436898163883,0.0
645,1436898163903,0.0
646,1436898163924,0.0
647,1436898163946,0.0
648,1436898163963,0.0
649,1436898163985,0.0
650,1436898164004,0.0
651,1436898164025,0.0
652,1436898164052,0.0
653,1436898164095,0.0
654,1436898164096,0.0
655,1436898164106,0.0
656,1436898164125,0.0
657,1436898164145,0.0
658,1436898164163,0.0
659,1436898164183,0.0
660,1436898164204,0.0
661,1436898164226,0.0
662,1436898164246,0.0
663,1436898164264,0.0
664,1436898164285,0.0
665,1436898164304,0.0
666,1436898164324,0.0
667,1436898164343,0.0
668,1436898164364,0.0
669,1436898164384,0.0
670,1436898164404,0.0
671,1436898164424,0.0
672,1436898164446,0.0
673,1436898164464,0.0
674,1436898164484,0.0
675,1436898164503,0.0
676,1436898164524,0.0
677,1436898164546,0.0
678,1436898164612,0.0
679,1436898164613,0.0
680,1436898164614,0.0
681,1436898164634,0.0
682,1436898164645,0.0
683,1436898164686,0.0
684,1436898164687,0.0
685,1436898164704,0.0
686,1436898164725,0.0
687,1436898164744,0.0
688,1436898164765,0.0
689,1436898164784,0.0
690,1436898164805,0.0
691,1436898164824,0.0
692,1436898164845,0.0
693,1436898164864,0.0
694,1436898164887,0.0
695,1436898164909,0.0
696,1436898164927,0.0
697,1436898164947,0.0
698,1436898164964,0.0
699,1436898164984,0.0
700,1436898165005,0.0
701,1436898165025,0.0
702,1436898165044,0.0
703,1436898165100,0.0
704,1436898165101,0.0
705,1436898165126,0.0
706,1436898165127,0.0
707,1436898165173,0.0
708,1436898165174,0.0
709,1436898165187,0.0
710,1436898165208,0.0
711,1436898165224,0.0
712,1436898165245,0.0
713,1436898165267,0.0
714,1436898165285,0.0
715,1436898165306,0.0
716,1436898165324,0.0
717,1436898165344,0.0
718,1436898165370,0.0
719,1436898165385,0.0
720,1436898165404,0.0
721,1436898165440,0.0
722,1436898165444,0.0
723,1436898165464,0.0
724,1436898165485,0.0
725,1436898165505,0.0
726,1436898165525,0.0
727,1436898165581,0.0
728,1436898165582,0.0
729,1436898165584,0.0
730,1436898165608,0.0
731,1436898165625,0.0
732,1436898165653,0.0
733,1436898165667,0.0
734,1436898165686,0.0
735,1436898165705,0.0
736,1436898165725,0.0
737,1436898165746,0.0
738,1436898165765,0.0
739,1436898165786,0.0
740,1436898165806,0.0
741,1436898165827,0.0
742,1436898165849,0.0
743,1436898165869,0.0
744,1436898165889,0.0
745,1436898165906,0.0
746,1436898165926,0.0
747,1436898165975,0.0
748,1436898165976,0.0
749,1436898165995,0.0
750,1436898166005,0.0
751,1436898166065,0.0
752,1436898166066,0.0
753,1436898166067,0.0
754,1436898166094,0.0
755,1436898166106,0.0
756,1436898166134,0.0
757,1436898166148,0.0
758,1436898166167,0.0
759,1436898166185,0.0
760,1436898166206,0.0
761,1436898166226,0.0
762,1436898166247,0.0
763,1436898166267,0.0
764,1436898166287,0.0
765,1436898166307,0.0
766,1436898166325,0.0
767,1436898166345,0.0
768,1436898166365,0.0
769,1436898166388,0.0
770,1436898166405,0.0
771,1436898166427,0.0
772,1436898166446,0.0
773,1436898166474,0.0
774,1436898166559,0.0
775,1436898166561,0.0
776,1436898166562,0.0
777,1436898166563,0.0
778,1436898166630,0.0
779,1436898166631,0.0
780,1436898166632,0.0
781,1436898166633,0.0
782,1436898166671,0.0
783,1436898166672,0.0
784,1436898166740,0.0
785,1436898166741,0.0
786,1436898166742,0.0
787,1436898166745,0.0
788,1436898166765,0.0
789,1436898166788,0.0
790,1436898166806,0.0
791,1436898166827,0.0
792,1436898166846,0.0
793,1436898166868,0.0
794,1436898166888,0.0
795,1436898166905,0.0
796,1436898166925,0.0
797,1436898166946,0.0
798,1436898166974,0.0
799,1436898166992,0.0
800,1436898167012,0.0
801,1436898167027,0.0
802,1436898167048,0.0
803,1436898167101,0.0
804,1436898167102,0.0
805,1436898167117,0.0
806,1436898167147,0.0
807,1436898167148,0.0
808,1436898167166,0.0
809,1436898167195,0.0
810,1436898167210,0.0
811,1436898167230,0.0
812,1436898167248,0.0
813,1436898167267,0.0
814,1436898167286,0.0
815,1436898167306,0.0
816,1436898167326,0.0
817,1436898167346,0.0
818,1436898167366,0.0
819,1436898167387,0.0
820,1436898167412,0.0
821,1436898167432,0.0
822,1436898167449,0.0
823,1436898167466,0.0
824,1436898167486,0.0
825,1436898167506,0.0
826,1436898167530,0.0
827,1436898167548,0.0
828,1436898167595,0.0
829,1436898167596,0.0
830,1436898167607,0.0
831,1436898167627,0.0
832,1436898167648,0.0
833,1436898167669,0.0
834,1436898167686,0.0
835,1436898167709,0.0
836,1436898167726,0.0
837,1436898167747,0.0
838,1436898167767,0.0
839,1436898167786,0.0
840,1436898167807,0.0
841,1436898167826,0.0
842,1436898167848,0.0
843,1436898167866,0.0
844,1436898167890,0.0
845,1436898167909,0.0
846,1436898167930,0.0
847,1436898167950,0.0
848,1436898167968,0.0
849,1436898167987,0.0
850,1436898168009,0.0
851,1436898168030,0.0
852,1436898168049,0.0
853,1436898168095,0.0
854,1436898168096,0.0
855,1436898168113,0.0
856,1436898168130,0.0
857,1436898168147,0.0
858,1436898168166,0.0
859,1436898168187,0.0
860,1436898168207,0.0
861,1436898168231,0.0
862,1436898168250,0.0
863,1436898168268,0.0
864,1436898168313,0.0
865,1436898168314,0.0
866,1436898168349,0.0
867,1436898168350,0.0
868,1436898168367,0.0
869,1436898168387,0.0
870,1436898168407,0.0
871,1436898168427,0.0
872,1436898168447,0.0
873,1436898168467,0.0
874,1436898168487,0.0
875,1436898168507,0.0
876,1436898168527,0.0
877,1436898168553,0.0
878,1436898168566,0.0
879,1436898168586,1.0
880,1436898168606,1.0
881,1436898169735,0.0
882,1436898169736,0.0
883,1436898169737,0.0
884,1436898169738,0.0
885,1436898169739,0.0
886,1436898169740,0.0
887,1436898169741,0.0
888,1436898169742,0.0
889,1436898169743,0.0
890,1436898169744,0.0
891,1436898169745,0.0
892,1436898169746,0.0
893,1436898169747,0.0
894,1436898169748,0.0
895,1436898169749,0.0
896,1436898169750,0.0
897,1436898169751,0.0
898,1436898169752,0.0
899,1436898169753,0.0
900,1436898169754,0.0
901,1436898169755,0.0
902,1436898169756,0.0
903,1436898169757,0.0
904,1436898169758,0.0
905,1436898169759,0.0
906,1436898169760,0.0
907,1436898169761,0.0
908,1436898169762,0.0
909,1436898169763,0.0
910,1436898169764,0.0
911,1436898169765,0.0
912,1436898169766,0.0
