id,attr_time,attr_light
1,1436898151019,0.0
2,1436898151040,0.0
3,1436898151065,0.0
4,1436898151081,0.0
5,1436898151102,0.0
6,1436898151123,0.0
7,1436898151143,0.0
8,1436898151163,0.0
9,1436898151182,0.0
10,1436898151201,0.0
11,1436898151222,0.0
12,1436898151243,0.0
13,1436898151263,0.0
14,1436898151283,0.0
15,1436898151300,0.0
16,1436898151323,0.0
17,1436898151343,0.0
18,1436898151363,0.0
19,1436898151383,0.0
20,1436898151402,0.0
21,1436898151422,0.0
22,1436898151443,0.0
23,1436898151463,0.0
24,1436898151483,0.0
25,1436898151503,0.0
26,1436898151521,0.0
27,1436898151541,0.0
28,1436898151561,0.0
29,1436898151582,0.0
30,1436898151634,0.0
31,1436898151635,0.0
32,1436898151648,0.0
33,1436898151660,0.0
34,1436898151683,0.0
35,1436898151701,0.0
36,1436898151720,0.0
37,1436898151741,0.0
38,1436898151761,0.0
39,1436898151784,0.0
40,1436898151804,0.0
41,1436898151821,0.0
42,1436898151842,0.0
43,1436898151863,0.0
44,1436898151883,0.0
45,1436898151902,0.0
46,1436898151922,0.0
47,1436898151944,0.0
48,1436898151964,0.0
49,1436898151984,0.0
50,1436898152004,0.0
51,1436898152022,0.0
52,1436898152041,0.0
53,1436898152064,0.0
54,1436898152081,0.0
55,1436898152101,0.0
56,1436898152122,0.0
57,1436898152142,0.0
58,1436898152164,0.0
59,1436898153610,0.0
60,1436898153611,0.0
61,1436898153612,0.0
62,1436898153613,0.0
63,1436898153614,0.0
64,1436898153615,0.0
65,1436898153616,0.0
66,1436898153617,0.0
67,1436898153618,0.0
68,1436898153619,0.0
69,1436898153620,0.0
70,1436898153621,0.0
71,1436898153622,0.0
72,1436898153623,0.0
73,1436898153624,0.0
74,1436898153625,0.0
75,1436898153626,0.0
76,1436898153627,0.0
77,1436898153628,0.0
78,1436898153629,0.0
79,1436898153630,0.0
80,1436898153631,0.0
81,1436898153632,0.0
82,1436898153633,0.0
83,1436898153634,0.0
84,1436898153635,0.0
85,1436898153636,0.0
86,1436898153637,0.0
87,1436898153638,0.0
88,1436898153639,0.0
89,1436898153640,0.0
90,1436898153641,0.0
91,1436898153642,0.0
92,1436898153643,0.0
93,1436898153644,0.0
94,1436898153645,0.0
95,1436898153646,0.0
96,1436898153647,0.0
97,1436898153648,0.0
98,1436898153649,0.0
99,1436898153650,0.0
100,1436898153651,0.0
101,1436898153652,0.0
102,1436898153653,0.0
103,1436898153654,0.0
104,1436898153655,0.0
105,1436898153656,0.0
106,1436898153657,0.0
107,1436898153658,0.0
108,1436898153659,0.0
109,1436898153660,0.0
110,1436898153661,0.0
111,1436898153662,0.0
112,1436898153663,0.0
113,1436898153664,0.0
114,1436898153665,0.0
115,1436898153666,0.0
116,1436898153667,0.0
117,1436898153668,0.0
118,1436898153669,0.0
119,1436898153670,0.0
120,1436898153671,0.0
121,1436898153672,0.0
122,1436898153673,0.0
123,1436898153674,0.0
124,1436898153675,0.0
125,1436898153676,0.0
126,1436898153677,0.0
127,1436898153678,0.0
128,1436898153679,0.0
129,1436898153680,0.0
130,1436898153681,0.0
131,1436898153682,0.0
132,1436898153683,0.0
133,1436898153684,0.0
134,1436898153685,0.0
135,1436898153701,0.0
136,1436898153721,0.0
137,1436898153741,0.0
138,1436898153761,0.0
139,1436898153781,0.0
140,1436898153802,0.0
141,1436898153821,0.0
142,1436898153841,0.0
143,1436898153861,0.0
144,1436898153881,0.0
145,1436898153902,0.0
146,1436898153929,0.0
147,1436898153942,0.0
148,1436898153963,0.0
149,1436898153985,0.0
150,1436898154003,0.0
151,1436898154023,0.0
152,1436898154042,0.0
153,1436898154062,0.0
154,1436898154085,0.0
155,1436898154105,0.0
156,1436898154123,0.0
157,1436898154143,0.0
158,1436898154163,0.0
159,1436898154191,0.0
160,1436898154268,0.0
161,1436898154269,0.0
162,1436898154270,0.0
163,1436898154271,0.0
164,1436898154286,0.0
165,1436898154306,0.0
166,1436898154323,0.0
167,1436898154342,0.0
168,1436898154365,0.0
169,1436898154383,0.0
170,1436898154405,0.0
171,1436898154423,0.0
172,1436898154445,0.0
173,1436898154466,0.0
174,1436898154486,0.0
175,1436898154505,0.0
176,1436898154526,0.0
177,1436898154546,0.0
178,1436898154565,0.0
179,1436898154586,0.0
180,1436898154606,0.0
181,1436898154625,0.0
182,1436898154645,0.0
183,1436898154665,0.0
184,1436898154686,0.0
185,1436898154709,0.0
186,1436898154724,0.0
187,1436898154743,0.0
188,1436898154765,0.0
189,1436898154785,0.0
190,1436898154806,0.0
191,1436898154825,0.0
192,1436898154844,0.0
193,1436898154864,0.0
194,1436898154883,0.0
195,1436898154906,0.0
196,1436898154926,0.0
197,1436898154984,0.0
198,1436898154995,0.0
199,1436898154996,0.0
200,1436898155005,0.0
201,1436898155024,0.0
202,1436898155044,0.0
203,1436898155063,0.0
204,1436898155083,0.0
205,1436898155105,0.0
206,1436898155124,0.0
207,1436898155144,0.0
208,1436898155165,0.0
209,1436898155184,0.0
210,1436898155204,0.0
211,1436898155226,0.0
212,1436898155246,0.0
213,1436898155268,0.0
214,1436898155287,0.0
215,1436898155307,0.0
216,1436898155327,0.0
217,1436898155347,0.0
218,1436898155366,0.0
219,1436898155384,0.0
220,1436898155407,0.0
221,1436898155425,0.0
222,1436898155445,0.0
223,1436898155464,0.0
224,1436898155487,0.0
225,1436898155513,0.0
226,1436898155524,0.0
227,1436898155544,0.0
228,1436898155564,0.0
229,1436898155584,0.0
230,1436898155605,0.0
231,1436898155627,0.0
232,1436898155646,0.0
233,1436898155750,0.0
234,1436898155751,0.0
235,1436898155752,0.0
236,1436898155753,0.0
237,1436898155754,0.0
238,1436898155769,0.0
239,1436898155785,0.0
240,1436898155804,0.0
241,1436898155824,0.0
242,1436898155850,0.0
243,1436898155864,0.0
244,1436898155885,0.0
245,1436898155905,0.0
246,1436898155925,0.0
247,1436898155947,0.0
248,1436898155968,0.0
249,1436898155987,0.0
250,1436898156007,0.0
251,1436898156028,0.0
252,1436898156047,0.0
253,1436898156068,0.0
254,1436898156087,0.0
255,1436898156107,0.0
256,1436898156127,0.0
257,1436898156145,0.0
258,1436898156168,0.0
259,1436898156188,0.0
260,1436898156205,0.0
261,1436898156228,0.0
262,1436898156248,0.0
263,1436898156268,0.0
264,1436898156287,0.0
265,1436898156308,0.0
266,1436898156327,0.0
267,1436898156348,0.0
268,1436898156368,0.0
269,1436898156386,0.0
270,1436898156414,0.0
271,1436898156466,0.0
272,1436898156467,0.0
273,1436898156468,0.0
274,1436898156487,0.0
275,1436898156509,0.0
276,1436898156526,0.0
277,1436898156547,0.0
278,1436898156565,0.0
279,1436898156587,0.0
280,1436898156605,0.0
281,1436898156629,0.0
282,1436898156650,0.0
283,1436898156671,0.0
284,1436898156685,0.0
285,1436898156769,0.0
286,1436898156770,0.0
287,1436898156771,0.0
288,1436898156772,0.0
289,1436898156785,0.0
290,1436898156805,0.0
291,1436898156825,0.0
292,1436898156845,0.0
293,1436898156865,0.0
294,1436898156902,0.0
295,1436898156906,0.0
296,1436898156925,0.0
297,1436898156945,0.0
298,1436898156969,0.0
299,1436898156988,0.0
300,1436898157008,0.0
301,1436898157028,0.0
302,1436898157047,0.0
303,1436898157069,0.0
304,1436898157088,0.0
305,1436898157108,0.0
306,1436898157125,0.0
307,1436898157147,0.0
308,1436898157168,0.0
309,1436898157192,0.0
310,1436898157205,0.0
311,1436898157224,0.0
312,1436898157245,0.0
313,1436898157266,0.0
314,1436898157287,0.0
315,1436898157307,0.0
316,1436898157326,0.0
317,1436898157349,0.0
318,1436898157369,0.0
319,1436898157388,0.0
320,1436898157405,0.0
321,1436898157429,0.0
322,1436898157449,0.0
323,1436898157469,0.0
324,1436898157489,0.0
325,1436898157508,0.0
326,1436898157529,0.0
327,1436898157547,0.0
328,1436898157567,0.0
329,1436898157589,0.0
330,1436898157608,0.0
331,1436898157625,0.0
332,1436898157648,0.0
333,1436898157668,0.0
334,1436898157686,0.0
335,1436898157716,0.0
336,1436898157726,0.0
337,1436898157748,0.0
338,1436898157766,0.0
339,1436898157789,0.0
340,1436898157807,0.0
341,1436898157826,0.0
342,1436898157894,0.0
343,1436898157895,0.0
344,1436898157896,0.0
345,1436898157906,0.0
346,1436898157929,0.0
347,1436898157946,0.0
348,1436898157969,0.0
349,1436898157986,0.0
350,1436898158007,0.0
351,1436898158027,0.0
352,1436898158048,0.0
353,1436898158069,0.0
354,1436898158086,0.0
355,1436898158109,0.0
356,1436898158129,0.0
357,1436898158149,0.0
358,1436898158169,0.0
359,1436898158189,0.0
360,1436898158207,0.0
361,1436898158229,0.0
362,1436898158251,0.0
363,1436898158267,0.0
364,1436898158290,0.0
365,1436898158310,0.0
366,1436898158330,0.0
367,1436898158350,0.0
368,1436898158368,0.0
369,1436898158390,0.0
370,1436898158411,0.0
371,1436898158430,0.0
372,1436898158450,0.0
373,1436898158468,0.0
374,1436898158491,0.0
375,1436898158508,0.0
376,1436898158527,0.0
377,1436898158605,0.0
378,1436898158606,0.0
379,1436898158607,0.0
380,1436898158608,0.0
381,1436898158627,0.0
382,1436898158647,0.0
383,1436898158668,0.0
384,1436898158687,0.0
385,1436898158714,0.0
386,1436898158729,0.0
387,1436898158750,0.0
388,1436898158771,0.0
389,1436898158798,0.0
390,1436898158811,0.0
391,1436898158844,0.0
392,1436898158849,0.0
393,1436898158867,0.0
394,1436898158887,0.0
395,1436898158908,0.0
396,1436898158977,0.0
397,1436898158978,0.0
398,1436898158979,0.0
399,1436898158986,0.0
400,1436898159006,0.0
401,1436898159026,0.0
402,1436898159046,0.0
403,1436898159066,0.0
404,1436898159086,0.0
405,1436898159106,0.0
406,1436898159133,0.0
407,1436898159146,0.0
408,1436898159166,0.0
409,1436898159186,0.0
410,1436898159206,0.0
411,1436898159226,0.0
412,1436898159246,0.0
413,1436898159266,0.0
414,1436898159286,0.0
415,1436898159306,0.0
416,1436898159326,0.0
417,1436898159346,0.0
418,1436898159366,0.0
419,1436898159386,0.0
420,1436898159406,0.0
421,1436898159426,0.0
422,1436898159446,0.0
423,1436898159466,0.0
424,1436898159489,0.0
425,1436898159508,0.0
426,1436898159531,0.0
427,1436898159551,0.0
428,1436898159568,0.0
429,1436898159591,0.0
430,1436898159611,0.0
431,1436898159631,0.0
432,1436898159651,0.0
433,1436898159671,0.0
434,1436898159690,0.0
435,1436898159709,0.0
436,1436898159730,0.0
437,1436898159751,0.0
438,1436898159771,0.0
439,1436898159791,0.0
440,1436898159807,0.0
441,1436898159831,0.0
442,1436898159848,0.0
443,1436898159872,0.0
444,1436898159888,0.0
445,1436898159908,0.0
446,1436898159934,0.0
447,1436898159949,0.0
448,1436898159970,0.0
449,1436898159989,0.0
450,1436898160008,0.0
451,1436898160031,0.0
452,1436898160051,0.0
453,1436898160068,0.0
454,1436898160091,0.0
455,1436898160111,0.0
456,1436898160130,0.0
457,1436898160151,0.0
458,1436898160171,0.0
459,1436898160191,0.0
460,1436898160210,0.0
461,1436898160229,0.0
462,1436898160253,0.0
463,1436898160272,0.0
464,1436898160292,0.0
465,1436898160311,0.0
466,1436898160332,0.0
467,1436898160351,0.0
468,1436898160371,0.0
469,1436898160391,0.0
470,1436898160414,0.0
471,1436898160429,0.0
472,1436898160450,0.0
473,1436898160469,0.0
474,1436898160489,0.0
475,1436898160526,0.0
476,1436898160642,0.0
477,1436898160643,0.0
478,1436898160644,0.0
479,1436898160645,0.0
480,1436898160646,0.0
481,1436898160647,0.0
482,1436898160654,0.0
483,1436898160684,0.0
484,1436898160689,0.0
485,1436898160709,0.0
486,1436898160729,0.0
487,1436898160750,0.0
488,1436898160772,0.0
489,1436898160794,0.0
490,1436898160810,0.0
491,1436898160830,0.0
492,1436898160852,0.0
493,1436898160873,0.0
494,1436898160892,0.0
495,1436898160912,0.0
496,1436898160932,0.0
497,1436898160952,0.0
498,1436898160972,0.0
499,1436898160992,0.0
500,1436898161012,0.0
501,1436898161030,0.0
502,1436898161052,0.0
503,1436898161071,0.0
504,1436898161092,0.0
505,1436898161112,0.0
506,1436898161132,0.0
507,1436898161152,0.0
508,1436898161172,0.0
509,1436898161192,0.0
510,1436898161212,0.0
511,1436898161233,0.0
512,1436898161253,0.0
513,1436898161272,0.0
514,1436898161296,0.0
515,1436898161354,0.0
516,1436898161365,0.0
517,1436898161366,0.0
518,1436898161372,0.0
519,1436898161390,0.0
520,1436898161412,0.0
521,1436898161429,0.0
522,1436898161449,0.0
523,1436898161471,0.0
524,1436898161490,0.0
525,1436898161511,0.0
526,1436898161530,0.0
527,1436898161551,0.0
528,1436898161573,0.0
529,1436898161593,0.0
530,1436898161613,0.0
531,1436898161633,0.0
532,1436898161653,0.0
533,1436898161673,0.0
534,1436898161693,0.0
535,1436898161713,0.0
536,1436898161733,0.0
537,1436898161752,0.0
538,1436898161772,0.0
539,1436898161793,0.0
540,1436898161813,0.0
541,1436898161834,0.0
542,1436898161850,0.0
543,1436898161872,0.0
544,1436898161892,0.0
545,1436898161913,0.0
546,1436898161933,0.0
547,1436898161954,0.0
548,1436898161970,0.0
549,1436898161992,0.0
550,1436898162010,0.0
551,1436898162032,0.0
552,1436898162083,0.0
553,1436898162084,0.0
554,1436898162098,0.0
555,1436898162110,0.0
556,1436898162132,0.0
557,1436898162150,0.0
558,1436898162171,0.0
559,1436898162190,0.0
560,1436898162212,0.0
561,1436898162234,0.0
562,1436898162252,0.0
563,1436898162272,0.0
564,1436898162292,0.0
565,1436898162313,0.0
566,1436898162334,0.0
567,1436898162354,0.0
568,1436898162374,0.0
569,1436898162394,0.0
570,1436898162414,0.0
571,1436898162434,0.0
572,1436898162452,0.0
573,1436898162472,0.0
574,1436898162494,0.0
575,1436898162511,0.0
576,1436898162531,0.0
577,1436898162551,0.0
578,1436898162572,0.0
579,1436898162596,0.0
580,1436898162612,0.0
581,1436898162634,0.0
582,1436898162651,0.0
583,1436898162671,0.0
584,1436898162691,0.0
585,1436898162712,0.0
586,1436898162737,0.0
587,1436898162797,0.0
588,1436898162798,0.0
589,1436898162799,0.0
590,1436898162814,0.0
591,1436898162831,0.0
592,1436898162851,0.0
593,1436898162871,0.0
594,1436898162891,0.0
595,1436898162916,0.0
596,1436898162931,0.0
597,1436898162959,0.0
598,1436898162988,0.0
599,1436898162991,0.0
600,1436898163011,0.0
601,1436898163031,0.0
602,1436898163051,0.0
603,1436898163071,0.0
604,1436898163091,0.0
605,1436898163111,0.0
606,1436898163131,0.0
607,1436898163151,0.0
608,1436898163171,0.0
609,1436898163191,0.0
610,1436898163211,0.0
611,1436898163231,0.0
612,1436898163251,0.0
613,1436898163271,0.0
614,1436898163293,0.0
615,1436898163314,0.0
616,1436898163334,0.0
617,1436898163353,0.0
618,1436898163372,0.0
619,1436898163392,0.0
620,1436898163413,0.0
621,1436898163432,0.0
622,1436898163453,0.0
623,1436898163486,0.0
624,1436898163491,0.0
625,1436898163512,0.0
626,1436898163531,0.0
627,1436898163553,0.0
628,1436898163572,0.0
629,1436898163592,0.0
630,1436898163612,0.0
631,1436898163632,0.0
632,1436898163652,0.0
633,1436898163673,0.0
634,1436898163691,0.0
635,1436898163713,0.0
636,1436898163732,0.0
637,1436898163752,0.0
638,1436898163775,0.0
639,1436898163795,0.0
640,1436898163815,0.0
641,1436898163832,0.0
642,1436898163852,0.0
643,1436898163875,0.0
644,1436898163892,0.0
645,1436898163915,0.0
646,1436898163932,0.0
647,1436898163952,0.0
648,1436898163972,0.0
649,1436898163992,0.0
650,1436898164013,0.0
651,1436898164032,0.0
652,1436898164052,0.0
653,1436898164073,0.0
654,1436898164098,0.0
655,1436898164146,0.0
656,1436898164149,0.0
657,1436898164169,0.0
658,1436898164172,0.0
659,1436898164192,0.0
660,1436898164213,0.0
661,1436898164232,0.0
662,1436898164293,0.0
663,1436898164294,0.0
664,1436898164295,0.0
665,1436898164316,0.0
666,1436898164332,0.0
667,1436898164352,0.0
668,1436898164372,0.0
669,1436898164392,0.0
670,1436898164413,0.0
671,1436898164436,0.0
672,1436898164453,0.0
673,1436898164473,0.0
674,1436898164496,0.0
675,1436898164514,0.0
676,1436898164533,0.0
677,1436898164553,0.0
678,1436898164573,0.0
679,1436898164595,0.0
680,1436898164615,0.0
681,1436898164635,0.0
682,1436898164657,0.0
683,1436898164678,0.0
684,1436898164735,0.0
685,1436898164736,0.0
686,1436898164737,0.0
687,1436898164755,0.0
688,1436898164773,0.0
689,1436898164804,0.0
690,1436898164858,0.0
691,1436898164859,0.0
692,1436898164860,0.0
693,1436898164873,0.0
694,1436898164893,0.0
695,1436898164919,0.0
696,1436898164935,0.0
697,1436898164954,0.0
698,1436898164975,0.0
699,1436898164994,0.0
700,1436898165014,0.0
701,1436898165033,0.0
702,1436898165053,0.0
703,1436898165073,0.0
704,1436898165096,0.0
705,1436898165115,0.0
706,1436898165136,0.0
707,1436898165155,0.0
708,1436898165175,0.0
709,1436898165196,0.0
710,1436898165213,0.0
711,1436898165235,0.0
712,1436898165254,0.0
713,1436898165276,0.0
714,1436898165296,0.0
715,1436898165316,0.0
716,1436898165336,0.0
717,1436898165355,0.0
718,1436898165375,0.0
719,1436898165396,0.0
720,1436898165415,0.0
721,1436898165436,0.0
722,1436898165456,0.0
723,1436898165476,0.0
724,1436898165495,0.0
725,1436898165515,0.0
726,1436898165534,0.0
727,1436898165599,0.0
728,1436898165600,0.0
729,1436898165601,0.0
730,1436898165614,0.0
731,1436898165647,0.0
732,1436898165671,0.0
733,1436898165684,0.0
734,1436898165811,0.0
735,1436898165812,0.0
736,1436898165813,0.0
737,1436898165814,0.0
738,1436898165815,0.0
739,1436898165816,0.0
740,1436898165817,0.0
741,1436898165834,0.0
742,1436898165854,0.0
743,1436898165876,0.0
744,1436898165897,0.0
745,1436898165918,0.0
746,1436898165937,0.0
747,1436898165957,0.0
748,1436898165978,0.0
749,1436898165997,0.0
750,1436898166017,0.0
751,1436898166038,0.0
752,1436898166057,0.0
753,1436898166075,0.0
754,1436898166095,0.0
755,1436898166117,0.0
756,1436898166135,0.0
757,1436898166157,0.0
758,1436898166174,0.0
759,1436898166197,0.0
760,1436898166216,0.0
761,1436898166237,0.0
762,1436898166259,0.0
763,1436898166274,0.0
764,1436898166294,0.0
765,1436898166314,0.0
766,1436898166335,0.0
767,1436898166356,0.0
768,1436898166427,0.0
769,1436898166428,0.0
770,1436898166429,0.0
771,1436898166439,0.0
772,1436898166457,0.0
773,1436898166477,0.0
774,1436898166494,0.0
775,1436898166514,0.0
776,1436898166536,0.0
777,1436898166557,0.0
778,1436898166576,0.0
779,1436898166595,0.0
780,1436898166620,0.0
781,1436898166638,0.0
782,1436898166655,0.0
783,1436898166679,0.0
784,1436898166695,0.0
785,1436898166716,0.0
786,1436898166735,0.0
787,1436898166758,0.0
788,1436898166777,0.0
789,1436898166798,0.0
790,1436898166815,0.0
791,1436898166836,0.0
792,1436898166859,0.0
793,1436898166875,0.0
794,1436898166895,0.0
795,1436898166916,0.0
796,1436898166938,0.0
797,1436898166961,0.0
798,1436898166977,0.0
799,1436898166998,0.0
800,1436898167015,0.0
801,1436898167035,0.0
802,1436898167055,0.0
803,1436898167079,0.0
804,1436898167095,0.0
805,1436898167162,0.0
806,1436898167163,0.0
807,1436898167164,0.0
808,1436898167175,0.0
809,1436898167198,0.0
810,1436898167215,0.0
811,1436898167235,0.0
812,1436898167258,0.0
813,1436898167275,0.0
814,1436898167296,0.0
815,1436898167318,0.0
816,1436898167338,0.0
817,1436898167355,0.0
818,1436898167378,0.0
819,1436898167398,0.0
820,1436898167418,0.0
821,1436898167438,0.0
822,1436898167458,0.0
823,1436898167478,0.0
824,1436898167498,0.0
825,1436898167518,0.0
826,1436898167536,0.0
827,1436898167558,0.0
828,1436898167579,0.0
829,1436898167598,0.0
830,1436898167617,0.0
831,1436898167637,0.0
832,1436898167661,0.0
833,1436898167683,0.0
834,1436898167695,0.0
835,1436898167719,0.0
836,1436898167739,0.0
837,1436898167757,0.0
838,1436898167777,0.0
839,1436898167797,0.0
840,1436898167816,0.0
841,1436898167882,0.0
842,1436898167883,0.0
843,1436898167884,0.0
844,1436898167895,0.0
845,1436898167919,0.0
846,1436898167937,0.0
847,1436898167966,0.0
848,1436898167981,0.0
849,1436898167997,0.0
850,1436898168018,0.0
851,1436898168037,0.0
852,1436898168059,0.0
853,1436898168076,0.0
854,1436898168099,0.0
855,1436898168119,0.0
856,1436898168139,0.0
857,1436898168159,0.0
858,1436898168179,0.0
859,1436898168213,0.0
860,1436898168247,0.0
861,1436898168248,0.0
862,1436898168264,0.0
863,1436898168278,0.0
864,1436898168298,0.0
865,1436898168319,0.0
866,1436898168338,0.0
867,1436898168358,0.0
868,1436898168378,0.0
869,1436898168398,0.0
870,1436898168418,0.0
871,1436898168439,0.0
872,1436898168458,0.0
873,1436898168479,0.0
874,1436898168498,0.0
875,1436898168525,0.0
876,1436898168598,0.0
877,1436898168599,0.0
878,1436898168600,0.0
879,1436898168604,0.0
880,1436898168618,0.0
881,1436898168636,0.0
882,1436898168660,0.0
883,1436898168677,0.0
884,1436898168702,0.0
885,1436898168724,0.0
886,1436898168749,0.0
887,1436898168758,0.0
888,1436898168785,0.0
889,1436898168799,0.0
890,1436898168818,0.0
891,1436898168840,0.0
892,1436898168859,0.0
893,1436898168880,0.0
894,1436898168899,0.0
895,1436898168920,0.0
896,1436898168940,0.0
897,1436898168960,0.0
898,1436898168980,0.0
899,1436898169000,0.0
900,1436898169018,0.0
901,1436898169040,0.0
902,1436898169059,0.0
903,1436898169079,0.0
904,1436898169098,0.0
905,1436898169120,0.0
906,1436898169140,0.0
907,1436898169160,0.0
908,1436898169180,0.0
909,1436898169198,0.0
910,1436898169220,0.0
911,1436898169239,0.0
912,1436898169258,0.0
