id,attr_time,attr_x,attr_y,attr_z
1,1436182170020,26.252,-37.657,-9.001
2,1436182170040,26.551,-37.657,-9.001
3,1436182170060,26.551,-37.657,-9.001
4,1436182170080,26.551,-38.021,-9.001
5,1436182170100,26.551,-38.021,-9.001
6,1436182170120,26.551,-38.021,-9.001
7,1436182170140,26.902,-38.021,-9.001
8,1436182170160,26.902,-38.021,-9.001
9,1436182170180,26.902,-38.021,-9.001
10,1436182170204,26.902,-38.021,-9.001
11,1436182170221,26.902,-38.021,-9.001
12,1436182170242,26.902,-38.021,-9.001
13,1436182170263,27.224,-38.021,-9.001
14,1436182170283,27.224,-38.021,-9.001
15,1436182170304,27.224,-38.021,-9.001
16,1436182170323,27.224,-38.021,-9.001
17,1436182170344,27.224,-38.021,-8.694
18,1436182170364,27.224,-38.021,-8.694
19,1436182170382,27.58,-38.021,-8.694
20,1436182170403,27.58,-38.021,-8.694
21,1436182170423,27.58,-38.021,-8.694
22,1436182170444,27.58,-38.021,-8.694
23,1436182170464,27.58,-38.021,-8.694
24,1436182170486,27.58,-38.021,-8.694
25,1436182170507,27.58,-38.021,-8.694
26,1436182170583,27.58,-38.021,-8.694
27,1436182170602,27.58,-38.021,-8.694
28,1436182170603,27.58,-38.021,-8.694
29,1436182170604,27.58,-38.021,-8.694
30,1436182170605,27.58,-38.021,-8.694
31,1436182170623,27.58,-38.021,-8.694
32,1436182170644,27.58,-38.021,-8.694
33,1436182170661,27.58,-38.021,-8.694
34,1436182170689,27.58,-38.021,-8.694
35,1436182170715,27.58,-38.327,-8.694
36,1436182170722,27.58,-38.327,-8.694
37,1436182170747,27.58,-38.327,-8.694
38,1436182170763,27.58,-38.327,-8.694
39,1436182170784,27.58,-38.327,-8.694
40,1436182170805,27.58,-38.327,-8.694
41,1436182170823,27.58,-38.327,-8.694
42,1436182170844,27.58,-38.327,-8.694
43,1436182170864,27.58,-38.327,-8.694
44,1436182170884,27.58,-38.676,-8.694
45,1436182170909,27.896,-38.676,-8.694
46,1436182170922,27.896,-38.676,-8.694
47,1436182170944,27.896,-38.676,-8.694
48,1436182170963,27.896,-38.676,-8.694
49,1436182170982,27.896,-38.676,-8.694
50,1436182171006,27.896,-38.676,-8.694
51,1436182171024,27.896,-38.676,-8.694
52,1436182171045,27.896,-38.676,-8.694
53,1436182171065,27.896,-38.676,-8.694
54,1436182171084,27.896,-38.676,-8.694
55,1436182171103,27.896,-38.676,-8.694
56,1436182171126,27.896,-38.676,-8.694
57,1436182171144,27.896,-38.676,-8.694
58,1436182171163,27.896,-38.676,-8.694
59,1436182171183,27.896,-38.676,-8.694
60,1436182171203,27.896,-38.676,-8.694
61,1436182171223,27.896,-38.676,-8.694
62,1436182171251,27.896,-38.676,-8.694
63,1436182171323,27.896,-38.676,-8.694
64,1436182171324,27.896,-38.676,-8.694
65,1436182171325,27.896,-38.366,-8.694
66,1436182171326,27.896,-38.366,-8.694
67,1436182171342,27.896,-38.366,-8.694
68,1436182171362,27.896,-38.366,-8.694
69,1436182171382,27.896,-38.366,-8.694
70,1436182171402,27.896,-38.366,-8.694
71,1436182171422,27.896,-38.366,-8.694
72,1436182171443,27.896,-38.366,-8.694
73,1436182171463,27.589,-38.366,-8.694
74,1436182171484,27.589,-38.366,-8.694
75,1436182171503,27.589,-38.366,-8.694
76,1436182171524,27.589,-38.366,-8.694
77,1436182171544,27.589,-38.366,-8.694
78,1436182171566,27.589,-38.366,-8.694
79,1436182171586,27.589,-38.066,-8.694
80,1436182171606,27.589,-38.066,-8.694
81,1436182171626,27.589,-38.066,-8.694
82,1436182171644,27.589,-38.066,-8.694
83,1436182171666,27.589,-38.066,-8.694
84,1436182171685,27.589,-38.066,-8.694
85,1436182171703,27.589,-38.066,-8.694
86,1436182171726,27.589,-38.066,-8.694
87,1436182171743,27.589,-38.066,-8.694
88,1436182171764,27.589,-38.066,-8.694
89,1436182171786,27.589,-38.066,-8.694
90,1436182171803,27.589,-38.066,-8.694
91,1436182171825,27.589,-38.066,-8.694
92,1436182171845,27.589,-38.066,-8.694
93,1436182171865,27.589,-38.066,-8.694
94,1436182171886,27.589,-38.066,-8.694
95,1436182171906,27.589,-38.375,-8.694
96,1436182171923,27.589,-38.375,-8.694
97,1436182171943,27.589,-38.375,-8.694
98,1436182171964,27.589,-38.375,-8.694
99,1436182171983,27.198,-38.375,-8.694
100,1436182172034,27.198,-38.375,-8.694
101,1436182172035,26.864,-38.702,-8.694
102,1436182172053,26.864,-38.702,-8.694
103,1436182172063,26.437,-38.702,-8.694
104,1436182172086,25.962,-38.702,-9.054
105,1436182172103,25.364,-39.033,-9.054
106,1436182172123,24.911,-39.033,-9.054
107,1436182172143,24.427,-39.033,-10.031
108,1436182172163,24.058,-39.382,-10.671
109,1436182172187,23.661,-39.382,-11.418
110,1436182172206,23.35,-39.382,-11.418
111,1436182172224,22.779,-39.758,-12.507
112,1436182172243,22.358,-39.758,-12.507
113,1436182172264,21.987,-39.758,-13.316
114,1436182172286,21.987,-40.174,-13.845
115,1436182172306,21.223,-40.174,-13.845
116,1436182172326,20.783,-40.174,-14.556
117,1436182172344,20.783,-40.571,-14.556
118,1436182172364,20.167,-40.571,-14.556
119,1436182172384,19.857,-40.571,-14.556
120,1436182172404,19.857,-40.924,-14.556
121,1436182172426,19.857,-40.924,-14.556
122,1436182172449,20.339,-40.924,-13.674
123,1436182172464,19.976,-40.924,-14.027
124,1436182172489,19.976,-41.232,-14.027
125,1436182172510,20.442,-41.232,-14.027
126,1436182172524,20.442,-41.232,-14.027
127,1436182172550,20.442,-41.232,-14.027
128,1436182172563,20.442,-41.232,-13.453
129,1436182172583,21.386,-41.232,-11.987
130,1436182172603,22.265,-41.232,-11.987
131,1436182172623,23.011,-41.232,-10.948
132,1436182172649,23.689,-40.853,-10.948
133,1436182172664,24.554,-40.853,-10.63
134,1436182172686,25.141,-40.853,-10.63
135,1436182172711,25.762,-40.441,-10.63
136,1436182172777,25.762,-40.441,-10.308
137,1436182172778,25.762,-40.078,-10.308
138,1436182172779,26.213,-40.078,-10.308
139,1436182172791,27.044,-39.578,-9.959
140,1436182172807,26.686,-39.022,-10.311
141,1436182172829,27.044,-39.022,-10.311
142,1436182172843,27.044,-38.671,-10.311
143,1436182172875,27.044,-38.671,-10.311
144,1436182172898,27.439,-38.267,-10.311
145,1436182172904,27.439,-38.267,-9.872
146,1436182172925,27.439,-38.267,-9.872
147,1436182172944,28.118,-38.267,-9.5
148,1436182172964,28.118,-37.855,-9.5
149,1436182172985,28.118,-37.855,-9.5
150,1436182173009,28.503,-37.855,-9.136
151,1436182173024,28.503,-37.472,-9.136
152,1436182173047,28.503,-37.472,-9.136
153,1436182173064,28.503,-37.472,-8.836
154,1436182173086,28.503,-37.117,-8.836
155,1436182173107,28.503,-37.117,-8.836
156,1436182173153,28.503,-37.117,-8.836
157,1436182173154,28.503,-37.117,-8.836
158,1436182173165,28.503,-37.117,-8.836
159,1436182173185,28.503,-37.117,-8.836
160,1436182173206,28.503,-37.117,-8.836
161,1436182173226,28.503,-37.117,-8.836
162,1436182173246,28.503,-37.117,-9.228
163,1436182173265,28.503,-37.117,-9.628
164,1436182173287,28.503,-37.117,-10.166
165,1436182173307,28.503,-37.117,-10.7
166,1436182173328,28.503,-37.117,-10.7
167,1436182173347,28.149,-37.117,-11.181
168,1436182173366,28.149,-37.117,-11.882
169,1436182173385,28.149,-37.463,-12.252
170,1436182173406,27.735,-37.463,-12.252
171,1436182173426,27.735,-37.463,-12.252
172,1436182173447,27.735,-37.463,-12.252
173,1436182173495,27.381,-37.463,-12.654
174,1436182173496,27.381,-37.463,-12.654
175,1436182173515,27.381,-37.463,-12.654
176,1436182173524,27.381,-37.463,-12.654
177,1436182173546,27.381,-37.463,-12.654
178,1436182173568,27.381,-37.463,-12.654
179,1436182173584,27.381,-37.463,-12.989
180,1436182173604,27.78,-37.463,-12.989
181,1436182173626,27.78,-36.755,-12.989
182,1436182173645,28.482,-36.207,-13.441
183,1436182173666,29.383,-35.884,-13.441
184,1436182173686,30.383,-35.546,-13.816
185,1436182173705,31.1,-35.079,-13.816
186,1436182173728,31.1,-35.079,-14.14
187,1436182173746,31.454,-35.079,-14.14
188,1436182173768,31.141,-35.079,-14.14
189,1436182173787,31.141,-35.079,-14.469
190,1436182173807,30.7,-35.079,-14.469
191,1436182173828,30.7,-35.079,-14.469
192,1436182173847,30.7,-35.079,-14.469
193,1436182173868,30.7,-35.079,-14.469
194,1436182173887,30.7,-35.079,-14.469
195,1436182173906,30.7,-35.079,-14.469
196,1436182173929,30.7,-35.079,-14.469
197,1436182173947,30.249,-35.414,-14.469
198,1436182173968,29.353,-36.215,-14.469
199,1436182173985,28.543,-36.744,-14.469
200,1436182174008,27.766,-37.083,-14.469
201,1436182174028,27.281,-37.648,-14.099
202,1436182174048,26.548,-37.648,-13.784
203,1436182174069,25.738,-38.169,-13.784
204,1436182174102,25.738,-38.169,-13.784
205,1436182174106,24.884,-38.65,-13.784
206,1436182174145,24.438,-38.65,-13.784
207,1436182174146,24.438,-38.096,-13.38
208,1436182174165,23.991,-38.096,-13.38
209,1436182174185,24.638,-38.096,-13.38
210,1436182174224,24.638,-38.096,-13.072
211,1436182174225,24.638,-38.096,-13.072
212,1436182174245,25.177,-38.096,-13.072
213,1436182174265,25.552,-38.481,-13.072
214,1436182174286,25.552,-38.481,-12.693
215,1436182174305,25.552,-38.481,-12.693
216,1436182174325,25.552,-38.481,-12.693
217,1436182174346,25.552,-38.481,-12.693
218,1436182174367,25.552,-38.481,-12.693
219,1436182174387,25.552,-38.481,-12.693
220,1436182174407,26.013,-38.481,-12.693
221,1436182174427,26.013,-38.481,-12.693
222,1436182174445,26.013,-38.481,-12.693
223,1436182174469,26.013,-38.481,-12.693
224,1436182174489,26.013,-38.481,-12.693
225,1436182174506,26.013,-38.481,-12.693
226,1436182174529,26.013,-38.481,-12.693
227,1436182174549,26.359,-38.481,-12.693
228,1436182174569,26.359,-38.481,-12.693
229,1436182174589,26.359,-38.481,-12.39
230,1436182174608,26.663,-38.481,-12.39
231,1436182174629,26.663,-38.481,-12.39
232,1436182174647,26.982,-38.481,-12.03
233,1436182174669,26.982,-38.481,-12.03
234,1436182174687,26.982,-38.481,-11.431
235,1436182174707,26.982,-38.481,-11.038
236,1436182174726,26.982,-38.481,-11.038
237,1436182174749,26.982,-38.481,-10.386
238,1436182174770,26.982,-38.481,-9.913
239,1436182174785,27.282,-38.481,-9.913
240,1436182174809,27.282,-38.156,-9.913
241,1436182174826,27.282,-38.156,-9.913
242,1436182174845,27.282,-38.156,-9.913
243,1436182174865,27.282,-38.156,-9.913
244,1436182174889,27.595,-38.156,-9.913
245,1436182174907,27.595,-38.156,-9.913
246,1436182175002,27.595,-37.834,-9.913
247,1436182175052,27.595,-37.834,-9.913
248,1436182175053,27.902,-37.834,-9.913
249,1436182175054,27.902,-37.834,-9.913
250,1436182175055,27.902,-37.834,-9.913
251,1436182175056,27.902,-37.834,-9.913
252,1436182175057,27.902,-37.834,-9.555
253,1436182175068,27.902,-37.834,-9.555
254,1436182175089,27.902,-37.834,-9.555
255,1436182175106,27.902,-37.834,-9.239
256,1436182175126,27.902,-37.834,-9.239
257,1436182175146,27.902,-37.834,-8.831
258,1436182175166,27.902,-37.834,-8.831
259,1436182175190,27.902,-37.834,-8.486
260,1436182175210,27.902,-37.834,-7.923
261,1436182175227,27.558,-37.834,-7.478
262,1436182175252,27.558,-37.834,-7.843
263,1436182175269,27.558,-37.834,-7.843
264,1436182175289,27.558,-37.834,-7.843
265,1436182175309,27.558,-37.834,-7.843
266,1436182175329,27.558,-37.834,-7.843
267,1436182175349,27.558,-37.834,-7.843
268,1436182175369,27.558,-37.834,-7.843
269,1436182175386,27.558,-37.834,-7.843
270,1436182175409,27.558,-37.834,-7.843
271,1436182175426,27.558,-37.834,-7.843
272,1436182175449,27.558,-37.834,-7.843
273,1436182175469,27.882,-37.834,-8.161
274,1436182175492,27.882,-37.515,-8.161
275,1436182175512,28.463,-37.515,-8.601
276,1436182175528,28.463,-37.515,-8.601
277,1436182175549,28.985,-37.211,-8.601
278,1436182175566,28.985,-37.211,-8.601
279,1436182175586,28.985,-37.211,-8.947
280,1436182175607,28.985,-37.211,-8.947
281,1436182175628,28.985,-37.211,-8.947
282,1436182175652,28.985,-37.211,-8.947
283,1436182175672,29.298,-37.211,-9.416
284,1436182175688,29.298,-37.211,-9.416
285,1436182175716,29.298,-37.211,-9.416
286,1436182175775,29.298,-37.211,-9.822
287,1436182175776,29.298,-37.211,-9.822
288,1436182175777,29.298,-37.211,-9.822
289,1436182175794,29.298,-37.211,-9.822
290,1436182175807,29.298,-37.211,-9.822
291,1436182175835,29.298,-37.211,-10.151
292,1436182175849,29.298,-37.211,-10.151
293,1436182175866,29.298,-37.211,-10.151
294,1436182175889,29.298,-37.211,-10.151
295,1436182175907,29.298,-37.211,-10.151
296,1436182175928,29.298,-36.886,-10.151
297,1436182175949,29.298,-36.886,-10.151
298,1436182175968,29.298,-36.886,-10.151
299,1436182175987,29.298,-36.886,-10.151
300,1436182176010,29.711,-36.558,-10.151
301,1436182176030,30.075,-36.558,-10.151
302,1436182176052,30.484,-36.558,-10.151
303,1436182176067,30.998,-36.177,-9.802
304,1436182176090,31.352,-36.177,-9.802
305,1436182176110,31.828,-36.177,-9.802
306,1436182176130,31.417,-35.676,-9.802
307,1436182176150,31.417,-35.676,-9.802
308,1436182176171,31.417,-35.26,-9.802
309,1436182176187,31.417,-35.26,-9.802
310,1436182176210,31.417,-34.921,-9.492
311,1436182176227,31.726,-34.921,-9.492
312,1436182176249,31.726,-34.921,-9.492
313,1436182176270,31.726,-34.49,-9.492
314,1436182176310,31.726,-34.49,-9.492
315,1436182176311,32.067,-34.49,-9.492
316,1436182176348,32.067,-34.49,-9.492
317,1436182176349,32.067,-34.49,-9.492
318,1436182176367,32.067,-34.181,-9.492
319,1436182176387,32.067,-34.181,-9.492
320,1436182176407,32.067,-34.181,-9.492
321,1436182176429,32.067,-34.181,-9.492
322,1436182176447,32.067,-34.181,-9.814
323,1436182176489,32.067,-34.181,-9.814
324,1436182176490,32.067,-34.181,-9.814
325,1436182176507,32.067,-34.181,-10.203
326,1436182176527,32.067,-34.181,-10.203
327,1436182176547,32.067,-34.181,-10.203
328,1436182176567,32.067,-34.181,-10.737
329,1436182176587,32.067,-34.181,-11.52
330,1436182176615,32.067,-34.181,-11.52
331,1436182176627,32.067,-34.181,-12.522
332,1436182176647,32.067,-34.181,-12.522
333,1436182176667,32.067,-34.49,-12.187
334,1436182176687,32.067,-34.49,-12.187
335,1436182176707,32.38,-34.49,-12.187
336,1436182176728,32.38,-34.49,-12.187
337,1436182176747,32.38,-34.49,-12.187
338,1436182176767,32.38,-34.49,-12.187
339,1436182176787,32.38,-34.49,-12.631
340,1436182176808,32.38,-34.49,-12.631
341,1436182176828,32.38,-34.49,-12.937
342,1436182176847,32.38,-34.49,-12.937
343,1436182176868,32.38,-34.49,-12.937
344,1436182176887,32.38,-34.49,-13.314
345,1436182176908,32.38,-34.49,-13.314
346,1436182176929,32.38,-34.49,-13.314
347,1436182176951,32.38,-34.49,-13.314
348,1436182176970,32.075,-34.49,-13.314
349,1436182176991,32.075,-34.49,-13.314
350,1436182177008,32.075,-34.49,-13.314
351,1436182177028,32.075,-34.49,-13.314
352,1436182177051,32.075,-34.49,-13.314
353,1436182177071,31.753,-34.49,-13.314
354,1436182177090,31.753,-34.49,-13.314
355,1436182177112,31.753,-34.49,-12.973
356,1436182177129,31.338,-34.84,-12.973
357,1436182177148,31.338,-34.84,-12.237
358,1436182177171,30.934,-34.84,-11.279
359,1436182177188,30.934,-34.84,-10.894
360,1436182177209,30.107,-35.183,-10.549
361,1436182177227,29.696,-35.183,-10.549
362,1436182177249,29.206,-35.183,-10.549
363,1436182177267,28.723,-35.183,-9.915
364,1436182177289,28.723,-35.623,-9.915
365,1436182177312,28.401,-35.623,-10.308
366,1436182177332,28.401,-35.925,-10.308
367,1436182177352,28.401,-35.925,-10.308
368,1436182177373,28.401,-36.28,-10.308
369,1436182177390,28.401,-36.28,-10.308
370,1436182177411,28.097,-37.055,-10.308
371,1436182177431,28.097,-37.379,-9.849
372,1436182177451,28.097,-37.841,-9.849
373,1436182177471,28.097,-37.841,-9.849
374,1436182177492,27.705,-38.145,-9.849
375,1436182177509,27.705,-38.145,-9.849
376,1436182177531,27.348,-38.145,-9.849
377,1436182177549,27.348,-38.145,-9.541
378,1436182177569,27.348,-38.145,-9.541
379,1436182177588,27.038,-38.145,-9.541
380,1436182177614,27.038,-38.473,-9.541
381,1436182177634,27.038,-38.473,-9.541
382,1436182177654,27.038,-38.796,-9.541
383,1436182177671,27.038,-38.796,-9.939
384,1436182177689,26.646,-38.796,-9.939
385,1436182177709,26.646,-39.125,-9.939
386,1436182177742,26.646,-39.125,-10.27
387,1436182177757,26.135,-39.125,-10.27
388,1436182177861,25.196,-39.125,-10.27
389,1436182177862,24.365,-39.433,-10.723
390,1436182177876,23.933,-39.433,-10.723
391,1436182177877,23.327,-39.433,-11.416
392,1436182177878,23.327,-39.433,-11.416
393,1436182177879,23.327,-39.433,-11.416
394,1436182177903,23.699,-39.433,-11.416
395,1436182177929,23.699,-39.433,-11.416
396,1436182177930,22.865,-39.735,-11.416
397,1436182177949,22.865,-39.735,-11.74
398,1436182177969,22.865,-39.735,-11.74
399,1436182177989,22.462,-39.735,-11.74
400,1436182178009,22.106,-39.735,-11.74
401,1436182178029,21.78,-39.735,-12.084
402,1436182178049,21.78,-39.735,-12.084
403,1436182178072,21.328,-40.113,-12.084
404,1436182179312,21.328,-40.113,-12.084
405,1436182179313,20.588,-40.113,-12.084
406,1436182179314,20.588,-40.428,-12.084
407,1436182179315,20.588,-40.428,-11.735
408,1436182179316,20.251,-40.428,-11.412
409,1436182179317,20.251,-40.846,-10.719
410,1436182179318,19.728,-40.846,-10.719
411,1436182179319,19.728,-41.242,-10.101
412,1436182179320,19.728,-41.242,-9.658
413,1436182179321,19.302,-41.778,-9.658
414,1436182179322,19.302,-41.778,-9.126
415,1436182179323,19.302,-42.251,-8.776
416,1436182179324,19.302,-42.251,-8.288
417,1436182179325,19.302,-42.251,-8.288
418,1436182179326,18.96,-42.251,-8.288
419,1436182179327,18.96,-42.251,-8.288
420,1436182179328,18.557,-42.636,-8.288
421,1436182179329,18.557,-42.636,-8.288
422,1436182179330,18.254,-42.636,-8.288
423,1436182179331,18.254,-43.008,-8.288
424,1436182179332,18.254,-43.008,-8.288
425,1436182179333,18.254,-43.008,-7.969
426,1436182179334,17.909,-43.008,-7.969
427,1436182179335,17.909,-43.008,-7.969
428,1436182179336,17.909,-43.008,-7.969
429,1436182179337,17.909,-43.008,-7.969
430,1436182179338,17.527,-43.008,-7.969
431,1436182179339,17.527,-43.008,-7.969
432,1436182179340,17.527,-43.008,-7.969
433,1436182179341,17.083,-43.008,-7.969
434,1436182179342,17.083,-43.008,-7.969
435,1436182179343,16.653,-43.008,-7.969
436,1436182179344,16.094,-43.008,-7.969
437,1436182179345,15.284,-43.008,-7.969
438,1436182179346,14.933,-43.31,-7.969
439,1436182179347,14.933,-43.31,-7.969
440,1436182179348,14.933,-43.31,-7.969
441,1436182179349,14.613,-43.31,-7.969
442,1436182179350,14.613,-43.31,-8.317
443,1436182179351,14.613,-43.31,-8.317
444,1436182179352,14.613,-43.31,-8.317
445,1436182179353,14.613,-43.641,-8.317
446,1436182179354,14.118,-43.641,-8.712
447,1436182179355,14.118,-43.641,-8.712
448,1436182179356,14.118,-43.641,-8.712
449,1436182179357,14.118,-43.641,-9.072
450,1436182179358,14.118,-43.641,-9.072
451,1436182179359,14.118,-43.641,-9.387
452,1436182179360,14.118,-43.641,-9.387
453,1436182179361,14.118,-43.641,-9.387
454,1436182179362,14.118,-43.641,-9.808
455,1436182179363,14.118,-43.641,-9.808
456,1436182179364,14.118,-43.641,-9.808
457,1436182179365,14.118,-43.641,-10.26
458,1436182179366,14.118,-43.641,-10.26
459,1436182179367,14.118,-43.641,-10.589
460,1436182179368,14.118,-43.641,-10.589
461,1436182179369,14.428,-43.641,-10.589
462,1436182179370,14.428,-43.641,-10.986
463,1436182179371,14.428,-43.641,-10.986
464,1436182179372,14.428,-43.641,-10.986
465,1436182179373,14.816,-43.341,-10.986
466,1436182179374,14.816,-43.341,-10.986
467,1436182179375,15.13,-43.341,-10.986
468,1436182179376,15.13,-43.341,-10.986
469,1436182179389,15.47,-43.341,-10.986
470,1436182179408,15.47,-43.341,-10.986
471,1436182179429,15.47,-43.341,-10.986
472,1436182179450,15.844,-43.341,-10.986
473,1436182179470,15.844,-43.341,-10.545
474,1436182179489,15.844,-43.341,-10.06
475,1436182179509,15.844,-43.661,-10.06
476,1436182179529,16.188,-43.661,-9.149
477,1436182179549,16.188,-43.661,-9.149
478,1436182179569,16.188,-43.661,-9.149
479,1436182179589,16.188,-43.661,-9.149
480,1436182179609,16.593,-43.661,-9.149
481,1436182179629,16.593,-43.661,-9.149
482,1436182179649,16.593,-43.661,-9.149
483,1436182179669,16.972,-43.661,-9.149
484,1436182179691,16.972,-43.661,-9.149
485,1436182179712,16.972,-43.661,-9.149
486,1436182179732,17.405,-43.661,-9.149
487,1436182179752,17.405,-43.661,-9.149
488,1436182179773,17.405,-43.661,-8.827
489,1436182179794,17.727,-43.661,-8.827
490,1436182179814,17.727,-43.351,-8.827
491,1436182179831,17.727,-43.351,-8.827
492,1436182179851,17.727,-43.351,-8.827
493,1436182179943,18.106,-43.351,-8.827
494,1436182179944,18.106,-43.031,-8.827
495,1436182179945,18.106,-43.031,-9.136
496,1436182179946,18.536,-43.031,-9.136
497,1436182179963,18.536,-43.031,-9.136
498,1436182179981,18.864,-42.622,-9.5
499,1436182179992,18.864,-42.622,-9.5
500,1436182180013,19.207,-42.622,-9.5
