id,attr_time,attr_x,attr_y,attr_z
1,1436182170018,37.2513,27.1072,-6.99768
2,1436182170031,37.7777,27.6337,-6.49414
3,1436182170056,37.6022,27.8107,-6.66199
4,1436182170072,37.6022,27.8107,-6.66199
5,1436182170094,37.9532,27.8107,-6.66199
6,1436182170112,38.6536,26.7548,-6.32477
7,1436182170135,38.6536,26.7548,-6.32477
8,1436182170151,38.1271,27.6337,-6.15692
9,1436182170176,36.3754,28.3371,-7.83844
10,1436182170190,36.3754,28.3371,-7.83844
11,1436182170216,37.2513,28.5126,-8.34351
12,1436182170230,38.6536,28.8651,-6.32477
13,1436182170255,38.6536,28.8651,-6.32477
14,1436182170270,38.3026,27.4582,-5.98907
15,1436182170293,38.6536,27.8107,-6.66199
16,1436182170309,38.6536,27.8107,-6.66199
17,1436182170333,39.3539,28.1616,-5.98907
18,1436182170348,37.4268,28.3371,-6.49414
19,1436182170374,37.4268,28.3371,-6.49414
20,1436182170391,37.2513,27.8107,-7.3349
21,1436182170412,39.0045,28.5126,-6.99768
22,1436182170428,39.0045,28.5126,-6.99768
23,1436182170451,37.9532,27.8107,-7.67059
24,1436182170468,38.4781,27.9861,-7.16553
25,1436182170491,38.4781,27.9861,-7.16553
26,1436182170507,37.7777,27.2827,-7.83844
27,1436182170531,38.1271,28.3371,-7.16553
28,1436182170547,38.1271,28.3371,-7.16553
29,1436182170571,40.0543,28.1616,-6.32477
30,1436182170587,38.4781,29.3915,-7.83844
31,1436182170611,38.4781,29.3915,-7.83844
32,1436182170624,38.829,26.9318,-6.49414
33,1436182170649,39.1785,26.9318,-7.16553
34,1436182170664,39.1785,26.9318,-7.16553
35,1436182170688,36.9019,28.5126,-6.32477
36,1436182170705,38.829,28.3371,-5.82123
37,1436182170728,38.829,28.3371,-5.82123
38,1436182170744,37.2513,27.8107,-6.66199
39,1436182170767,38.3026,27.4582,-6.32477
40,1436182170787,38.3026,27.4582,-6.32477
41,1436182170808,38.4781,29.3915,-6.49414
42,1436182170823,36.7264,27.9861,-7.50275
43,1436182170851,36.7264,27.9861,-7.50275
44,1436182170862,38.1271,28.3371,-7.50275
45,1436182170888,37.9532,27.1072,-7.3349
46,1436182170902,37.9532,27.1072,-7.3349
47,1436182170927,39.0045,28.8651,-6.32477
48,1436182170941,37.2513,29.216,-5.98907
49,1436182170967,37.2513,29.216,-5.98907
50,1436182170981,38.4781,27.2827,-7.16553
51,1436182171006,38.6536,28.5126,-8.00781
52,1436182171021,38.6536,28.5126,-8.00781
53,1436182171048,38.4781,25.5249,-9.18426
54,1436182171061,39.1785,29.0405,-7.16553
55,1436182171084,39.1785,29.0405,-7.16553
56,1436182171101,36.5509,27.4582,-5.98907
57,1436182171125,38.1271,26.9318,-9.18426
58,1436182171140,38.1271,26.9318,-9.18426
59,1436182171164,36.7264,29.0405,-7.83844
60,1436182171179,38.4781,29.0405,-6.82983
61,1436182171204,38.4781,29.0405,-6.82983
62,1436182171219,37.4268,26.9318,-6.49414
63,1436182171245,38.829,27.6337,-7.16553
64,1436182171258,38.829,27.6337,-7.16553
65,1436182171283,39.0045,27.8107,-6.99768
66,1436182171297,35.4996,27.1072,-6.32477
67,1436182171322,35.4996,27.1072,-6.32477
68,1436182171338,37.7777,28.3371,-6.15692
69,1436182171361,37.2513,29.216,-6.99768
70,1436182171377,37.2513,29.216,-6.99768
71,1436182171400,39.1785,27.9861,-7.16553
72,1436182171417,36.3754,27.6337,-6.49414
73,1436182171441,36.3754,27.6337,-6.49414
74,1436182171457,39.1785,26.9318,-7.16553
75,1436182171481,37.7777,27.2827,-7.50275
76,1436182171496,37.7777,27.2827,-7.50275
77,1436182171520,37.2513,28.5126,-6.32477
78,1436182171536,38.3026,27.8107,-6.99768
79,1436182171560,38.3026,27.8107,-6.99768
80,1436182171573,39.1785,28.3371,-7.83844
81,1436182171598,38.3026,28.1616,-5.98907
82,1436182171614,38.3026,28.1616,-5.98907
83,1436182171639,38.6536,27.8107,-8.00781
84,1436182171654,37.6022,29.216,-5.31616
85,1436182171679,37.6022,29.216,-5.31616
86,1436182171694,37.9532,26.7548,-6.66199
87,1436182171717,38.3026,28.5126,-5.65338
88,1436182171733,38.3026,28.5126,-5.65338
89,1436182171757,39.1785,27.9861,-7.16553
90,1436182171773,38.1271,29.0405,-6.82983
91,1436182171797,38.1271,29.0405,-6.82983
92,1436182171815,38.3026,27.8107,-7.3349
93,1436182171836,38.4781,27.9861,-7.50275
94,1436182171852,38.4781,27.9861,-7.50275
95,1436182171876,38.1271,28.3371,-6.49414
96,1436182171890,38.1271,28.3371,-6.15692
97,1436182171916,38.1271,28.3371,-6.15692
98,1436182171930,37.4268,27.6337,-7.16553
99,1436182171955,37.7777,27.6337,-7.16553
100,1436182171971,37.7777,27.6337,-7.16553
101,1436182171995,39.7049,28.1616,-6.99768
102,1436182172013,38.1271,27.2827,-6.15692
103,1436182172034,38.1271,27.2827,-6.15692
104,1436182172050,38.4781,28.3371,-6.82983
105,1436182172077,37.0773,29.0405,-6.49414
106,1436182172089,37.0773,29.0405,-6.49414
107,1436182172114,38.4781,27.2827,-7.50275
108,1436182172129,37.7777,29.0405,-6.15692
109,1436182172153,37.7777,29.0405,-6.15692
110,1436182172169,37.4268,27.2827,-5.82123
111,1436182172193,37.4268,27.2827,-6.82983
112,1436182172206,37.4268,27.2827,-6.82983
113,1436182172232,38.1271,26.5793,-6.49414
114,1436182172246,37.4268,30.0949,-5.82123
115,1436182172273,37.4268,30.0949,-5.82123
116,1436182172287,38.3026,27.4582,-6.66199
117,1436182172310,38.1271,27.6337,-5.14832
118,1436182172326,38.1271,27.6337,-5.14832
119,1436182172348,38.1271,29.0405,-7.16553
120,1436182172366,39.0045,28.1616,-6.99768
121,1436182172391,39.0045,28.1616,-6.99768
122,1436182172405,38.3026,27.4582,-6.32477
123,1436182172430,38.1271,28.6896,-6.49414
124,1436182172445,38.1271,28.6896,-6.49414
125,1436182172469,37.9532,28.8651,-7.3349
126,1436182172485,37.7777,28.6896,-6.49414
127,1436182172509,37.7777,28.6896,-6.49414
128,1436182172524,38.1271,27.2827,-6.49414
129,1436182172547,39.1785,26.9318,-8.17566
130,1436182172563,39.1785,26.9318,-8.17566
131,1436182172588,37.7777,28.3371,-6.49414
132,1436182172604,38.6536,28.5126,-4.30756
133,1436182172628,38.6536,28.5126,-4.30756
134,1436182172645,38.829,27.6337,-7.16553
135,1436182172666,38.1271,27.6337,-6.15692
136,1436182172683,38.1271,27.6337,-6.15692
137,1436182172707,38.1271,30.0949,-5.14832
138,1436182172722,37.6022,28.8651,-5.98907
139,1436182172746,37.6022,28.8651,-5.98907
140,1436182172762,37.9532,27.1072,-5.65338
141,1436182172786,39.0045,28.8651,-5.65338
142,1436182172801,39.0045,28.8651,-5.65338
143,1436182172825,38.3026,28.8651,-5.98907
144,1436182172841,38.4781,29.3915,-5.82123
145,1436182172865,38.4781,29.3915,-5.82123
146,1436182172879,39.1785,28.6896,-6.49414
147,1436182172904,38.829,29.0405,-5.48401
148,1436182172920,38.829,29.0405,-5.48401
149,1436182172943,38.1271,27.9861,-6.49414
150,1436182172959,38.829,30.0949,-6.49414
151,1436182172982,38.829,30.0949,-6.49414
152,1436182172999,38.4781,28.3371,-6.49414
153,1436182173022,36.5509,28.1616,-6.99768
154,1436182173041,36.5509,28.1616,-6.99768
155,1436182173063,37.6022,27.8107,-6.66199
156,1436182173078,38.3026,29.216,-5.31616
157,1436182173105,38.3026,29.216,-5.31616
158,1436182173118,37.9532,27.4582,-5.65338
159,1436182173142,38.3026,28.5126,-6.66199
160,1436182173157,38.3026,28.5126,-6.66199
161,1436182173182,37.0773,27.9861,-6.49414
162,1436182173195,37.6022,28.5126,-5.98907
163,1436182173221,37.6022,28.5126,-5.98907
164,1436182173235,37.4268,27.6337,-7.50275
165,1436182173260,37.4268,27.9861,-6.15692
166,1436182173276,37.4268,27.9861,-6.15692
167,1436182173301,39.0045,27.4582,-5.98907
168,1436182173315,39.3539,27.8107,-5.65338
169,1436182173340,39.3539,27.8107,-5.65338
170,1436182173355,37.6022,28.1616,-8.00781
171,1436182173378,38.1271,27.6337,-5.48401
172,1436182173394,38.1271,27.6337,-5.48401
173,1436182173419,38.1271,28.3371,-7.83844
174,1436182173433,39.0045,28.8651,-5.31616
175,1436182173459,39.0045,28.8651,-5.31616
176,1436182173473,38.6536,28.1616,-5.98907
177,1436182173497,38.3026,28.1616,-6.99768
178,1436182173512,38.3026,28.1616,-6.99768
179,1436182173537,38.3026,27.8107,-6.66199
180,1436182173551,38.1271,27.6337,-5.48401
181,1436182173700,38.1271,27.6337,-5.48401
182,1436182173701,38.1271,27.6337,-7.83844
183,1436182173702,38.4781,29.744,-7.16553
184,1436182173703,38.4781,29.744,-7.16553
185,1436182173704,38.6536,29.216,-5.31616
186,1436182173705,37.7777,30.0949,-6.15692
187,1436182173706,37.7777,30.0949,-6.15692
188,1436182173710,38.1271,29.0405,-5.48401
189,1436182173735,37.9532,29.5685,-5.31616
190,1436182173750,37.9532,29.5685,-5.31616
191,1436182173773,38.3026,29.216,-5.65338
192,1436182173790,39.0045,28.1616,-5.98907
193,1436182173814,39.0045,28.1616,-5.98907
194,1436182173828,38.3026,27.4582,-5.98907
195,1436182173853,38.4781,25.5249,-6.49414
196,1436182173870,38.4781,25.5249,-6.49414
197,1436182173893,39.0045,28.1616,-5.98907
198,1436182173909,38.4781,27.6337,-7.50275
199,1436182173931,38.4781,27.6337,-7.50275
200,1436182173948,37.0773,26.9318,-7.16553
201,1436182173971,40.2298,27.2827,-6.49414
202,1436182173988,40.2298,27.2827,-6.49414
203,1436182174012,39.3539,26.4038,-5.31616
204,1436182174027,38.829,25.8759,-4.81262
205,1436182174052,38.829,25.8759,-4.81262
206,1436182174067,38.6536,26.0529,-4.64325
207,1436182174091,38.829,27.2827,-5.48401
208,1436182174106,38.829,27.2827,-5.48401
209,1436182174133,39.3539,27.8107,-4.30756
210,1436182174144,39.8804,26.9318,-4.81262
211,1436182174171,39.8804,26.9318,-4.81262
212,1436182174185,39.1785,27.6337,-2.79388
213,1436182174210,39.0045,27.8107,-2.62604
214,1436182174225,39.0045,27.8107,-2.62604
215,1436182174248,38.829,27.9861,-3.12958
216,1436182174265,39.0045,27.4582,-4.30756
217,1436182174288,39.0045,27.4582,-4.30756
218,1436182174302,39.3539,26.0529,-2.96173
219,1436182174331,39.0045,27.4582,-2.28882
220,1436182174344,39.0045,27.4582,-2.28882
221,1436182174367,40.9302,27.2827,-1.78528
222,1436182174383,41.4566,26.4038,-3.29895
223,1436182174408,41.4566,26.4038,-3.29895
224,1436182174423,40.7562,24.295,-2.28882
225,1436182174446,39.7049,25.3494,-2.96173
226,1436182174460,39.7049,25.3494,-2.96173
227,1436182174487,40.5808,24.118,-1.44806
228,1436182174500,42.5079,23.5916,0.0640869
229,1436182174527,42.5079,23.5916,0.0640869
230,1436182174541,42.8574,20.4269,-0.6073
231,1436182174565,42.8574,19.7235,-0.6073
232,1436182174581,42.8574,19.7235,-0.6073
233,1436182174604,44.0842,18.8446,-0.776672
234,1436182174621,44.2596,16.2079,-0.6073
235,1436182174645,44.2596,16.2079,-0.6073
236,1436182174659,44.6106,16.5604,-0.271606
237,1436182174683,45.8359,16.7358,-1.44806
238,1436182174702,45.8359,16.7358,-1.44806
239,1436182174724,43.0328,18.1427,-0.776672
240,1436182174739,43.9087,16.9113,-1.95312
241,1436182174764,43.9087,16.9113,-1.95312
242,1436182174778,44.96,15.506,-0.944519
243,1436182174802,44.2596,16.5604,-1.28021
244,1436182174817,44.2596,16.5604,-1.28021
245,1436182174842,45.1355,17.7902,-2.12097
246,1436182174857,43.2083,19.0216,-2.62604
247,1436182174881,43.2083,19.0216,-2.62604
248,1436182174897,44.0842,18.8446,-3.12958
249,1436182174920,42.8574,19.3726,-6.32477
250,1436182174937,42.8574,19.3726,-6.32477
251,1436182174961,41.1056,21.1304,-5.31616
252,1436182174977,40.9302,24.118,-6.82983
253,1436182175000,40.9302,24.118,-6.82983
254,1436182175016,41.4566,25.7004,-8.34351
255,1436182175040,38.829,26.5793,-8.17566
256,1436182175056,38.829,26.5793,-8.17566
257,1436182175080,39.3539,27.1072,-8.00781
258,1436182175097,36.9019,30.2704,-8.00781
259,1436182175120,36.9019,30.2704,-8.00781
260,1436182175134,36.3754,28.6896,-10.1929
261,1436182175158,35.3241,30.7983,-10.8658
262,1436182175174,35.3241,30.7983,-10.8658
263,1436182175197,34.0988,31.6772,-13.3881
264,1436182175214,32.6965,34.1385,-12.7151
265,1436182175237,32.6965,34.1385,-12.7151
266,1436182175253,30.4199,30.7983,-16.5833
267,1436182175278,31.2958,32.3807,-18.0969
268,1436182175296,31.2958,32.3807,-18.0969
269,1436182175317,30.7693,32.5562,-16.5833
270,1436182175333,33.3969,34.1385,-16.0782
271,1436182175360,33.3969,34.1385,-16.0782
272,1436182175372,31.4697,31.8527,-14.9017
273,1436182175397,32.872,33.6105,-14.2288
274,1436182175410,32.872,33.6105,-14.2288
275,1436182175437,32.1716,31.8527,-13.8931
276,1436182175450,31.4697,32.2052,-13.5559
277,1436182175476,31.4697,32.2052,-13.5559
278,1436182175490,34.2728,30.4474,-11.2015
279,1436182175515,35.675,30.0949,-10.5301
280,1436182175530,35.675,30.0949,-10.5301
281,1436182175556,37.4268,28.6896,-7.83844
282,1436182175570,37.7777,27.6337,-6.49414
283,1436182175595,37.7777,27.6337,-6.49414
284,1436182175609,39.5294,26.2283,-5.48401
285,1436182175633,40.7562,22.1848,-5.31616
286,1436182175649,40.7562,22.1848,-5.31616
287,1436182175673,41.6321,20.2515,-4.13971
288,1436182175688,42.6834,20.2515,-1.11237
289,1436182175714,42.6834,20.2515,-1.11237
290,1436182175726,41.8076,17.6147,-1.61743
291,1436182175753,44.6106,14.4501,-0.944519
292,1436182175767,44.6106,14.4501,-0.944519
293,1436182175792,44.0842,14.2746,0.569153
294,1436182175807,45.1355,13.9236,1.91498
295,1436182175831,45.1355,13.9236,1.91498
296,1436182175847,45.6619,14.4501,0.737
297,1436182175870,44.4351,15.329,-0.439453
298,1436182175887,44.4351,15.329,-0.439453
299,1436182175908,45.4864,15.6815,-2.12097
300,1436182175928,44.96,18.3182,-3.63464
301,1436182175948,44.96,18.3182,-3.63464
302,1436182175966,44.4351,18.1427,-4.4754
303,1436182175988,43.2083,22.1848,-6.99768
304,1436182176005,43.2083,22.1848,-6.99768
305,1436182176028,40.4053,21.4813,-8.00781
306,1436182176043,39.1785,24.4705,-9.18426
307,1436182176069,39.1785,24.4705,-9.18426
308,1436182176083,37.9532,26.4038,-11.0336
309,1436182176107,38.1271,27.2827,-13.2202
310,1436182176126,38.1271,27.2827,-13.2202
311,1436182176145,36.026,29.0405,-12.8845
312,1436182176163,34.7992,30.6229,-16.0782
313,1436182176187,34.7992,30.6229,-16.0782
314,1436182176203,32.872,30.0949,-16.2476
315,1436182176226,31.6452,31.3263,-17.424
316,1436182176242,31.6452,31.3263,-17.424
317,1436182176266,32.1716,31.8527,-18.2648
318,1436182176282,30.4199,34.6649,-17.9291
319,1436182176307,30.4199,34.6649,-17.9291
320,1436182176324,31.1203,34.314,-16.2476
321,1436182176346,31.9962,32.7316,-16.0782
322,1436182176360,31.9962,32.7316,-16.0782
323,1436182176386,33.3969,33.0841,-15.4068
324,1436182176400,34.6237,32.2052,-13.5559
325,1436182176425,34.6237,32.2052,-13.5559
326,1436182176440,34.9747,30.0949,-13.2202
327,1436182176465,33.9233,29.3915,-12.8845
328,1436182176480,33.9233,29.3915,-12.8845
329,1436182176503,37.2513,28.8651,-12.7151
330,1436182176522,36.2,27.8107,-12.3795
331,1436182176544,36.2,27.8107,-12.3795
332,1436182176559,36.5509,26.7548,-12.0438
333,1436182176586,38.4781,27.6337,-9.51996
334,1436182176598,38.4781,27.6337,-9.51996
335,1436182176623,38.3026,28.8651,-9.01642
336,1436182176638,37.0773,29.0405,-4.81262
337,1436182176662,37.0773,29.0405,-4.81262
338,1436182176677,37.6022,27.1072,-2.96173
339,1436182176702,37.6022,27.4582,0.401306
340,1436182176716,37.6022,27.4582,0.401306
341,1436182176741,39.1785,26.2283,-0.776672
342,1436182176756,39.1785,24.4705,2.58789
343,1436182176784,39.1785,24.4705,2.58789
344,1436182176796,42.5079,22.1848,1.40991
345,1436182176820,43.3838,19.9005,2.25067
346,1436182176835,43.3838,19.9005,2.25067
347,1436182176860,44.2596,17.9657,3.42865
348,1436182176875,43.3838,16.3849,4.6051
349,1436182176900,43.3838,16.3849,4.6051
350,1436182176915,44.7845,16.0324,4.94232
351,1436182176939,44.7845,15.6815,4.6051
352,1436182176955,44.7845,15.6815,4.6051
353,1436182176978,44.4351,15.329,5.95093
354,1436182176994,45.311,15.1535,4.43726
355,1436182177018,45.311,15.1535,4.43726
356,1436182177033,43.0328,14.2746,3.5965
357,1436182177057,43.7347,15.6815,1.91498
358,1436182177073,43.7347,15.6815,1.91498
359,1436182177097,43.2083,17.6147,-1.28021
360,1436182177112,43.7347,20.6024,-1.44806
361,1436182177136,43.7347,20.6024,-1.44806
362,1436182177153,42.157,20.4269,-3.63464
363,1436182177176,41.9815,24.4705,-6.49414
364,1436182177192,41.9815,24.4705,-6.49414
365,1436182177216,37.2513,26.7548,-8.00781
366,1436182177231,36.2,28.1616,-9.01642
367,1436182177255,36.2,28.1616,-9.01642
368,1436182177271,36.026,28.6896,-11.5387
369,1436182177294,35.3241,31.8527,-12.8845
370,1436182177310,35.3241,31.8527,-12.8845
371,1436182177334,34.0988,31.3263,-16.4154
372,1436182177350,32.872,31.5018,-17.5919
373,1436182177374,32.872,31.5018,-17.5919
374,1436182177389,30.7693,31.5018,-18.602
375,1436182177412,30.7693,32.9071,-19.9463
376,1436182177429,30.7693,32.9071,-19.9463
377,1436182177452,30.2444,32.0282,-20.1141
378,1436182177469,28.3173,32.9071,-18.2648
379,1436182177494,28.3173,32.9071,-18.2648
380,1436182177508,30.4199,33.6105,-18.9377
381,1436182177533,28.8422,34.1385,-18.0969
382,1436182177550,28.8422,34.1385,-18.0969
383,1436182177572,29.8935,34.4894,-17.424
384,1436182177587,31.2958,32.0282,-16.4154
385,1436182177614,31.2958,32.0282,-16.4154
386,1436182177627,30.5939,32.7316,-15.7425
387,1436182177651,32.6965,30.9738,-15.4068
388,1436182177666,32.6965,30.9738,-15.4068
389,1436182177691,34.4482,30.6229,-14.061
390,1436182177705,35.8505,30.2704,-11.7065
391,1436182177731,35.8505,30.2704,-11.7065
392,1436182177745,35.8505,26.7548,-11.3709
393,1436182177768,38.4781,26.5793,-10.8658
394,1436182177785,38.4781,26.5793,-10.8658
395,1436182177811,36.7264,26.2283,-8.17566
396,1436182177824,39.1785,27.9861,-7.50275
397,1436182177849,39.1785,27.9861,-7.50275
398,1436182177864,39.3539,24.9969,-5.31616
399,1436182177889,41.8076,24.646,-5.65338
400,1436182177904,41.8076,24.646,-5.65338
401,1436182177927,40.9302,23.7671,-2.45819
402,1436182177943,41.4566,23.5916,-1.61743
403,1436182177968,41.4566,23.5916,-1.61743
404,1436182177984,41.8076,20.4269,0.0640869
405,1436182178006,42.6834,20.2515,-0.10376
406,1436182178022,42.6834,20.2515,-0.10376
407,1436182178047,43.0328,19.9005,1.57776
408,1436182178062,43.9087,19.3726,2.08282
409,1436182178086,43.9087,19.3726,2.08282
410,1436182178102,44.2596,17.2638,2.08282
411,1436182178125,44.2596,19.7235,1.07422
412,1436182178141,44.2596,19.7235,1.07422
413,1436182178165,43.9087,17.9657,1.74713
414,1436182178183,43.9087,19.7235,0.401306
415,1436182178205,43.9087,19.7235,0.401306
416,1436182178220,44.2596,17.9657,0.401306
417,1436182178245,43.2083,19.0216,-0.271606
418,1436182178260,43.2083,19.0216,-0.271606
419,1436182178283,42.5079,21.1304,-2.28882
420,1436182178299,43.2083,22.5372,-3.63464
421,1436182178324,43.2083,22.5372,-3.63464
422,1436182178338,40.5808,23.7671,-7.16553
423,1436182178362,40.4053,25.7004,-8.6792
424,1436182178381,40.4053,25.7004,-8.6792
425,1436182178401,38.6536,26.7548,-11.0336
426,1436182178418,37.9532,27.8107,-12.3795
427,1436182178441,37.9532,27.8107,-12.3795
428,1436182178458,36.2,26.7548,-15.4068
429,1436182178481,35.3241,29.744,-17.2562
430,1436182178497,35.3241,29.744,-17.2562
431,1436182178521,34.7992,27.4582,-19.4427
432,1436182178537,31.9962,28.1616,-22.1329
433,1436182178562,31.9962,28.1616,-22.1329
434,1436182178577,31.4697,25.5249,-24.9924
435,1436182178601,30.9448,27.8107,-23.8144
436,1436182178614,30.9448,27.8107,-23.8144
437,1436182178641,31.1203,27.2827,-25.6638
438,1436182178654,30.7693,27.2827,-23.3093
439,1436182178680,30.7693,27.2827,-23.3093
440,1436182178695,29.5425,27.4582,-25.1602
441,1436182178718,29.1931,27.8107,-24.1501
442,1436182178734,29.1931,27.8107,-24.1501
443,1436182178757,30.2444,29.5685,-24.1501
444,1436182178774,29.1931,30.2704,-22.8058
445,1436182178799,29.1931,30.2704,-22.8058
446,1436182178813,30.7693,29.3915,-21.6278
447,1436182178839,31.8207,30.7983,-18.602
448,1436182178852,31.8207,30.7983,-18.602
449,1436182178878,33.7479,29.9194,-17.7612
450,1436182178892,33.223,30.4474,-14.9017
451,1436182178917,33.223,30.4474,-14.9017
452,1436182178931,35.675,27.6337,-14.566
453,1436182178957,36.026,29.0405,-11.5387
454,1436182178970,36.026,29.0405,-11.5387
455,1436182178997,36.5509,28.8651,-12.3795
456,1436182179011,36.5509,28.5126,-9.35211
457,1436182179037,36.5509,28.5126,-9.35211
458,1436182179051,37.2513,27.8107,-8.00781
459,1436182179074,39.3539,27.4582,-5.98907
460,1436182179091,39.3539,27.4582,-5.98907
461,1436182179113,39.3539,26.7548,-4.64325
462,1436182179130,40.5808,24.4705,-1.44806
463,1436182179155,40.5808,24.4705,-1.44806
464,1436182179170,40.7562,23.9426,-1.95312
465,1436182179193,41.4566,22.1848,1.74713
466,1436182179212,41.4566,22.1848,1.74713
467,1436182179233,42.8574,19.3726,1.74713
468,1436182179248,44.96,19.7235,2.08282
469,1436182179273,44.96,19.7235,2.08282
