id,attr_time,attr_x,attr_y,attr_z
1,1436182170026,12.582,-38.664,22.52
2,1436182170046,12.582,-38.664,22.52
3,1436182170070,12.582,-38.664,22.52
4,1436182170088,12.582,-38.664,22.52
5,1436182170107,12.582,-38.664,22.52
6,1436182170128,12.582,-38.664,22.52
7,1436182170148,12.582,-38.664,22.52
8,1436182170168,12.582,-38.664,22.52
9,1436182170188,12.582,-38.664,22.52
10,1436182170206,12.582,-38.664,22.52
11,1436182170228,12.582,-38.664,22.52
12,1436182170249,12.582,-38.664,22.52
13,1436182170265,12.582,-38.664,22.52
14,1436182170288,12.582,-38.664,22.52
15,1436182170305,12.582,-38.664,22.52
16,1436182170326,12.582,-38.664,22.52
17,1436182170346,12.582,-38.664,22.52
18,1436182170368,12.582,-38.664,22.52
19,1436182170388,12.582,-38.664,22.52
20,1436182170408,12.582,-38.664,22.52
21,1436182170428,12.582,-38.664,22.52
22,1436182170447,12.582,-38.664,22.52
23,1436182170467,12.582,-38.664,22.52
24,1436182170487,12.582,-38.664,22.52
25,1436182170509,12.582,-38.664,22.52
26,1436182170525,12.582,-38.664,22.52
27,1436182170583,12.582,-38.664,22.52
28,1436182170595,12.582,-38.664,22.52
29,1436182170596,12.582,-38.664,22.52
30,1436182170606,12.582,-38.664,22.52
31,1436182170635,12.582,-38.664,22.52
32,1436182170648,12.582,-38.664,22.52
33,1436182170665,12.582,-38.664,22.52
34,1436182170688,12.582,-38.664,22.52
35,1436182170705,12.582,-38.664,22.52
36,1436182170730,12.582,-38.664,22.52
37,1436182170749,12.582,-38.664,22.52
38,1436182170766,12.582,-38.664,22.52
39,1436182170785,12.582,-38.664,22.52
40,1436182170808,12.582,-38.664,22.52
41,1436182170829,12.582,-38.664,22.52
42,1436182170856,12.582,-38.664,22.52
43,1436182170869,12.582,-38.664,22.52
44,1436182170890,12.582,-38.664,22.52
45,1436182170909,12.582,-38.664,22.52
46,1436182170927,12.582,-38.664,22.52
47,1436182170946,12.582,-38.664,22.52
48,1436182171086,12.582,-38.664,22.52
49,1436182171087,12.582,-38.664,22.52
50,1436182171088,12.582,-38.664,22.52
51,1436182171089,12.582,-38.664,22.52
52,1436182171090,12.582,-38.664,22.52
53,1436182171091,12.582,-38.664,22.52
54,1436182171092,12.582,-38.664,22.52
55,1436182171106,12.582,-38.664,22.52
56,1436182171126,12.582,-38.664,22.52
57,1436182171152,12.582,-38.664,22.52
58,1436182171166,12.582,-38.664,22.52
59,1436182171187,12.582,-38.664,22.52
60,1436182171206,12.582,-38.664,22.52
61,1436182171228,12.582,-38.664,22.52
62,1436182171307,12.582,-38.664,22.52
63,1436182171308,12.582,-38.664,22.52
64,1436182171309,12.582,-38.664,22.52
65,1436182171310,12.582,-38.664,22.52
66,1436182171332,12.582,-38.664,22.52
67,1436182171349,12.582,-38.664,22.52
68,1436182171369,12.582,-38.664,22.52
69,1436182171385,12.582,-38.664,22.52
70,1436182171407,12.582,-38.664,22.52
71,1436182171428,12.582,-38.664,22.52
72,1436182171448,12.582,-38.664,22.52
73,1436182171467,12.582,-38.664,22.52
74,1436182171489,12.582,-38.664,22.52
75,1436182171506,12.582,-38.664,22.52
76,1436182171530,12.884,-38.664,22.52
77,1436182171549,12.884,-38.664,22.52
78,1436182171569,12.884,-38.664,22.52
79,1436182171590,12.884,-38.664,22.52
80,1436182171610,12.884,-38.664,22.52
81,1436182171630,12.884,-38.664,22.52
82,1436182171649,12.884,-38.664,22.52
83,1436182171669,12.884,-38.664,22.52
84,1436182171687,12.884,-38.664,22.52
85,1436182171710,12.884,-38.664,22.52
86,1436182171731,12.884,-38.664,22.52
87,1436182171749,12.884,-38.664,22.52
88,1436182171769,12.884,-38.664,22.52
89,1436182171790,12.884,-38.664,22.52
90,1436182171807,12.884,-38.664,22.52
91,1436182171827,12.884,-38.664,22.52
92,1436182171846,12.884,-38.664,22.52
93,1436182171872,12.884,-38.664,22.52
94,1436182171893,12.884,-38.664,22.52
95,1436182171913,12.884,-38.664,22.52
96,1436182171931,12.884,-38.664,22.52
97,1436182171951,12.884,-38.664,22.52
98,1436182172029,12.884,-38.664,22.52
99,1436182172030,12.884,-38.664,22.52
100,1436182172031,12.884,-38.664,22.52
101,1436182172032,12.884,-38.664,22.52
102,1436182172049,12.884,-38.664,22.52
103,1436182172070,12.884,-38.664,22.52
104,1436182172087,12.884,-38.664,22.52
105,1436182172111,12.884,-38.664,22.52
106,1436182172138,12.884,-38.664,22.52
107,1436182172149,12.884,-38.664,22.52
108,1436182172173,12.884,-38.664,22.52
109,1436182172188,12.884,-38.664,22.52
110,1436182172211,12.884,-38.664,22.52
111,1436182172227,12.884,-38.664,22.52
112,1436182172250,12.884,-38.664,22.52
113,1436182172270,12.884,-38.664,22.52
114,1436182172290,12.884,-38.664,22.52
115,1436182172310,12.884,-38.664,22.52
116,1436182172330,12.884,-38.664,22.52
117,1436182172350,12.884,-38.664,22.52
118,1436182172370,12.884,-38.664,22.52
119,1436182172390,12.884,-38.664,22.52
120,1436182172408,12.884,-38.664,22.52
121,1436182172428,12.884,-38.664,22.52
122,1436182172450,12.884,-38.664,22.52
123,1436182172468,12.884,-38.664,22.52
124,1436182172489,12.884,-38.664,22.52
125,1436182172511,12.884,-38.664,22.52
126,1436182172532,12.884,-38.664,22.52
127,1436182172552,12.884,-38.664,22.52
128,1436182172573,12.884,-38.664,22.52
129,1436182172591,12.884,-38.664,22.52
130,1436182172608,12.884,-38.664,22.52
131,1436182172629,12.884,-38.664,22.52
132,1436182172650,12.884,-38.664,22.52
133,1436182172670,12.884,-38.664,22.52
134,1436182172691,12.884,-38.664,22.52
135,1436182172741,12.884,-38.664,22.52
136,1436182172742,12.884,-38.664,22.52
137,1436182172756,12.884,-38.664,22.52
138,1436182172768,12.884,-38.664,22.52
139,1436182172788,12.884,-38.664,22.52
140,1436182172809,12.884,-38.664,22.52
141,1436182172829,12.884,-38.664,22.52
142,1436182172850,12.884,-38.664,22.52
143,1436182172869,12.884,-38.664,22.52
144,1436182172889,12.884,-38.664,22.52
145,1436182172909,12.884,-38.664,22.52
146,1436182172930,12.884,-38.664,22.831
147,1436182172947,12.884,-38.664,22.831
148,1436182172971,12.884,-38.664,22.831
149,1436182172991,12.884,-38.664,22.831
150,1436182173011,12.884,-38.664,22.831
151,1436182173031,12.884,-38.664,22.831
152,1436182173051,12.884,-38.664,22.831
153,1436182173071,12.884,-38.664,22.831
154,1436182173091,12.884,-38.664,22.831
155,1436182173111,12.884,-38.664,22.831
156,1436182173131,12.884,-38.664,22.831
157,1436182173150,12.884,-38.664,22.831
158,1436182173171,12.884,-38.664,22.831
159,1436182173190,12.884,-38.664,22.831
160,1436182173208,12.884,-38.664,22.831
161,1436182173228,12.884,-38.664,22.831
162,1436182173248,12.884,-38.664,22.831
163,1436182173272,12.884,-38.664,22.494
164,1436182173291,12.884,-38.664,22.494
165,1436182173311,12.562,-38.664,22.494
166,1436182173330,12.562,-38.984,22.494
167,1436182173351,12.562,-38.984,22.192
168,1436182173370,12.562,-38.984,22.192
169,1436182173390,12.562,-38.984,22.192
170,1436182173408,12.19,-38.984,22.192
171,1436182173459,12.19,-39.36,21.821
172,1436182173460,12.19,-39.36,21.821
173,1436182173478,11.715,-39.36,21.821
174,1436182173488,11.715,-39.36,21.821
175,1436182173510,11.325,-39.755,21.821
176,1436182173529,10.926,-39.755,21.821
177,1436182173549,10.508,-39.755,21.488
178,1436182173571,10.186,-39.755,21.488
179,1436182173589,10.186,-40.13,21.488
180,1436182173610,9.573,-40.13,21.488
181,1436182173631,9.573,-40.13,21.488
182,1436182173649,8.978,-40.13,21.488
183,1436182173668,8.978,-40.463,21.488
184,1436182173692,8.328,-40.463,21.488
185,1436182173712,8.328,-40.463,21.488
186,1436182173732,8.015,-40.463,21.488
187,1436182173752,8.015,-40.463,21.488
188,1436182173772,8.015,-40.463,21.488
189,1436182173792,7.58,-40.463,21.488
190,1436182173812,7.58,-40.463,21.929
191,1436182173832,7.58,-40.463,21.929
192,1436182173853,7.58,-40.463,22.285
193,1436182173869,7.215,-40.463,22.689
194,1436182173892,7.215,-40.463,22.689
195,1436182173909,6.785,-40.463,23.243
196,1436182173929,6.785,-40.463,23.718
197,1436182173949,6.192,-40.463,23.718
198,1436182173973,5.754,-40.463,23.718
199,1436182173993,5.439,-40.463,23.718
200,1436182174014,5.439,-40.463,23.718
201,1436182174032,4.925,-40.463,24.026
202,1436182174048,4.925,-40.463,24.026
203,1436182174069,4.37,-40.127,24.026
204,1436182174101,4.37,-40.127,24.412
205,1436182174118,4.006,-40.127,24.412
206,1436182174171,4.006,-40.127,24.412
207,1436182174172,3.604,-40.127,24.412
208,1436182174173,3.184,-40.127,24.412
209,1436182174207,3.184,-40.127,24.412
210,1436182174209,2.482,-40.127,24.412
211,1436182174229,2.056,-40.127,24.412
212,1436182174249,1.527,-40.127,24.412
213,1436182174287,0.605,-40.127,24.412
214,1436182174288,-0.291,-40.127,24.412
215,1436182174309,-1.843,-40.127,23.394
216,1436182174331,-3.025,-40.458,22.888
217,1436182174349,-4.733,-40.458,21.649
218,1436182174375,-6.335,-40.458,20.89
219,1436182174389,-8.216,-40.864,19.58
220,1436182174413,-10.075,-40.864,18.116
221,1436182174432,-12.29,-40.864,16.273
222,1436182174452,-14.587,-41.258,14.897
223,1436182174472,-16.989,-41.258,12.635
224,1436182174492,-19.253,-41.258,10.627
225,1436182174512,-21.492,-41.258,9.24
226,1436182174532,-23.127,-41.258,8.541
227,1436182174552,-23.963,-41.258,6.938
228,1436182174572,-24.806,-41.258,5.726
229,1436182174593,-25.244,-41.258,5.288
230,1436182174610,-24.407,-41.258,4.675
231,1436182174632,-23.078,-41.258,4.231
232,1436182174652,-22.045,-41.258,5.195
233,1436182174672,-20.202,-41.258,5.63
234,1436182174693,-17.997,-41.583,6.427
235,1436182174713,-15.696,-41.929,7.8
236,1436182174733,-13.224,-42.489,9.819
237,1436182174753,-10.447,-42.489,11.972
238,1436182174773,-7.254,-43.165,14.61
239,1436182174793,-4.113,-43.165,16.734
240,1436182174814,-1.007,-42.543,18.795
241,1436182174833,2.33,-42.085,21.159
242,1436182174852,5.795,-41.006,22.674
243,1436182174877,8.744,-39.865,24.407
244,1436182174943,11.888,-38.116,26.11
245,1436182174944,14.613,-35.853,26.722
246,1436182174945,17.747,-33.259,27.99
247,1436182174952,21.252,-31.019,28.913
248,1436182174971,23.812,-29.133,28.179
249,1436182174995,25.856,-27.909,27.867
250,1436182175010,26.387,-27.081,27.352
251,1436182175030,25.958,-27.569,26.481
252,1436182175052,24.623,-28.721,26.481
253,1436182175070,23.68,-30.075,26.481
254,1436182175091,22.1,-30.075,27.511
255,1436182175110,21.319,-31.948,26.554
256,1436182175131,20.274,-33.012,25.936
257,1436182175153,18.557,-34.208,26.324
258,1436182175174,17.532,-34.953,25.363
259,1436182175196,16.54,-35.597,25.363
260,1436182175210,15.119,-36.061,26.02
261,1436182175231,13.903,-36.74,26.02
262,1436182175252,13.497,-36.74,26.626
263,1436182175271,12.902,-36.74,26.626
264,1436182175291,12.426,-37.271,26.626
265,1436182175312,12.002,-37.271,26.626
266,1436182175333,11.174,-37.271,26.626
267,1436182175351,11.174,-37.271,26.21
268,1436182175372,10.678,-37.271,26.21
269,1436182175391,10.264,-37.826,25.907
270,1436182175410,10.264,-37.826,25.907
271,1436182175430,9.295,-37.826,25.907
272,1436182175452,8.464,-37.826,25.907
273,1436182175472,8.464,-37.826,25.907
274,1436182175493,7.533,-37.826,25.54
275,1436182175512,6.719,-37.826,25.54
276,1436182175533,5.72,-37.826,25.54
277,1436182175552,4.771,-37.826,25.54
278,1436182175572,3.991,-37.826,25.54
279,1436182175593,3.102,-38.185,25.54
280,1436182175617,1.976,-38.185,25.54
281,1436182175676,0.274,-38.513,25.54
282,1436182175677,-1.228,-38.513,25.54
283,1436182175678,-2.702,-38.83,25.54
284,1436182175692,-4.666,-38.83,25.16
285,1436182175711,-6.536,-39.16,25.16
286,1436182175732,-8.625,-39.16,23.808
287,1436182175750,-10.968,-39.569,21.847
288,1436182175772,-13.456,-39.569,18.807
289,1436182175792,-16.616,-40.072,17.008
290,1436182175858,-18.876,-40.072,14.578
291,1436182175859,-21.2,-40.072,12.512
292,1436182175860,-23.211,-40.072,11.485
293,1436182175900,-24.612,-40.072,11.163
294,1436182175901,-25.448,-40.072,9.065
295,1436182175910,-26.176,-40.072,8.145
296,1436182175930,-25.711,-40.072,7.551
297,1436182175951,-24.589,-40.072,7.551
298,1436182175970,-22.966,-40.072,6.446
299,1436182175991,-20.939,-40.072,6.446
300,1436182176011,-18.795,-40.414,8.148
301,1436182176030,-16.188,-40.414,9.606
302,1436182176051,-13.563,-41.238,12.332
303,1436182176071,-10.681,-41.918,14.512
304,1436182176091,-7.366,-41.918,17.306
305,1436182176111,-4.118,-41.918,20.414
306,1436182176131,-0.509,-41.014,23.037
307,1436182176151,3.634,-40.232,25.439
308,1436182176171,8.808,-38.726,27.43
309,1436182176191,13.674,-36.08,27.833
310,1436182176211,19.038,-33.145,29.177
311,1436182176232,23.541,-30.259,27.935
312,1436182176252,26.448,-27.819,27.935
313,1436182176275,27.088,-26.892,26.985
314,1436182176293,26.184,-27.363,26.985
315,1436182176311,25.247,-28.665,26.985
316,1436182176331,23.228,-29.862,27.859
317,1436182176351,20.745,-31.929,27.314
318,1436182176372,19.564,-33.558,26.185
319,1436182176394,17.778,-34.907,24.024
320,1436182176425,16.737,-36.07,24.024
321,1436182176430,15.626,-36.663,24.024
322,1436182176451,14.134,-37.071,24.024
323,1436182176470,12.969,-37.071,24.024
324,1436182176491,12.115,-37.071,24.598
325,1436182176513,11.668,-37.696,24.977
326,1436182176532,11.668,-38.214,24.977
327,1436182176551,11.09,-38.214,24.621
328,1436182176572,10.321,-38.629,24.621
329,1436182176594,10.008,-38.629,24.621
330,1436182176611,9.559,-38.629,24.266
331,1436182176631,9.043,-38.629,24.266
332,1436182176654,8.262,-39.208,24.638
333,1436182176675,7.583,-39.208,24.638
334,1436182176695,6.912,-39.208,24.638
335,1436182176715,5.796,-39.514,24.638
336,1436182176735,5.342,-39.514,24.23
337,1436182176755,4.209,-39.514,24.23
338,1436182176773,3.637,-39.135,24.23
339,1436182176793,2.189,-39.135,24.23
340,1436182176812,0.727,-39.135,23.924
341,1436182176831,-0.494,-39.135,23.924
342,1436182176851,-2.244,-39.515,23.924
343,1436182176872,-3.703,-39.515,23.924
344,1436182176892,-5.766,-39.92,23.582
345,1436182176912,-7.647,-39.92,23.582
346,1436182176932,-9.822,-40.307,21.301
347,1436182176952,-12.263,-40.307,19.252
348,1436182176972,-15.124,-40.615,16.581
349,1436182176992,-17.407,-40.615,13.244
350,1436182177012,-20.048,-40.615,10.192
351,1436182177034,-22.299,-40.615,7.406
352,1436182177052,-24.299,-40.615,6.083
353,1436182177121,-25.086,-40.615,6.083
354,1436182177122,-25.639,-40.615,3.8
355,1436182177123,-25.946,-40.165,3.8
356,1436182177132,-25.112,-40.165,3.8
357,1436182177156,-23.661,-40.165,3.8
358,1436182177172,-22.125,-40.165,4.846
359,1436182177192,-20.085,-40.718,5.964
360,1436182177213,-17.936,-40.718,7.87
361,1436182177234,-15.425,-41.638,10.226
362,1436182177254,-12.46,-42.408,12.037
363,1436182177273,-8.801,-42.886,14.266
364,1436182177295,-5.461,-42.886,16.606
365,1436182177313,-1.814,-42.886,19.16
366,1436182177332,1.455,-41.717,22.444
367,1436182177355,5.401,-40.502,23.675
368,1436182177373,8.992,-38.864,26.152
369,1436182177395,12.765,-36.618,27.819
370,1436182177415,16.625,-33.784,28.962
371,1436182177435,21.357,-30.729,28.962
372,1436182177456,24.769,-28.002,28.962
373,1436182177472,27.021,-26.432,28.12
374,1436182177493,27.021,-25.901,28.12
375,1436182177513,25.921,-27.0,27.812
376,1436182177533,25.088,-27.838,27.465
377,1436182177554,21.928,-30.252,28.361
378,1436182177572,21.53,-31.848,26.672
379,1436182177592,19.758,-33.517,25.886
380,1436182177615,18.406,-34.692,25.091
381,1436182177635,17.35,-35.845,24.116
382,1436182177655,15.551,-36.659,24.116
383,1436182177673,14.283,-36.967,24.598
384,1436182177694,13.317,-36.967,24.598
385,1436182177715,13.317,-37.292,24.598
386,1436182177733,12.751,-37.292,24.948
387,1436182177753,12.425,-37.611,24.948
388,1436182177776,12.052,-37.611,24.598
389,1436182177874,11.563,-38.047,24.598
390,1436182177875,11.027,-38.386,24.598
391,1436182177876,10.406,-38.386,24.598
392,1436182177877,9.994,-38.386,24.598
393,1436182177878,9.596,-38.386,24.598
394,1436182177894,8.822,-38.862,24.598
395,1436182177915,8.164,-38.862,24.598
396,1436182177932,7.345,-38.862,24.598
397,1436182177954,6.326,-38.862,24.598
398,1436182177974,5.294,-38.862,24.298
399,1436182177993,4.246,-38.862,24.298
400,1436182178014,3.091,-38.536,24.298
401,1436182178034,1.76,-38.536,24.298
402,1436182178053,0.517,-38.993,24.298
403,1436182178073,-1.545,-38.993,23.96
404,1436182178093,-3.233,-39.561,23.96
405,1436182178116,-5.332,-40.17,23.529
406,1436182178133,-7.608,-40.751,21.58
407,1436182178156,-10.148,-40.751,19.851
408,1436182178173,-12.931,-41.117,17.245
409,1436182178193,-15.771,-41.117,14.956
410,1436182178215,-18.544,-41.117,11.474
411,1436182178235,-21.113,-40.788,7.591
412,1436182178255,-23.22,-40.788,6.634
413,1436182178274,-24.623,-40.788,5.122
414,1436182178294,-25.538,-40.396,4.2
415,1436182178313,-25.857,-39.927,3.556
416,1436182178336,-24.914,-39.927,3.556
417,1436182178355,-23.391,-40.342,3.556
418,1436182178376,-21.936,-40.715,5.122
419,1436182178393,-19.59,-41.11,6.716
420,1436182178413,-17.53,-41.59,9.126
421,1436182178435,-14.295,-42.039,11.636
422,1436182178456,-10.891,-42.442,13.917
423,1436182178475,-7.569,-42.442,17.073
424,1436182178494,-4.212,-42.442,19.555
425,1436182178513,-0.625,-41.481,22.398
426,1436182178546,3.784,-40.675,24.844
427,1436182178615,8.726,-39.393,26.095
428,1436182178616,13.328,-36.968,27.89
429,1436182178617,18.563,-34.634,28.814
430,1436182178618,23.521,-30.86,28.257
431,1436182178636,27.127,-27.842,26.762
432,1436182178653,28.704,-26.174,26.762
433,1436182178683,28.704,-25.726,26.321
434,1436182178693,26.945,-26.481,27.639
435,1436182178721,25.492,-28.118,27.639
436,1436182178735,23.991,-28.532,27.639
437,1436182178757,22.465,-31.135,26.705
438,1436182178774,21.513,-32.298,26.162
439,1436182178795,20.349,-33.357,24.665
440,1436182178816,19.386,-34.899,24.354
441,1436182178836,18.238,-35.755,23.1
442,1436182178855,16.632,-36.642,23.1
443,1436182178874,15.165,-37.135,23.776
444,1436182178895,13.821,-37.506,23.776
445,1436182178915,13.508,-37.861,24.505
446,1436182178933,13.508,-37.861,23.933
447,1436182178956,13.044,-37.861,23.602
448,1436182178977,12.347,-38.27,23.602
449,1436182178995,11.61,-38.623,23.602
450,1436182179017,10.696,-38.623,23.602
451,1436182179035,10.696,-38.623,23.602
452,1436182179057,9.658,-39.323,23.602
453,1436182179078,8.808,-39.323,23.602
454,1436182179098,7.92,-39.323,23.602
455,1436182179119,7.159,-39.706,23.602
456,1436182179136,6.085,-40.045,23.602
457,1436182179154,4.638,-40.045,23.602
458,1436182179174,3.933,-40.045,23.602
459,1436182179194,2.659,-40.045,23.301
460,1436182179214,1.069,-40.045,23.301
461,1436182179239,-0.434,-40.045,23.301
462,1436182179260,-1.861,-40.045,23.301
463,1436182179277,-3.341,-40.353,23.301
464,1436182179299,-5.493,-40.66,22.908
465,1436182179349,-8.03,-40.66,21.907
466,1436182179350,-10.296,-40.997,19.631
467,1436182179357,-13.342,-40.997,16.848
468,1436182179374,-15.91,-40.997,13.545
469,1436182179394,-18.852,-40.997,11.169
470,1436182179414,-21.298,-40.997,8.404
471,1436182179434,-23.199,-40.997,7.06
472,1436182179457,-24.711,-40.997,5.752
473,1436182179474,-25.74,-40.997,4.438
474,1436182179495,-26.144,-40.354,4.438
475,1436182179519,-25.199,-40.354,3.974
476,1436182179534,-23.672,-40.354,3.974
477,1436182179560,-22.032,-40.747,5.146
478,1436182179577,-19.773,-40.747,6.352
479,1436182179596,-17.712,-41.397,9.248
480,1436182179618,-14.677,-41.397,11.37
481,1436182179637,-11.364,-42.059,14.041
482,1436182179657,-7.647,-42.059,16.567
483,1436182179678,-4.287,-42.059,19.334
484,1436182179696,-1.416,-41.238,22.016
485,1436182179717,1.445,-40.336,25.585
486,1436182179739,4.627,-39.068,28.701
487,1436182179754,8.815,-36.621,30.859
488,1436182179777,13.873,-33.123,30.859
489,1436182179796,19.338,-29.589,31.834
490,1436182179818,24.032,-26.713,30.358
491,1436182179840,25.912,-25.245,30.358
492,1436182179857,25.338,-25.245,31.028
493,1436182179875,24.006,-26.533,31.028
494,1436182179898,24.006,-27.249,30.227
495,1436182179923,22.032,-28.637,30.538
496,1436182179938,21.609,-30.607,28.436
497,1436182179954,19.737,-32.279,27.552
498,1436182179974,18.177,-33.654,26.759
499,1436182179995,17.027,-34.62,25.672
500,1436182180014,15.687,-35.882,25.672
501,1436182180048,14.096,-36.483,25.672
502,1436182180055,12.829,-36.877,25.672
503,1436182180074,11.871,-37.242,25.672
504,1436182180094,11.418,-37.582,25.672
505,1436182180114,10.92,-37.582,26.095
506,1436182180139,10.591,-37.895,26.095
507,1436182180154,10.121,-37.895,26.095
508,1436182180175,9.39,-38.389,26.095
509,1436182180195,8.953,-38.389,25.729
