id,attr_time,attr_x,attr_y,attr_z
1,1436182170028,-2.359,-37.611,-5.561
2,1436182170048,-2.359,-37.611,-5.561
3,1436182170068,-2.359,-37.611,-5.561
4,1436182170087,-2.359,-37.611,-5.561
5,1436182170110,-2.359,-37.611,-5.561
6,1436182170129,-2.359,-37.611,-5.561
7,1436182170148,-2.359,-37.611,-5.561
8,1436182170168,-2.359,-37.611,-5.561
9,1436182170188,-2.359,-37.611,-5.561
10,1436182170208,-2.359,-37.611,-5.561
11,1436182170228,-2.359,-37.611,-5.561
12,1436182170246,-2.359,-37.611,-5.561
13,1436182170266,-2.359,-37.611,-5.561
14,1436182170289,-2.359,-37.611,-5.561
15,1436182170308,-2.359,-37.611,-5.561
16,1436182170327,-2.359,-37.611,-5.561
17,1436182170346,-2.359,-37.611,-5.561
18,1436182170368,-2.359,-37.611,-5.561
19,1436182170393,-2.359,-37.611,-5.561
20,1436182170409,-2.359,-37.611,-5.561
21,1436182170429,-2.359,-37.611,-5.561
22,1436182170447,-2.359,-37.611,-5.561
23,1436182170468,-2.359,-37.611,-5.561
24,1436182170488,-2.359,-37.611,-5.256
25,1436182170505,-2.359,-37.611,-5.256
26,1436182170529,-2.359,-37.611,-5.256
27,1436182170591,-2.359,-37.611,-5.256
28,1436182170592,-2.359,-37.611,-5.256
29,1436182170593,-2.359,-37.611,-5.256
30,1436182170605,-2.359,-37.611,-5.256
31,1436182170629,-2.359,-37.611,-5.256
32,1436182170645,-2.359,-37.611,-5.256
33,1436182170666,-2.359,-37.611,-5.256
34,1436182170688,-2.359,-37.611,-5.256
35,1436182170706,-2.359,-37.611,-5.256
36,1436182170728,-2.359,-37.611,-5.256
37,1436182170747,-2.359,-37.611,-5.256
38,1436182170766,-2.359,-37.611,-5.256
39,1436182170787,-2.359,-37.611,-5.256
40,1436182170806,-2.359,-37.611,-5.256
41,1436182170836,-2.359,-37.611,-5.256
42,1436182170866,-2.359,-37.611,-5.256
43,1436182170867,-2.359,-37.611,-5.256
44,1436182170886,-2.359,-37.611,-5.256
45,1436182170906,-2.359,-37.611,-5.256
46,1436182170926,-2.359,-37.611,-5.256
47,1436182170947,-2.359,-37.611,-5.256
48,1436182170966,-2.359,-37.611,-5.256
49,1436182170986,-2.359,-37.611,-5.256
50,1436182171006,-2.359,-37.611,-5.256
51,1436182171026,-2.359,-37.611,-5.256
52,1436182171046,-2.359,-37.611,-5.256
53,1436182171086,-2.359,-37.611,-5.256
54,1436182171087,-2.359,-37.611,-5.256
55,1436182171106,-2.359,-37.307,-5.256
56,1436182171126,-2.359,-37.307,-5.256
57,1436182171147,-2.359,-37.307,-5.256
58,1436182171166,-2.359,-37.307,-5.256
59,1436182171186,-2.359,-37.307,-5.256
60,1436182171205,-2.359,-37.307,-5.256
61,1436182171229,-2.359,-37.307,-5.256
62,1436182171245,-2.359,-37.307,-5.256
63,1436182171265,-2.359,-37.307,-5.256
64,1436182171286,-2.359,-37.307,-5.256
65,1436182171305,-2.359,-37.307,-5.256
66,1436182171325,-2.359,-37.307,-5.577
67,1436182171346,-2.359,-37.307,-5.577
68,1436182171366,-2.359,-37.307,-5.577
69,1436182171393,-2.359,-37.307,-5.577
70,1436182171405,-2.359,-37.307,-5.577
71,1436182171425,-2.359,-37.307,-5.577
72,1436182171445,-2.359,-37.307,-5.577
73,1436182171465,-2.359,-37.307,-5.577
74,1436182171485,-2.359,-37.307,-5.577
75,1436182171505,-2.359,-37.307,-5.577
76,1436182171525,-2.359,-37.307,-5.577
77,1436182171545,-2.359,-37.307,-5.577
78,1436182171565,-2.662,-37.307,-5.577
79,1436182171585,-2.662,-37.307,-5.577
80,1436182171605,-2.662,-37.307,-5.577
81,1436182171626,-2.662,-37.307,-5.577
82,1436182171648,-2.662,-37.307,-5.577
83,1436182171667,-2.662,-37.307,-5.577
84,1436182171689,-2.662,-37.307,-5.577
85,1436182171710,-2.662,-37.307,-5.577
86,1436182171730,-2.662,-37.307,-5.577
87,1436182171749,-2.662,-37.307,-5.577
88,1436182171768,-2.662,-37.307,-5.577
89,1436182171787,-2.662,-37.307,-5.577
90,1436182171807,-2.662,-37.307,-5.577
91,1436182171828,-2.662,-37.307,-5.577
92,1436182171849,-2.662,-37.307,-5.577
93,1436182171880,-2.662,-37.307,-5.577
94,1436182171896,-2.662,-37.307,-5.577
95,1436182171907,-2.662,-37.307,-5.577
96,1436182171927,-2.662,-37.307,-5.577
97,1436182171947,-2.662,-37.307,-5.577
98,1436182171966,-2.662,-37.307,-5.577
99,1436182171990,-2.662,-37.307,-5.577
100,1436182172007,-2.662,-37.307,-5.577
101,1436182172027,-2.662,-37.307,-5.577
102,1436182172048,-2.662,-37.628,-5.577
103,1436182172066,-2.662,-37.628,-5.577
104,1436182172086,-2.36,-37.628,-5.577
105,1436182172106,-2.36,-37.628,-5.577
106,1436182172127,-2.36,-37.628,-5.577
107,1436182172149,-2.36,-37.628,-5.577
108,1436182172168,-2.36,-37.628,-5.577
109,1436182172188,-2.36,-37.628,-5.577
110,1436182172210,-2.36,-37.628,-5.577
111,1436182172229,-2.36,-37.628,-5.577
112,1436182172251,-2.36,-37.628,-5.577
113,1436182172267,-2.36,-37.628,-5.577
114,1436182172290,-2.36,-37.628,-5.577
115,1436182172310,-2.36,-37.628,-5.577
116,1436182172331,-2.36,-37.628,-5.577
117,1436182172349,-2.36,-37.628,-5.577
118,1436182172370,-2.36,-37.628,-5.577
119,1436182172390,-2.36,-37.628,-5.923
120,1436182172410,-2.36,-37.628,-5.923
121,1436182172430,-2.36,-37.628,-5.923
122,1436182172449,-2.36,-37.628,-5.923
123,1436182172471,-2.36,-37.628,-5.923
124,1436182172490,-2.36,-37.628,-5.923
125,1436182172509,-2.36,-37.628,-5.923
126,1436182172597,-2.36,-37.628,-5.923
127,1436182172598,-2.36,-37.628,-5.923
128,1436182172599,-2.36,-37.628,-5.923
129,1436182172600,-2.36,-37.628,-5.923
130,1436182172608,-2.36,-37.628,-5.923
131,1436182172628,-2.36,-37.628,-5.923
132,1436182172650,-2.36,-37.628,-5.923
133,1436182172667,-2.36,-37.628,-5.923
134,1436182172688,-2.36,-37.628,-5.923
135,1436182172709,-2.36,-37.628,-5.923
136,1436182172731,-2.36,-37.628,-5.923
137,1436182172749,-2.36,-37.628,-5.923
138,1436182172769,-2.36,-37.628,-5.923
139,1436182172788,-2.36,-37.628,-5.923
140,1436182172811,-2.36,-37.628,-5.923
141,1436182172831,-2.36,-37.628,-5.923
142,1436182172848,-2.36,-37.628,-5.923
143,1436182172875,-2.36,-37.628,-5.923
144,1436182172888,-2.36,-37.628,-5.923
145,1436182172908,-2.36,-37.628,-5.923
146,1436182172928,-2.36,-37.628,-5.923
147,1436182172948,-2.36,-37.628,-5.923
148,1436182172969,-2.36,-37.628,-5.923
149,1436182172990,-2.36,-37.628,-5.923
150,1436182173009,-2.36,-37.628,-5.923
151,1436182173031,-2.36,-37.628,-5.923
152,1436182173050,-2.36,-37.628,-5.923
153,1436182173070,-2.36,-37.628,-5.923
154,1436182173092,-2.36,-37.628,-5.923
155,1436182173111,-2.36,-37.628,-5.923
156,1436182173132,-2.36,-37.628,-5.923
157,1436182173153,-2.36,-37.628,-5.923
158,1436182173169,-2.36,-37.628,-5.923
159,1436182173190,-2.36,-37.628,-5.923
160,1436182173210,-2.36,-37.628,-5.923
161,1436182173231,-2.36,-37.628,-5.923
162,1436182173250,-2.36,-37.628,-5.923
163,1436182173316,-2.36,-37.628,-5.923
164,1436182173317,-2.36,-37.628,-5.923
165,1436182173318,-2.36,-37.628,-5.923
166,1436182173341,-2.36,-37.628,-5.923
167,1436182173348,-2.36,-37.628,-5.923
168,1436182173368,-2.36,-37.628,-5.923
169,1436182173389,-2.36,-37.628,-5.923
170,1436182173409,-2.36,-37.628,-5.923
171,1436182173430,-2.36,-37.628,-5.923
172,1436182173448,-2.36,-37.628,-5.923
173,1436182173468,-2.36,-37.628,-5.923
174,1436182173491,-2.36,-37.628,-5.923
175,1436182173509,-2.36,-37.628,-5.923
176,1436182173529,-2.36,-37.628,-5.923
177,1436182173549,-2.36,-37.628,-5.923
178,1436182173570,-2.36,-37.628,-5.923
179,1436182173589,-2.36,-37.628,-5.923
180,1436182173612,-2.36,-37.628,-5.923
181,1436182173632,-2.36,-37.628,-5.923
182,1436182173649,-2.36,-37.628,-5.923
183,1436182173674,-2.36,-37.628,-5.923
184,1436182173689,-2.36,-37.628,-5.923
185,1436182173709,-2.36,-37.628,-5.923
186,1436182173730,-2.36,-37.628,-5.923
187,1436182173749,-2.36,-37.628,-5.923
188,1436182173773,-2.36,-37.628,-5.923
189,1436182173791,-2.36,-37.628,-5.923
190,1436182173811,-2.36,-37.628,-5.923
191,1436182173832,-2.36,-37.628,-5.923
192,1436182173850,-2.36,-37.628,-5.923
193,1436182173872,-2.36,-37.628,-5.923
194,1436182173891,-2.36,-37.628,-5.923
195,1436182173911,-2.36,-37.628,-5.923
196,1436182173932,-2.36,-37.628,-5.923
197,1436182173951,-2.36,-37.628,-5.923
198,1436182173971,-2.36,-37.628,-5.923
199,1436182173990,-2.36,-37.628,-5.923
200,1436182174070,-2.36,-37.628,-5.923
201,1436182174071,-2.36,-37.628,-5.923
202,1436182174072,-2.36,-37.628,-5.923
203,1436182174073,-2.36,-37.628,-5.923
204,1436182174090,-2.36,-37.628,-5.923
205,1436182174114,-2.36,-37.628,-5.923
206,1436182174129,-2.36,-37.628,-5.923
207,1436182174149,-2.36,-37.628,-5.923
208,1436182174171,-2.36,-37.628,-5.923
209,1436182174190,-2.36,-37.628,-5.923
210,1436182174211,-2.36,-37.628,-5.923
211,1436182174230,-2.36,-37.628,-5.923
212,1436182174250,-2.36,-37.628,-5.923
213,1436182174272,-2.36,-37.628,-5.923
214,1436182174293,-2.36,-37.628,-5.923
215,1436182174313,-2.36,-37.628,-5.923
216,1436182174331,-2.36,-37.628,-5.923
217,1436182174353,-2.36,-37.628,-5.923
218,1436182174373,-2.36,-37.628,-5.923
219,1436182174390,-2.36,-37.628,-5.923
220,1436182174411,-2.36,-37.628,-5.923
221,1436182174433,-2.36,-37.628,-5.923
222,1436182174451,-2.36,-37.628,-5.923
223,1436182174475,-2.36,-37.628,-5.923
224,1436182174490,-2.36,-37.628,-5.923
225,1436182174512,-2.36,-37.628,-5.923
226,1436182174533,-2.36,-37.628,-5.923
227,1436182174582,-2.36,-37.628,-5.923
228,1436182174583,-2.052,-37.628,-6.236
229,1436182174591,-2.052,-37.628,-6.236
230,1436182174610,-2.052,-37.628,-6.236
231,1436182174629,-2.052,-37.628,-6.236
232,1436182174654,-2.052,-37.628,-6.236
233,1436182174672,-1.676,-37.628,-6.236
234,1436182174693,-1.676,-37.628,-6.236
235,1436182174711,-1.676,-37.628,-6.236
236,1436182174739,-1.339,-37.628,-6.236
237,1436182174831,-1.339,-37.628,-6.236
238,1436182174832,-1.339,-37.628,-5.867
239,1436182174833,-0.898,-37.628,-5.867
240,1436182174834,-0.898,-37.628,-5.867
241,1436182174835,-0.514,-37.628,-5.503
242,1436182174851,-0.514,-37.628,-5.503
243,1436182174873,0.045,-37.628,-5.503
244,1436182174890,0.045,-37.628,-5.101
245,1436182174923,0.5,-37.628,-5.101
246,1436182174930,0.5,-37.628,-5.101
247,1436182174950,0.898,-37.628,-4.643
248,1436182174974,0.898,-37.628,-4.643
249,1436182174990,0.898,-37.628,-4.315
250,1436182175010,0.898,-37.628,-4.315
251,1436182175033,1.28,-37.628,-3.88
252,1436182175054,1.28,-37.628,-3.88
253,1436182175073,1.28,-37.628,-3.404
254,1436182175093,1.681,-37.957,-3.404
255,1436182175113,1.681,-37.957,-2.72
256,1436182175134,1.681,-37.957,-2.72
257,1436182175154,1.997,-37.957,-2.243
258,1436182175173,1.997,-37.957,-2.243
259,1436182175192,1.997,-37.957,-2.243
260,1436182175210,1.997,-37.957,-2.243
261,1436182175234,1.997,-37.957,-1.695
262,1436182175254,1.997,-37.957,-0.886
263,1436182175274,1.997,-37.957,-0.326
264,1436182175293,1.997,-37.957,0.531
265,1436182175314,1.997,-38.272,1.557
266,1436182175333,1.997,-38.272,1.139
267,1436182175353,1.997,-38.272,1.936
268,1436182175372,1.997,-38.272,2.77
269,1436182175394,1.997,-38.272,2.77
270,1436182175416,1.618,-38.272,3.828
271,1436182175434,1.618,-38.272,4.62
272,1436182175454,1.618,-38.272,4.62
273,1436182175474,1.281,-38.272,5.05
274,1436182175550,1.281,-38.272,5.625
275,1436182175551,1.281,-38.272,5.625
276,1436182175552,0.845,-38.272,5.049
277,1436182175553,0.845,-38.272,4.583
278,1436182175574,0.845,-38.272,3.675
279,1436182175594,0.476,-38.272,2.665
280,1436182175610,0.476,-38.272,1.139
281,1436182175630,0.476,-38.272,-0.236
282,1436182175665,0.476,-38.272,-2.529
283,1436182175671,0.476,-38.272,-4.331
284,1436182175692,1.617,-38.272,-5.718
285,1436182175712,3.121,-38.272,-6.983
286,1436182175736,4.368,-37.86,-7.873
287,1436182175754,5.747,-37.86,-8.848
288,1436182175774,6.916,-37.556,-9.481
289,1436182175794,7.791,-37.556,-10.781
290,1436182175814,8.631,-37.197,-12.17
291,1436182175834,9.057,-36.38,-13.224
292,1436182175854,9.057,-35.136,-15.245
293,1436182175874,9.057,-33.821,-16.552
294,1436182175895,9.057,-32.74,-18.885
295,1436182175914,9.057,-31.62,-20.181
296,1436182175931,9.057,-30.805,-21.29
297,1436182175954,8.551,-30.07,-22.364
298,1436182175974,8.198,-30.07,-23.048
299,1436182175994,7.878,-29.46,-23.048
300,1436182176014,7.221,-28.877,-23.471
301,1436182176031,7.221,-28.877,-24.362
302,1436182176054,7.221,-28.877,-23.242
303,1436182176074,7.221,-29.22,-23.242
304,1436182176095,7.221,-29.644,-22.526
305,1436182176116,6.857,-30.311,-21.839
306,1436182176133,6.414,-30.775,-21.44
307,1436182176154,6.057,-30.775,-20.588
308,1436182176173,6.057,-30.775,-20.588
309,1436182176201,6.057,-30.775,-20.588
310,1436182176212,6.66,-30.775,-19.567
311,1436182176258,6.66,-30.424,-19.567
312,1436182176259,6.66,-30.424,-19.033
313,1436182176281,7.174,-30.424,-18.656
314,1436182176291,7.965,-30.424,-17.706
315,1436182176311,7.965,-31.05,-16.355
316,1436182176345,7.965,-31.631,-14.978
317,1436182176363,7.965,-32.501,-12.232
318,1436182176372,7.266,-33.236,-10.258
319,1436182176391,6.7,-33.758,-9.704
320,1436182176411,6.047,-34.086,-11.253
321,1436182176456,6.047,-34.086,-11.253
322,1436182176472,6.047,-34.51,-10.482
323,1436182176478,5.52,-35.519,-8.798
324,1436182176496,5.52,-36.021,-6.604
325,1436182176516,5.137,-36.021,-5.052
326,1436182176531,5.137,-36.544,-3.999
327,1436182176551,5.137,-36.984,-2.862
328,1436182176571,4.614,-36.984,-2.188
329,1436182176593,3.985,-36.984,-2.188
330,1436182176611,3.678,-37.341,-1.171
331,1436182176633,3.298,-37.341,-1.171
332,1436182176654,3.298,-37.341,-0.616
333,1436182176677,2.609,-37.341,-0.283
334,1436182176691,2.262,-37.341,0.621
335,1436182176711,1.866,-37.713,1.242
336,1436182176731,1.473,-37.713,1.583
337,1436182176750,1.473,-37.713,1.583
338,1436182176772,1.028,-37.713,2.574
339,1436182176793,0.578,-37.713,3.604
340,1436182176815,0.239,-37.713,4.107
341,1436182176834,0.239,-37.713,5.892
342,1436182176852,0.239,-38.043,6.654
343,1436182176873,0.239,-38.043,6.654
344,1436182176892,0.544,-38.043,7.093
345,1436182176912,0.933,-38.043,5.787
346,1436182176934,0.933,-38.043,4.689
347,1436182177018,0.933,-38.043,2.651
348,1436182177019,1.489,-38.043,0.642
349,1436182177020,2.192,-38.043,-0.776
350,1436182177032,3.178,-38.043,-1.773
351,1436182177033,4.501,-38.043,-2.661
352,1436182177051,5.334,-38.043,-3.939
353,1436182177077,6.25,-38.043,-4.986
354,1436182177091,6.953,-38.043,-5.63
355,1436182177113,8.03,-37.733,-7.073
356,1436182177131,8.03,-37.733,-8.247
357,1436182177151,8.477,-37.39,-9.916
358,1436182177170,9.118,-36.827,-10.922
359,1436182177190,9.513,-35.813,-13.694
360,1436182177210,9.513,-34.762,-15.734
361,1436182177230,9.135,-33.72,-16.552
362,1436182177250,8.689,-32.777,-18.342
363,1436182177270,8.329,-32.141,-19.839
364,1436182177290,7.743,-31.427,-21.003
365,1436182177310,7.293,-31.427,-20.384
366,1436182177330,7.293,-31.427,-20.991
367,1436182177350,7.293,-31.427,-20.101
368,1436182177370,7.293,-31.93,-19.305
369,1436182177391,7.707,-31.93,-18.392
370,1436182177416,8.073,-32.443,-17.739
371,1436182177433,8.073,-32.443,-17.399
372,1436182177452,8.073,-32.08,-17.752
373,1436182177475,8.073,-32.08,-17.752
374,1436182177495,8.439,-32.08,-17.752
375,1436182177515,9.234,-32.08,-17.211
376,1436182177535,9.941,-32.08,-17.211
377,1436182177555,10.604,-31.694,-17.211
378,1436182177573,10.304,-31.694,-15.75
379,1436182177597,9.333,-31.694,-13.961
380,1436182177638,8.367,-31.694,-11.703
381,1436182177639,7.781,-32.057,-11.703
382,1436182177660,7.781,-32.933,-11.218
383,1436182177673,7.781,-33.744,-10.404
384,1436182177697,7.164,-34.252,-9.318
385,1436182177715,6.23,-34.996,-8.764
386,1436182177734,4.966,-35.771,-7.072
387,1436182177754,3.997,-36.314,-4.687
388,1436182177775,3.997,-36.703,-2.453
389,1436182177794,3.997,-36.703,-2.453
390,1436182177813,3.594,-37.089,-2.453
391,1436182177836,3.126,-37.612,-2.053
392,1436182177853,2.793,-37.612,-0.811
393,1436182177875,2.203,-37.243,-0.811
394,1436182177895,1.712,-37.243,0.209
395,1436182177915,1.281,-37.243,-0.239
396,1436182177936,1.281,-37.243,0.654
397,1436182177956,0.627,-37.243,1.365
398,1436182177976,0.627,-37.243,3.234
399,1436182177995,-0.097,-37.243,4.577
400,1436182178016,-0.097,-37.243,5.328
401,1436182178037,-0.84,-37.243,5.889
402,1436182178053,-0.84,-37.635,5.889
403,1436182178076,-0.84,-37.635,5.889
404,1436182178096,-0.239,-37.635,5.889
405,1436182178118,0.308,-38.024,4.191
406,1436182178136,0.679,-38.024,2.699
407,1436182178156,0.984,-38.024,0.95
408,1436182178174,1.451,-38.024,-2.18
409,1436182178195,1.905,-38.024,-4.229
410,1436182178216,2.665,-38.024,-5.96
411,1436182178236,4.022,-38.024,-7.284
412,1436182178257,5.322,-38.024,-7.284
413,1436182178277,6.671,-38.024,-8.067
414,1436182178293,7.679,-38.024,-8.897
415,1436182178314,8.847,-37.585,-9.226
416,1436182178368,9.487,-37.585,-10.595
417,1436182178369,10.255,-36.206,-12.579
418,1436182178388,10.255,-34.867,-14.012
419,1436182178394,10.255,-33.253,-16.906
420,1436182178413,9.616,-32.301,-18.206
421,1436182178434,9.616,-31.254,-19.946
422,1436182178454,9.616,-30.31,-20.538
423,1436182178478,9.127,-29.582,-21.72
424,1436182178496,8.761,-29.582,-22.201
425,1436182178514,8.761,-29.185,-22.879
426,1436182178534,8.761,-29.185,-22.879
427,1436182178555,8.277,-29.185,-21.868
428,1436182178577,8.277,-29.612,-21.182
429,1436182178597,8.277,-30.584,-19.308
430,1436182178617,8.695,-31.147,-18.945
431,1436182178636,9.025,-31.147,-18.945
432,1436182178657,9.025,-31.147,-19.509
433,1436182178676,9.025,-31.147,-19.509
434,1436182178696,9.025,-31.147,-18.916
435,1436182178716,9.347,-31.147,-18.916
436,1436182178737,9.725,-30.548,-19.294
437,1436182178757,10.684,-30.548,-18.647
438,1436182178777,11.354,-30.235,-18.647
439,1436182178796,11.354,-30.235,-17.489
440,1436182178816,10.162,-31.161,-14.334
441,1436182178837,9.497,-32.113,-13.079
442,1436182178854,9.074,-32.71,-13.079
443,1436182178875,9.074,-33.433,-11.717
444,1436182178897,9.074,-33.868,-10.025
445,1436182178917,8.367,-34.587,-10.025
446,1436182178937,7.318,-35.034,-8.943
447,1436182178957,5.874,-35.824,-6.723
448,1436182178976,5.279,-36.259,-5.424
449,1436182178996,5.279,-36.779,-3.196
450,1436182179016,5.279,-36.779,-2.775
451,1436182179035,4.528,-37.329,-2.775
452,1436182179056,4.089,-37.329,-1.509
453,1436182179137,3.62,-37.785,-0.756
454,1436182179138,3.013,-37.464,-0.756
455,1436182179139,2.662,-37.464,-0.144
456,1436182179140,2.073,-37.924,-0.144
457,1436182179154,2.073,-37.924,1.098
458,1436182179177,1.661,-37.924,1.809
459,1436182179247,1.661,-37.924,2.807
460,1436182179248,1.129,-37.924,3.732
461,1436182179249,0.79,-37.924,4.858
462,1436182179267,0.79,-37.924,5.255
463,1436182179275,1.263,-37.924,5.812
464,1436182179300,1.658,-37.924,5.317
465,1436182179316,2.192,-37.924,4.388
466,1436182179337,2.56,-38.224,2.738
467,1436182179358,2.56,-38.224,0.936
468,1436182179377,3.218,-38.224,-1.884
469,1436182179397,3.952,-38.224,-4.141
470,1436182179417,4.838,-38.224,-6.333
471,1436182179438,6.242,-38.224,-7.382
472,1436182179457,7.542,-38.224,-8.097
473,1436182179477,8.677,-37.879,-9.069
474,1436182179497,9.852,-37.879,-9.828
475,1436182179518,11.076,-36.57,-11.462
476,1436182179534,11.999,-35.267,-12.773
477,1436182179557,11.999,-34.333,-14.822
478,1436182179577,11.999,-33.193,-16.569
479,1436182179597,11.999,-32.092,-18.789
480,1436182179618,11.515,-31.121,-20.292
481,1436182179637,11.515,-30.084,-21.62
482,1436182179658,10.809,-29.463,-23.088
483,1436182179677,10.356,-29.061,-24.069
484,1436182179698,9.501,-28.639,-24.069
485,1436182179717,9.127,-28.639,-24.069
486,1436182179738,8.821,-28.007,-24.069
487,1436182179758,8.821,-28.631,-22.608
488,1436182179777,8.821,-29.527,-20.642
489,1436182179803,8.821,-29.971,-19.737
490,1436182179875,8.821,-29.615,-20.321
491,1436182179876,8.821,-29.615,-20.321
492,1436182179877,9.391,-29.615,-21.499
493,1436182179878,9.928,-29.615,-21.005
494,1436182179898,10.337,-29.615,-19.72
495,1436182179921,11.482,-29.615,-18.992
496,1436182179937,12.615,-29.615,-18.992
497,1436182180010,13.165,-29.615,-18.154
498,1436182180011,13.165,-29.293,-17.33
499,1436182180012,13.165,-29.293,-15.742
500,1436182180014,11.676,-30.953,-12.677
501,1436182180043,10.916,-32.292,-11.048
502,1436182180057,10.368,-32.894,-11.872
503,1436182180078,10.368,-33.302,-10.89
504,1436182180098,9.309,-33.859,-10.461
505,1436182180120,8.598,-34.288,-10.461
506,1436182180138,7.443,-35.572,-7.807
507,1436182180158,6.369,-36.154,-6.288
508,1436182180178,6.369,-36.535,-3.828
509,1436182180198,6.369,-36.863,-2.059
510,1436182180218,5.984,-36.863,-1.379
511,1436182180238,5.461,-37.307,-1.783
