id,attr_time,attr_db
1,1438258290637,48.7319377053745
2,1438258291370,18.3101506466815
3,1438258292076,15.3904743710719
4,1438258292829,29.4858316256438
5,1438258293567,37.6735887124007
6,1438258294303,40.2535156205118
7,1438258295053,66.3267117304065
8,1438258295801,61.9687017226447
9,1438258296533,63.6713510265307
10,1438258297276,49.0864279301165
11,1438258298005,62.2033173181989
12,1438258298752,65.0468971821418
13,1438258299482,44.9709063100466
14,1438258300279,36.0587673839268
15,1438258301032,33.4407377439499
16,1438258301826,28.0370549859564
17,1438258302560,22.561568893606
18,1438258303290,17.6105858489128
19,1438258304035,18.7169016857677
20,1438258304765,13.1755854904617
21,1438258305498,22.5983694169536
22,1438258306263,16.3637560758533
23,1438258307009,14.1899918289217
24,1438258307739,16.9923318344105
25,1438258308539,22.6498609060213
26,1438258309275,11.0636472313182
27,1438258310014,11.3824344839494
28,1438258310806,17.5145482838895
29,1438258311503,13.0375231203282
30,1438258312207,19.0227860366675
31,1438258312945,34.2050327832686
32,1438258313656,10.4883224765014
33,1438258314369,11.1130254559504
34,1438258315116,9.22537523754049
35,1438258315896,9.16356976351767
36,1438258316611,21.0635764274921
37,1438258317360,8.89938299171015
38,1438258318093,8.70458937710886
39,1438258318814,12.7154292742314
40,1438258319484,13.9931998854009
41,1438258320221,42.9399464927535
42,1438258320976,11.324939879655
43,1438258321712,18.6904339381451
44,1438258322449,9.07550633089035
45,1438258323130,47.8388687545155
46,1438258323787,33.2948491098314
47,1438258324523,19.0479388714721
48,1438258325252,13.0861017168612
49,1438258325999,39.7178575712551
50,1438258326717,14.5650599365339
51,1438258327471,29.5113921318266
52,1438258328214,12.0058990196955
53,1438258328965,28.9774301937822
54,1438258329700,28.6299228241354
55,1438258330437,18.5468170271973
56,1438258331183,8.94900096108525
57,1438258331950,14.7517707116274
58,1438258332692,12.2149238440769
59,1438258333417,25.5946598143502
60,1438258334155,19.0992103064414
61,1438258334909,7.8337935558067
62,1438258335639,5.41374725398869
63,1438258336366,10.3947618474954
64,1438258337104,16.9613536563768
65,1438258337826,10.2699866271734
66,1438258338535,17.4148767908598
67,1438258339262,20.7579483482642
68,1438258339871,11.6115939326287
69,1438258340614,5.84537842424385
70,1438258341238,17.1616932247161
71,1438258341974,21.4405402022214
72,1438258342709,11.8946647575224
73,1438258343365,14.2072650302859
74,1438258344044,31.2700247798943
75,1438258344788,26.2990637544354
76,1438258345540,22.2767053517914
77,1438258346260,16.7622143996994
78,1438258347007,38.516082054932
79,1438258347755,16.5938378605985
80,1438258348479,37.7254931246144
81,1438258349201,23.0900575964131
82,1438258349979,28.903099283712
83,1438258350728,17.5091039635712
84,1438258351449,25.0698672501682
85,1438258352207,15.185874767178
86,1438258352964,52.0886230340823
87,1438258353693,23.3121734667597
88,1438258354416,14.0651754106832
89,1438258355170,25.0026769071422
90,1438258355915,13.5820595945265
91,1438258356721,20.2928259007066
92,1438258357456,21.6927535334393
93,1438258358210,28.8581275146543
94,1438258358938,12.9421277973795
95,1438258359785,20.5911632407241
96,1438258360596,14.8362487882627
97,1438258361321,22.9915808810703
98,1438258362099,24.8509991537839
99,1438258362856,20.894749141011
100,1438258363578,21.4042964246481
101,1438258364233,22.1246920933058
102,1438258364927,20.2331536040264
103,1438258365697,26.8778602230628
104,1438258366420,14.3058229572306
105,1438258367170,27.188351575001
106,1438258367941,19.6191913672115
107,1438258368679,23.2376239906283
108,1438258369411,23.4965110235378
109,1438258370153,34.7764388423221
110,1438258370904,29.0954808318027
111,1438258371622,21.774230183914
112,1438258372363,16.5564951993053
113,1438258373057,27.5924421656303
114,1438258373801,37.47562005429
115,1438258374569,41.6088349235555
116,1438258375283,37.5248531280986
117,1438258375994,37.5417034007295
118,1438258376759,32.9555907530073
119,1438258377496,34.6576564863751
120,1438258378235,31.6917412602622
121,1438258378973,35.7159364775961
122,1438258379720,30.5311874241101
123,1438258380452,30.8794160032555
124,1438258381264,31.8426404562565
125,1438258382005,31.552034721779
126,1438258382635,31.7593371647422
127,1438258383341,31.5491179479402
128,1438258384067,31.1451115014199
129,1438258384820,35.7058124047499
130,1438258385533,36.7430116313555
131,1438258386273,38.0885440836406
132,1438258386936,35.9727920121085
133,1438258387661,37.1678964513138
134,1438258388383,40.6363202120168
135,1438258389102,38.5324075942046
136,1438258389873,44.3312487804075
137,1438258390604,46.4770090950025
138,1438258391333,41.7335246671027
139,1438258392056,43.4847605312299
140,1438258392812,44.8404429064933
141,1438258393547,45.7284532432884
142,1438258394277,51.7628553059408
143,1438258395002,57.710609774779
144,1438258395700,49.2256971065213
145,1438258396419,47.082139574121
146,1438258397125,52.6710523262971
147,1438258397867,48.2461460258503
148,1438258398585,50.1284566211337
149,1438258399309,51.7385799272775
150,1438258400020,54.2539616667611
151,1438258400757,54.6279854822706
152,1438258401500,44.3549263135417
153,1438258402246,46.820376847065
154,1438258402901,42.8095249750735
155,1438258403631,40.8356913326503
156,1438258404339,42.9322830167155
157,1438258405069,25.6354204513091
158,1438258405868,41.5544862231803
159,1438258406583,30.5901901647284
160,1438258407252,37.9822950831858
161,1438258408021,31.6694860630585
162,1438258408741,33.2684190983635
163,1438258409468,34.2613851737978
164,1438258410202,40.1199572973389
165,1438258410947,57.9426038252237
166,1438258411690,35.3103423113287
167,1438258412440,45.2799279419626
168,1438258413176,29.4147438433598
169,1438258413917,23.4155434835501
170,1438258414656,24.7566967192231
171,1438258415371,40.0162575370533
172,1438258416120,22.3880900418102
173,1438258416880,27.5067444182148
174,1438258417620,39.8578219326857
175,1438258418355,32.5009254539793
176,1438258419082,18.2469012533425
177,1438258419812,34.2411879124446
178,1438258420542,47.4152198281726
179,1438258421274,40.3963873774443
180,1438258422020,36.0115876431372
181,1438258422709,63.5866365474126
182,1438258423374,52.4593374909839
183,1438258424105,69.3587213617272
184,1438258424873,59.4432067362674
185,1438258425627,48.5126345360351
186,1438258426353,51.1224004461775
187,1438258427011,41.2495726848392
188,1438258427769,50.6388912229926
189,1438258428500,56.6285236604746
190,1438258429229,35.7601685936687
191,1438258429966,61.3121691717513
192,1438258430683,27.6123530445922
193,1438258431359,40.0257159105016
194,1438258432087,28.332283736612
195,1438258432857,63.3632948856203
196,1438258433605,19.37383097547
197,1438258434327,23.3005223972778
198,1438258435064,19.3229749316744
199,1438258435807,34.874067383182
200,1438258436547,41.9464066972607
201,1438258437296,45.1506660778107
202,1438258438014,43.5050474198873
203,1438258438751,25.3314264840332
204,1438258439500,41.9633753053299
205,1438258440249,30.3946078878748
206,1438258440987,22.4738314104344
207,1438258441705,20.8451553846634
208,1438258442396,20.9603697793498
209,1438258444276,51.2204346915135
210,1438258445010,39.5440974368184
211,1438258445758,45.8217957610612
212,1438258446497,42.0438162388518
213,1438258447220,40.8146460705287
214,1438258447885,38.5886914991643
215,1438258448606,43.9075616063919
216,1438258449315,33.3939421121375
217,1438258450056,32.6104063893641
218,1438258450844,16.1458115082428
219,1438258451562,43.3385221630814
220,1438258452278,51.4917999811017
221,1438258453004,41.0993280073372
222,1438258453735,58.446434237427
223,1438258454472,66.5116477193358
224,1438258455231,57.278769854885
225,1438258456140,53.559954033176
226,1438258458117,34.3088421518824
227,1438258458890,20.7317655997189
228,1438258459639,29.3427123718156
229,1438258460354,62.2335489218525
230,1438258461072,63.6343601508699
231,1438258461810,37.9640506280503
232,1438258462584,13.6798515698801
233,1438258463257,23.4467578042463
234,1438258463915,18.0315466611062
235,1438258464617,30.0513913384142
236,1438258465420,31.4448848016917
237,1438258466184,34.1032212748331
238,1438258466927,29.2848175785927
239,1438258467660,16.4400535330859
240,1438258468349,16.3502047032811
241,1438258469074,13.4194946008733
242,1438258469832,16.3070699287236
243,1438258470567,13.6760417602295
244,1438258471283,17.072343228201
245,1438258472021,14.8496371181499
246,1438258472750,13.0262860130803
247,1438258473614,16.5207785450537
248,1438258474525,11.5325729678778
249,1438258475197,10.9135709879432
250,1438258475983,31.7394881517249
251,1438258476725,20.0814987459901
252,1438258477468,26.4327943723905
253,1438258478215,39.9375687683898
254,1438258478965,23.4899669247376
255,1438258479635,27.5678775357814
256,1438258481120,20.3039611714101
257,1438258481893,40.9057922761653
258,1438258482620,13.6656442741787
259,1438258483352,10.2077188135213
260,1438258484086,13.3033254425332
261,1438258484854,17.3483083086891
262,1438258485607,17.0412019010366
263,1438258486396,14.7441865568431
264,1438258487128,39.7861584771629
265,1438258487849,23.6347673692484
266,1438258488514,19.1522183912257
267,1438258489253,16.5627288359527
268,1438258489991,35.947172315717
269,1438258490730,36.7949020008687
270,1438258491480,12.5926870021633
271,1438258492231,18.2028962112455
272,1438258492907,17.2809872901092
273,1438258494233,17.0327630257783
274,1438258494912,15.4221146097561
275,1438258495633,13.5874897805546
276,1438258496342,18.2240978973096
277,1438258497030,14.5046768052476
278,1438258497807,8.92004965053131
279,1438258498533,7.45645049072345
280,1438258499273,13.3035964235381
281,1438258500018,23.5200033575525
282,1438258500742,8.40809024147952
283,1438258501479,24.7632576997141
284,1438258502246,8.29437090118212
285,1438258502983,23.1502078647655
286,1438258503721,20.6713943445646
287,1438258504296,4.43909537620542
288,1438258504991,5.47051454112761
289,1438258505731,4.51377492831919
290,1438258506465,8.15474207300905
291,1438258507220,7.39218398189954
292,1438258507931,6.40219548037925
293,1438258508578,7.00521111664375
294,1438258509313,5.83725646465928
295,1438258510065,3.77874361486126
296,1438258510808,14.5562008476149
297,1438258511489,11.6189604750413
298,1438258512169,8.12056112506673
299,1438258512961,7.62778950077934
300,1438258513682,7.07886720119403
301,1438258514390,18.3869287539152
302,1438258515111,14.3146781582634
303,1438258515874,17.8423502255236
304,1438258516606,14.138041393448
305,1438258517354,12.826458810277
306,1438258518083,13.9556839257789
307,1438258518797,5.94959514629981
308,1438258519522,12.8916763130974
309,1438258520258,18.3126270351889
310,1438258520981,23.1090622973141
311,1438258521710,35.3628686140169
312,1438258522427,30.888517299225
313,1438258523147,32.6413897177816
314,1438258523912,31.6889936453369
315,1438258524563,19.3180693587755
316,1438258525303,8.9496800432999
317,1438258526022,31.7534783661542
318,1438258526771,11.9030094179733
319,1438258527488,12.5169513080383
320,1438258528285,10.7283810285642
321,1438258529019,11.0253360310305
322,1438258529760,11.281096478925
323,1438258530487,14.7332068837596
324,1438258531234,7.02565770022433
325,1438258531989,22.246066795989
326,1438258532712,7.80860685067477
327,1438258533437,14.4639922377913
328,1438258534166,6.45336234431326
329,1438258534942,13.7803880075113
330,1438258535660,16.2852277411116
331,1438258536332,14.5548455353769
332,1438258537027,28.3413814506404
333,1438258537635,38.1838121912255
334,1438258538345,14.4239365532788
335,1438258539053,34.6522827020585
336,1438258539794,30.9159445811848
337,1438258540516,14.2763567017429
338,1438258541379,27.2095258900981
339,1438258542102,16.8954970703592
340,1438258542852,28.26072157385
341,1438258543565,19.2830927584507
342,1438258544300,21.3248241567684
343,1438258544963,26.5485579665632
344,1438258545714,16.5374064664295
345,1438258546496,23.7458509737538
346,1438258547267,17.6557706120236
347,1438258547982,26.7658895307073
348,1438258548639,22.541666611188
349,1438258549320,58.028145041298
350,1438258550036,30.3464183105505
351,1438258550795,25.7248412313933
352,1438258551514,12.6523228498423
353,1438258552272,18.7260142402302
354,1438258552982,20.1026359907794
355,1438258553733,18.3330738243079
356,1438258554474,11.7990738331239
357,1438258555208,13.7332683875473
358,1438258555943,9.19303894343112
359,1438258556683,11.7646734645964
360,1438258557404,12.2450452463725
361,1438258558129,9.9183390885221
362,1438258558876,12.6423558701248
363,1438258559614,11.1204909442572
364,1438258560353,16.5938378605985
365,1438258561099,10.3382255565079
366,1438258561870,13.3642651812583
367,1438258562610,18.1422342652056
368,1438258563330,21.2516306892842
369,1438258564062,15.7756928495295
370,1438258564737,18.6383449128253
371,1438258565424,24.5324744441517
372,1438258566141,11.3847153714449
373,1438258566902,10.3562686326845
374,1438258567592,10.5071465747145
375,1438258568267,10.5159395170328
376,1438258568952,20.8143987559254
377,1438258569613,22.0548346981939
378,1438258570364,17.5393837811821
379,1438258571089,12.6643888104277
380,1438258571864,18.1886776180193
381,1438258572580,11.0441659149302
382,1438258573322,26.8211457579653
383,1438258574066,35.9799580043902
384,1438258574816,13.0116353333086
385,1438258575527,16.5035471344753
386,1438258576249,11.2251724973746
387,1438258576979,14.9446587444213
388,1438258577723,14.4501501397356
389,1438258578461,18.2884594851388
390,1438258579217,19.6994506635849
391,1438258579955,16.6203961740221
392,1438258580707,16.8006869315951
393,1438258581480,19.7471122881279
394,1438258582207,17.9261424679807
395,1438258582950,22.9458090828013
396,1438258583681,19.2165335582471
397,1438258584443,18.0445397809025
398,1438258585153,14.3826496999523
399,1438258585885,18.6209223605748
400,1438258586652,49.9488029368334
401,1438258587379,38.8227338456665
402,1438258588101,38.4821361334605
403,1438258588851,35.658338285377
404,1438258589521,22.8650227270733
405,1438258590257,36.7803001717405
406,1438258590985,59.2115588398872
407,1438258591726,57.3583069190203
408,1438258592459,36.9875310744335
409,1438258593196,58.2982967772668
410,1438258593950,48.4454830844582
411,1438258594690,41.8554374788441
412,1438258595445,22.7135235140111
413,1438258596165,26.4588480981602
414,1438258596880,31.5931282716713
415,1438258597666,9.61543863753932
416,1438258598368,19.1025935069774
417,1438258599100,36.4231621982088
418,1438258599831,56.4024668219556
419,1438258600579,58.1982149782431
420,1438258601308,44.1914388838092
421,1438258602029,50.4741457155086
422,1438258602764,16.5366281859427
423,1438258603484,21.7420541369103
424,1438258604232,55.1666261409758
425,1438258604950,17.0097237395378
426,1438258605648,40.569104689432
427,1438258606308,48.6300187705218
428,1438258607027,40.8255573975108
429,1438258607852,46.29291644493
430,1438258608586,27.3714513256042
431,1438258609335,11.6047568025228
432,1438258610069,22.9666385134534
433,1438258610785,31.7966930764701
434,1438258611533,17.8164185325327
435,1438258612293,23.7576338847377
436,1438258613026,23.4258355234153
437,1438258613786,29.2059463538832
438,1438258614513,34.992511669349
439,1438258615196,37.2456522872784
440,1438258615851,24.7109034419742
441,1438258616560,31.7431392865642
442,1438258617200,35.94888768389
443,1438258617864,38.37722823649
444,1438258618496,35.5007030504772
445,1438258619153,38.2586522106892
446,1438258619777,39.2699297888463
447,1438258620475,37.4037509554958
448,1438258621242,28.3572072266774
449,1438258621968,26.6576045332366
450,1438258622620,35.1214719388874
451,1438258623352,32.993073516681
452,1438258624076,32.6750301824885
453,1438258624852,36.2747936013273
454,1438258625569,36.0981836431252
455,1438258626282,37.4180939553239
456,1438258627043,33.9371062447245
457,1438258627792,32.5058929386057
458,1438258628518,39.8016288044618
459,1438258629220,39.0800573307051
460,1438258629870,42.3313507324263
461,1438258630612,43.2056540103412
462,1438258631373,38.4659308622483
463,1438258632127,35.9655371913677
464,1438258632887,28.248894751322
465,1438258633625,15.6291493234222
466,1438258634355,13.9371049804729
467,1438258635069,19.1251119626362
468,1438258635821,18.9740007335995
469,1438258636581,19.2664252434334
470,1438258637327,33.413960117795
471,1438258638069,27.8511831895622
472,1438258638809,41.3194864954087
473,1438258639541,41.9870994346036
474,1438258640273,30.8982100879803
475,1438258640997,11.1696864350609
476,1438258641731,8.49592011117118
477,1438258642500,9.13369226953992
478,1438258643227,14.7976444087961
479,1438258643979,9.90830737533077
480,1438258644718,7.5520849193747
481,1438258645438,12.0062911299735
482,1438258646060,14.8646546143106
483,1438258648069,20.2973027202305
484,1438258648816,12.3420573519171
485,1438258649500,23.5948627587309
486,1438258650096,11.5116743398745
487,1438258650792,20.0317209682022
488,1438258651519,7.78696071609598
489,1438258652247,16.0197604348702
490,1438258653009,16.1778995177242
491,1438258653770,12.8073112767315
492,1438258654485,15.4819097984894
493,1438258655219,12.8497427527242
494,1438258655967,15.4845579403438
495,1438258656709,17.9103321172933
496,1438258657449,20.5682089848928
497,1438258658226,14.485505922482
498,1438258658943,12.9601505652643
499,1438258659654,13.8851542897532
500,1438258660387,14.8360875011874
501,1438258661114,39.2534151214669
502,1438258661861,21.8539221408044
503,1438258662629,12.3762685813102
504,1438258663350,11.8766485794151
505,1438258664065,20.8249764519003
506,1438258664762,13.9603596210016
507,1438258666329,15.590133652711
508,1438258667056,14.2944223404433
509,1438258667886,13.0207226690702
510,1438258668619,12.8866194219186
511,1438258669334,15.0186828473265
512,1438258670051,13.0096418779692
513,1438258670814,10.1356099077905
514,1438258671529,11.7865725782769
515,1438258672429,13.3703398051941
516,1438258673105,14.3112638067498
517,1438258673859,27.3198926266886
518,1438258674607,15.2766113760585
519,1438258675415,19.727819300354
520,1438258676149,19.1899949407118
521,1438258676910,22.3669344904386
522,1438258677622,13.991970011592
523,1438258678364,32.1099926117786
524,1438258679082,37.8889728384051
525,1438258679860,31.8652101171468
526,1438258680595,30.5972780332982
527,1438258681321,38.9279591656738
528,1438258682036,47.1702554064366
529,1438258682782,62.7416301408264
530,1438258683461,61.0061948994179
531,1438258684106,63.1428203732046
532,1438258684823,58.7419575008678
533,1438258685559,57.4778167017475
534,1438258686267,59.3424586403673
535,1438258686999,53.1269884897663
536,1438258687741,49.112952900498
537,1438258688471,42.7953003549899
538,1438258689208,21.1104571266421
539,1438258689951,20.8763607908182
540,1438258690665,42.6126756753727
541,1438258691402,32.3422401470614
542,1438258692157,37.6413573793563
543,1438258692897,41.9568309246318
544,1438258693626,54.9734295701475
545,1438258694379,61.3600519389894
546,1438258695114,59.2062923348893
547,1438258695806,64.6875333433222
548,1438258697307,70.6012754491372
549,1438258698025,57.1701730800172
550,1438258698760,58.3347827396694
551,1438258699477,56.0762011826608
552,1438258700219,55.472099807124
553,1438258700959,50.3577814887903
554,1438258701696,48.4008620387041
555,1438258702444,58.1856757259263
556,1438258703176,58.1909811409518
557,1438258703939,58.2855991889143
558,1438258704661,50.9540540709113
559,1438258705389,57.9229524437571
560,1438258706085,59.1572007070099
561,1438258706708,55.9095046703778
562,1438258707401,57.9074186707196
563,1438258708140,53.3068478619469
564,1438258708892,46.8659878300107
565,1438258709612,41.7553829062683
566,1438258710309,44.080171168019
567,1438258710930,51.0047519631021
568,1438258711619,47.5990693307247
569,1438258712339,42.3200660014995
570,1438258713031,45.2474739823365
571,1438258714536,41.7744107789028
572,1438258715268,42.8358743633165
573,1438258715989,43.5688752987109
574,1438258716727,39.7459176726552
575,1438258717458,40.5793001877362
