id,attr_time,attr_db
1,1438258290366,24.4297923874853
2,1438258291162,27.2645064473257
3,1438258291886,32.7136143061418
4,1438258292640,48.5692098634754
5,1438258293373,45.6898454700499
6,1438258294099,63.978554926983
7,1438258294848,55.2306327764815
8,1438258295612,61.8113285784321
9,1438258296358,36.6237700839466
10,1438258297087,36.6208796379893
11,1438258297828,41.2317371460865
12,1438258298577,37.6702412422647
13,1438258299285,38.9955152435387
14,1438258300031,35.3263846645817
15,1438258300761,30.5695255959386
16,1438258301497,26.4509722890094
17,1438258302219,17.7438307122231
18,1438258302978,21.3772564029836
19,1438258303719,19.61608482582
20,1438258304455,29.6332117097231
21,1438258305175,15.8418120855412
22,1438258305920,17.5619046350376
23,1438258306693,20.0549397924435
24,1438258307423,34.1062825394301
25,1438258308130,13.2188547772763
26,1438258308854,13.9739190497768
27,1438258309611,22.5546722424052
28,1438258310345,14.4769635315614
29,1438258311090,22.3429015651103
30,1438258311847,17.0088552153865
31,1438258312592,11.8976156214244
32,1438258313307,14.2386066858507
33,1438258314027,15.0713457332645
34,1438258314730,13.1474451255527
35,1438258315467,21.9926588137685
36,1438258316181,15.3235655847541
37,1438258316920,10.1511189632648
38,1438258317668,14.7548691430716
39,1438258318399,16.5273706733954
40,1438258319120,23.7606031686475
41,1438258319840,17.0760228797478
42,1438258320613,28.5934212753984
43,1438258321320,12.3744038561767
44,1438258321992,21.4614075850465
45,1438258322738,16.7754585337564
46,1438258323476,19.3803945018548
47,1438258324195,18.398304785834
48,1438258324902,25.2829047938693
49,1438258325650,19.5026862640426
50,1438258326374,28.6040978694567
51,1438258327112,12.5850692520889
52,1438258327833,18.047191152302
53,1438258328591,32.5431797725534
54,1438258329312,25.2534033015252
55,1438258330056,8.64170631676596
56,1438258330931,13.7735856283007
57,1438258331559,15.9396276775787
58,1438258332244,22.3380851561072
59,1438258332977,14.6886268107046
60,1438258333710,11.7739517370723
61,1438258334412,9.13701917382033
62,1438258335166,11.1307097618026
63,1438258335852,31.4050460013206
64,1438258336598,10.9135978168216
65,1438258337317,22.5795828410076
66,1438258338057,13.8743331650736
67,1438258338774,15.438354876506
68,1438258339509,12.6354788331279
69,1438258340206,19.8467937486781
70,1438258341065,23.7798819927921
71,1438258341798,13.7586194565005
72,1438258342536,36.7784380336397
73,1438258343264,23.9438939908771
74,1438258344012,43.3367342893204
75,1438258344763,18.6657239538446
76,1438258345561,31.5788473182218
77,1438258346276,20.8491399663283
78,1438258347011,34.0169636147029
79,1438258347755,18.5011009146745
80,1438258348504,37.6768064876668
81,1438258349217,21.9646401781328
82,1438258349947,30.6178007078452
83,1438258350709,17.8503317465429
84,1438258351456,49.5950168003972
85,1438258352165,49.3037442746047
86,1438258352843,27.0785312341666
87,1438258353513,21.8883578738449
88,1438258354248,23.6222984219299
89,1438258354972,19.4512113503905
90,1438258355668,24.5435640234302
91,1438258356298,18.8167676410244
92,1438258357036,40.0850669603375
93,1438258357776,15.5430961722108
94,1438258358516,22.7083951047874
95,1438258359253,15.4376080296688
96,1438258359994,24.9455822441203
97,1438258360814,33.6550450524914
98,1438258361571,26.2971002414879
99,1438258362300,23.3320489292934
100,1438258362992,19.353675387102
101,1438258363732,22.5764744606405
102,1438258364498,17.9939369741211
103,1438258365230,20.3010679388876
104,1438258365994,28.9303712800411
105,1438258366735,18.4340019017459
106,1438258367452,23.8541817735053
107,1438258368178,23.3077317349546
108,1438258368892,31.033203320515
109,1438258369658,15.6065408354743
110,1438258370385,29.3154251292672
111,1438258371188,21.4837872804965
112,1438258371921,25.6570743457637
113,1438258372660,29.2946909701822
114,1438258373386,49.6425878440084
115,1438258374094,45.2046096671918
116,1438258374822,33.9180682805648
117,1438258375560,36.4591702074191
118,1438258376367,36.9724292643462
119,1438258377081,37.0881284453012
120,1438258377759,30.9481093739037
121,1438258378503,29.4269389037867
122,1438258379230,31.7419388072275
123,1438258379979,30.4964134752807
124,1438258380738,34.180909741825
125,1438258381462,33.7935474457441
126,1438258382184,30.1370893409284
127,1438258382915,36.1724214032303
128,1438258383673,36.8711617101701
129,1438258384392,39.7209454866102
130,1438258385117,40.9003752626989
131,1438258385838,37.7530147406498
132,1438258386575,39.7392172149544
133,1438258387300,40.6935961998891
134,1438258388038,45.1843348676811
135,1438258388786,51.4352772892873
136,1438258389497,48.2663688612154
137,1438258390193,51.6463964980561
138,1438258390910,50.0550525231589
139,1438258391671,47.1129637519722
140,1438258392418,56.7413623177721
141,1438258393199,53.9774633259286
142,1438258393782,52.3695963006557
143,1438258394447,49.4909056586992
144,1438258395155,50.6585188839242
145,1438258395876,50.9846482628481
146,1438258396628,52.0866702874028
147,1438258397371,55.9081930027678
148,1438258398048,53.2170367145391
149,1438258398742,47.2165317804174
150,1438258399325,46.7626875571962
151,1438258400055,43.4725487729094
152,1438258400779,47.3165066280132
153,1438258401507,45.0989040765938
154,1438258402224,47.9766860655363
155,1438258402979,42.5463465742121
156,1438258403713,33.4573926483722
157,1438258404414,41.8588412355605
158,1438258405135,29.4482265717227
159,1438258405851,35.7329652617772
160,1438258406615,37.26476141107
161,1438258407350,36.7323226483759
162,1438258408063,36.5084166783198
163,1438258408799,34.4067173006382
164,1438258409532,60.6589397247965
165,1438258410237,42.8547485814067
166,1438258410964,55.8740431394608
167,1438258411707,39.2126192341788
168,1438258412406,31.6409303943238
169,1438258413109,26.6062759256994
170,1438258413804,26.9415409306057
171,1438258414404,39.3447828932
172,1438258415088,23.1088668577538
173,1438258415821,32.2057616540513
174,1438258416642,42.0303029843134
175,1438258417338,33.9222278805747
176,1438258418067,22.1326649528326
177,1438258418793,36.6259971697416
178,1438258419520,45.5562472465803
179,1438258420247,42.0924022476111
180,1438258421001,39.856620443995
181,1438258421743,42.3102460578136
182,1438258422495,47.3783576898511
183,1438258423230,41.1559519590407
184,1438258423975,29.559415045864
185,1438258426073,39.7127892133796
186,1438258426796,41.9263100750023
187,1438258427497,40.6430839164754
188,1438258428217,44.8028562327112
189,1438258428961,41.0870128819923
190,1438258429714,31.9614349641633
191,1438258430415,41.0972196123134
192,1438258431146,26.8840979228237
193,1438258431869,19.7414718315733
194,1438258432635,21.1979414068256
195,1438258433380,24.1105252361491
196,1438258434091,22.1520232488464
197,1438258434802,36.6207032644948
198,1438258435526,44.4334834374576
199,1438258436224,54.3771720463103
200,1438258436932,42.498701605699
201,1438258437715,24.9202445927225
202,1438258438406,42.5510773283796
203,1438258439135,25.5575234477441
204,1438258439854,21.3835816375314
205,1438258440595,23.3532892413985
206,1438258441343,19.6344359180786
207,1438258442057,51.7683529506908
208,1438258442776,52.7024227922087
209,1438258444830,41.9105893720096
210,1438258445529,42.166550912879
211,1438258446299,39.8134467816859
212,1438258447033,41.3568825208982
213,1438258447778,34.1992331447273
214,1438258448513,29.5327265206832
215,1438258449246,34.6995293951244
216,1438258450157,18.4329298486957
217,1438258450992,41.337724175335
218,1438258451676,34.6873776313791
219,1438258452373,47.8178640100993
220,1438258453144,40.2004823717172
221,1438258453919,37.1910382663292
222,1438258454670,52.671142303619
223,1438258455395,32.3948248115678
224,1438258456170,41.3217946320737
225,1438258456888,38.6931401521689
226,1438258457617,24.4364058299266
227,1438258458283,27.5403546497571
228,1438258458946,34.3000477567902
229,1438258459672,48.0760813462303
230,1438258460397,46.2971658257072
231,1438258461150,40.5822319754375
232,1438258461887,29.376628350083
233,1438258462627,18.9176778412941
234,1438258463368,30.9609914574316
235,1438258464084,25.8432129170792
236,1438258464800,35.2724537579961
237,1438258465545,27.86916630295
238,1438258466274,35.7869730270222
239,1438258467006,25.0311087932032
240,1438258467720,18.1203346324185
241,1438258468437,14.6644962341864
242,1438258469159,13.9854168862562
243,1438258469888,14.7647750903623
244,1438258470660,27.3119925063748
245,1438258471372,20.9867056448405
246,1438258472079,28.4870832111712
247,1438258472792,15.9532512901945
248,1438258473531,15.2622474296401
249,1438258474198,15.9158351704001
250,1438258475786,26.1612000319104
251,1438258476435,27.36130179263
252,1438258477106,40.9987608147138
253,1438258477778,28.4111810775103
254,1438258478426,18.8073971581799
255,1438258479148,19.4726026643312
256,1438258479875,21.0991647549723
257,1438258480651,27.6256354255301
258,1438258481365,16.9522456455089
259,1438258482077,12.9234688345327
260,1438258482797,17.5861192982468
261,1438258483530,18.1776641491254
262,1438258484227,24.3957217877183
263,1438258484882,17.7738255604799
264,1438258485590,19.701266750778
265,1438258486215,39.6393109268168
266,1438258486893,26.3798573599296
267,1438258487655,17.0474210912475
268,1438258488372,20.5976187049275
269,1438258489074,37.5501277267958
270,1438258489772,31.9432646545754
271,1438258490495,21.1485319257349
272,1438258492319,15.0185741367987
273,1438258493044,24.8826646925454
274,1438258493756,14.6819494059256
275,1438258494474,18.016066124573
276,1438258495202,15.4558206303756
277,1438258495911,19.3613300041804
278,1438258496655,12.2167702837049
279,1438258497364,7.74162978876851
280,1438258498083,12.895331817255
281,1438258498742,25.7962980307302
282,1438258499447,19.2805052841828
283,1438258500152,12.8133679954675
284,1438258500870,12.342150378206
285,1438258501630,27.7785002355843
286,1438258502375,19.1066760808892
287,1438258503096,10.1718716279842
288,1438258503792,6.93336941412177
289,1438258504457,10.7672265942047
290,1438258505179,12.0306885147676
291,1438258505912,9.40773666164075
292,1438258506664,8.53846719673108
293,1438258507393,7.89753973621754
294,1438258508144,9.49446472046354
295,1438258508872,15.5365442845714
296,1438258509615,19.557209407134
297,1438258510357,17.9420012007036
298,1438258511126,12.0886710390128
299,1438258511859,9.03987649415972
300,1438258512611,10.4480522557749
301,1438258513358,22.3119892824552
302,1438258514132,16.9281166030446
303,1438258514676,19.4596402172984
304,1438258515339,24.1250582593336
305,1438258516051,12.0640887992232
306,1438258516766,13.5473679182089
307,1438258517478,14.6533451032689
308,1438258518188,14.8004057789157
309,1438258518843,25.8054000097681
310,1438258519525,33.5673842476402
311,1438258520245,26.8558381434668
312,1438258521062,29.5864677589468
313,1438258521811,23.8357142981675
314,1438258522544,24.7504760247005
315,1438258523266,32.5388489489296
316,1438258523995,15.9730545648786
317,1438258524728,35.9142956052972
318,1438258525453,21.398740830641
319,1438258526179,11.1375490894773
320,1438258526898,12.2612180121895
321,1438258527636,15.1419784482094
322,1438258528365,15.4452853530543
323,1438258529099,14.7620532880691
324,1438258529802,13.6276704554408
325,1438258530537,13.2774493608767
326,1438258531318,14.7116844018768
327,1438258532048,14.4145885421944
328,1438258532779,11.9376352298461
329,1438258533508,18.1742117701392
330,1438258534235,16.6418682225444
331,1438258534913,34.5329062251151
332,1438258535624,21.8629929884488
333,1438258536240,17.021098892909
334,1438258536961,38.8273846557983
335,1438258537691,31.8151700029823
336,1438258538390,26.6117932586707
337,1438258539055,32.1947485775387
338,1438258539782,34.0662615294638
339,1438258540518,17.2895586553246
340,1438258541294,34.6631016291153
341,1438258541995,20.9116818576377
342,1438258542750,17.2495595762781
343,1438258543510,25.1180197713104
344,1438258544280,14.8766978940855
345,1438258545016,33.1381935756334
346,1438258545774,16.5013432759611
347,1438258546552,17.6106249842717
348,1438258547279,26.1255865410922
349,1438258548019,37.5948311707722
350,1438258548744,40.5046796898918
351,1438258549482,19.8113846191288
352,1438258550196,20.4134335846367
353,1438258550914,12.9085887594622
354,1438258551662,25.3989571243147
355,1438258552422,13.6971344411623
356,1438258553142,18.6356629820783
357,1438258553858,9.91548012932138
358,1438258554592,16.207028902427
359,1438258555273,11.2941242311453
360,1438258556002,18.8472143832664
361,1438258556750,16.5006171906511
362,1438258557458,15.9158508756554
363,1438258558156,18.8900582650278
364,1438258558840,22.8240502059312
365,1438258559582,22.5317340817982
366,1438258560299,22.4304768639592
367,1438258561030,11.8625955152773
368,1438258561764,18.2211536368705
369,1438258562494,22.9284437276185
370,1438258563228,23.3539307640586
371,1438258563956,18.2150750957644
372,1438258564709,20.1224688321783
373,1438258565430,18.4454455419823
374,1438258566217,18.4402854524969
375,1438258566952,18.9506073353177
376,1438258567712,26.7323008661743
377,1438258568437,23.8271975881414
378,1438258569175,20.413476289052
379,1438258569876,19.6058616791375
380,1438258570639,14.8264597276204
381,1438258571412,10.3679559251828
382,1438258572137,29.1219358219165
383,1438258572862,18.0140526840888
384,1438258573608,15.0963381604174
385,1438258574310,19.7923753430887
386,1438258575015,13.937872692126
387,1438258575642,13.6951231184642
388,1438258576341,13.8273702736323
389,1438258577066,13.9436792858252
390,1438258577781,18.5224879387771
391,1438258578495,18.2586399110883
392,1438258579176,20.9739802206911
393,1438258579820,20.4328254028362
394,1438258580543,19.6811471149858
395,1438258581342,24.8463814246045
396,1438258582048,16.4665892235189
397,1438258582765,19.2025734403875
398,1438258583487,24.1050739377801
399,1438258584208,16.1298951288106
400,1438258584958,20.0518265307985
401,1438258585700,36.0924140070746
402,1438258586486,43.5943326895361
403,1438258587192,45.7905293316324
404,1438258587922,43.8579851545975
405,1438258588699,26.0195496858294
406,1438258589422,33.729474280249
407,1438258590155,33.8142998424352
408,1438258590849,36.2082343394024
409,1438258591651,43.5097395398972
410,1438258592345,43.2726716871589
411,1438258593015,48.0039171194671
412,1438258593758,46.3189855204027
413,1438258594507,16.0766384087089
414,1438258595214,35.5138259158805
415,1438258595877,31.3227757534184
416,1438258596612,10.1935056003625
417,1438258597336,34.6160260463582
418,1438258598059,32.5233141995056
419,1438258598797,45.8914850837432
420,1438258599514,46.50151316223
421,1438258600185,50.8911413982207
422,1438258600910,38.7431292568178
423,1438258601700,17.3199231921812
424,1438258602436,25.913182886064
425,1438258603163,47.2247239991933
426,1438258603904,20.38797028438
427,1438258604655,38.2500816598602
428,1438258605395,39.1664893228694
429,1438258606122,40.3146683231965
430,1438258606936,46.0495430922542
431,1438258607682,21.7189786930836
432,1438258608414,15.151672962511
433,1438258609142,32.3853318431808
434,1438258609879,35.3597887118855
435,1438258610646,23.9928129344879
436,1438258611364,23.9944801458136
437,1438258612102,27.7129036599907
438,1438258612819,34.3220407322339
439,1438258613575,34.2113317227199
440,1438258614283,37.4052238275079
441,1438258615012,36.7079347942235
442,1438258615666,35.923396589942
443,1438258616364,40.9649542238044
444,1438258617119,38.6204483822582
445,1438258617719,39.3277724939964
446,1438258618412,41.9524823020527
447,1438258619173,40.4370882179905
448,1438258619864,30.538298083961
449,1438258620624,36.8136671537682
450,1438258621361,36.4340097974701
451,1438258622089,34.3803749302493
452,1438258622808,33.5793271120131
453,1438258623518,36.2999722754286
454,1438258624199,38.2084775006343
455,1438258624934,43.4625490981769
456,1438258625688,39.5155769780784
457,1438258626414,36.5283060014599
458,1438258627145,40.6816497010442
459,1438258627868,41.1458144282198
460,1438258628591,42.8681437262521
461,1438258630188,39.7435851928634
462,1438258630840,38.9202695885452
463,1438258631596,32.2599224638457
464,1438258632314,23.196763454389
465,1438258633037,13.3303564458348
466,1438258633758,19.5089707685685
467,1438258634495,18.7985195147616
468,1438258635198,28.8233431429405
469,1438258635964,22.0040576066205
470,1438258636655,29.9764298698207
471,1438258637368,41.4527436789292
472,1438258638067,37.4061608550783
473,1438258638796,43.2206125234196
474,1438258639543,28.456953344949
475,1438258640225,16.3171343697278
476,1438258640814,10.6580709675571
477,1438258641513,13.0822692193507
478,1438258642289,17.3982032523694
479,1438258643057,17.2690486252129
480,1438258643774,23.2116861351943
481,1438258644506,31.7319428846988
482,1438258645222,39.4275410518406
483,1438258645955,36.4174214240519
484,1438258646685,21.7695480524971
485,1438258647405,16.7367052307922
486,1438258648101,16.8458910331594
487,1438258648814,18.1818618141282
488,1438258649552,28.1732188462785
489,1438258650283,15.9932504336932
490,1438258651013,18.4555787895618
491,1438258652992,20.4511337520744
492,1438258653731,15.4311257367242
493,1438258654460,16.9304158128389
494,1438258655176,18.3000925573766
495,1438258655889,25.8387899554552
496,1438258656630,16.0870049310276
497,1438258657351,21.870617468732
498,1438258658068,15.6981097031763
499,1438258658800,18.0647938414045
500,1438258659540,22.9724549760583
501,1438258660224,36.4382986040545
502,1438258660896,21.1598691429409
503,1438258661648,17.528705931445
504,1438258662373,14.9230087657164
505,1438258663094,19.8772547429939
506,1438258663806,19.1342935235997
507,1438258664542,14.1865462436579
508,1438258665255,21.7300439056831
509,1438258666011,19.4610603879274
510,1438258666740,16.9805337972975
511,1438258667464,15.4672491358349
512,1438258668179,20.3012409371131
513,1438258668901,15.1546059906269
514,1438258669670,14.153347240264
515,1438258670402,16.0598378432426
516,1438258671118,19.2171201212176
517,1438258671817,14.9623067413464
518,1438258672540,29.4477040103475
519,1438258673284,29.2358670388903
520,1438258674007,19.475777348851
521,1438258674752,21.9963826596747
522,1438258675475,21.8207435179654
523,1438258676193,18.6746451035986
524,1438258676861,18.9442605141901
525,1438258677619,33.4162179120572
526,1438258678330,37.0253385065296
527,1438258679052,32.6778054470263
528,1438258679766,33.1032829837215
529,1438258680472,40.3837546806812
530,1438258681189,53.868259791775
531,1438258681919,60.2958663521544
532,1438258682663,62.0740349508882
533,1438258683384,61.2973446533543
534,1438258684101,59.8624946629796
535,1438258684808,61.1537957484586
536,1438258685499,60.6646507244412
537,1438258686228,58.6518057543067
538,1438258686963,53.3066648656781
539,1438258687724,37.1816519182279
540,1438258688439,28.8277564549305
541,1438258689193,17.7733574362179
542,1438258689926,41.5433154214618
543,1438258690602,33.7494431887495
544,1438258691965,48.1608534617617
545,1438258692660,61.4580816883901
546,1438258693383,63.8636871630341
547,1438258694094,61.3671657606964
548,1438258694812,64.0764701303119
549,1438258695556,69.320307654871
550,1438258696322,68.2433639809603
551,1438258696921,59.1771194682412
552,1438258697624,61.2223025096126
553,1438258698357,61.5332649414317
554,1438258699065,60.7760134215049
555,1438258699775,51.8144398106969
556,1438258700489,52.9593031580547
557,1438258701092,53.4102672637554
558,1438258701789,59.8342455744425
559,1438258702534,58.0252062438944
560,1438258703249,53.087521867465
561,1438258703979,56.4188304171655
562,1438258704725,56.2087566986494
563,1438258705416,56.0692227257117
564,1438258706149,58.8927719896457
565,1438258706886,57.0027933099253
566,1438258707652,51.1050202892277
567,1438258708382,47.5928519802472
568,1438258709101,46.6083380647324
569,1438258709841,47.4837513076881
570,1438258710585,47.5573328144839
571,1438258711250,43.6959625073624
572,1438258712651,45.4142478603622
573,1438258713321,45.2486982578667
574,1438258714032,43.6513406567581
575,1438258714714,40.2283088077283
