id,attr_time,attr_light
1,1437146239064,220.0
2,1437146239065,220.0
3,1437146239066,219.0
4,1437146239067,219.0
5,1437146239068,218.0
6,1437146239088,218.0
7,1437146239104,218.0
8,1437146239123,218.0
9,1437146239141,218.0
10,1437146239164,217.0
11,1437146239181,217.0
12,1437146239201,217.0
13,1437146239224,217.0
14,1437146239242,217.0
15,1437146239262,217.0
16,1437146239282,217.0
17,1437146239301,217.0
18,1437146239323,216.0
19,1437146239342,216.0
20,1437146239362,216.0
21,1437146239382,215.0
22,1437146239402,215.0
23,1437146239422,216.0
24,1437146239442,216.0
25,1437146239462,216.0
26,1437146239480,216.0
27,1437146239500,218.0
28,1437146239521,218.0
29,1437146239540,220.0
30,1437146239566,220.0
31,1437146239586,222.0
32,1437146239602,222.0
33,1437146239623,224.0
34,1437146239643,224.0
35,1437146239662,225.0
36,1437146239680,226.0
37,1437146239701,226.0
38,1437146239730,226.0
39,1437146239762,226.0
40,1437146239763,226.0
41,1437146239780,226.0
42,1437146239800,226.0
43,1437146239821,226.0
44,1437146239842,225.0
45,1437146239860,225.0
46,1437146239880,225.0
47,1437146239900,225.0
48,1437146239920,225.0
49,1437146239940,225.0
50,1437146239960,226.0
51,1437146239980,227.0
52,1437146240000,227.0
53,1437146240020,228.0
54,1437146240040,228.0
55,1437146240061,228.0
56,1437146240081,228.0
57,1437146240101,228.0
58,1437146240135,228.0
59,1437146240146,229.0
60,1437146240163,229.0
61,1437146240184,230.0
62,1437146240204,230.0
63,1437146240222,231.0
64,1437146240246,231.0
65,1437146240262,231.0
66,1437146240286,231.0
67,1437146240303,231.0
68,1437146240323,231.0
69,1437146240366,231.0
70,1437146240367,232.0
71,1437146240384,232.0
72,1437146240402,232.0
73,1437146240423,232.0
74,1437146240443,232.0
75,1437146240463,232.0
76,1437146240482,232.0
77,1437146240502,232.0
78,1437146240523,232.0
79,1437146240544,231.0
80,1437146240562,231.0
81,1437146240582,231.0
82,1437146240606,231.0
83,1437146240623,231.0
84,1437146240643,231.0
85,1437146240665,231.0
86,1437146240683,231.0
87,1437146240706,231.0
88,1437146240723,231.0
89,1437146240743,232.0
90,1437146240765,232.0
91,1437146240784,233.0
92,1437146240806,233.0
93,1437146240823,234.0
94,1437146240845,235.0
95,1437146240863,235.0
96,1437146240883,235.0
97,1437146240905,235.0
98,1437146240922,236.0
99,1437146240943,236.0
100,1437146240963,236.0
101,1437146240985,236.0
102,1437146241003,236.0
103,1437146241024,236.0
104,1437146241103,237.0
105,1437146241104,237.0
106,1437146241105,237.0
107,1437146241106,237.0
108,1437146241123,237.0
109,1437146241143,237.0
110,1437146241163,237.0
111,1437146241183,237.0
112,1437146241246,237.0
113,1437146241247,237.0
114,1437146241248,237.0
115,1437146241264,238.0
116,1437146241285,238.0
117,1437146241305,238.0
118,1437146241326,238.0
119,1437146241345,238.0
120,1437146241365,238.0
121,1437146241386,237.0
122,1437146241406,237.0
123,1437146241426,237.0
124,1437146241444,236.0
125,1437146241465,236.0
126,1437146241487,235.0
127,1437146241506,235.0
128,1437146241529,235.0
129,1437146241549,235.0
130,1437146241564,234.0
131,1437146241586,234.0
132,1437146241612,233.0
133,1437146241627,233.0
134,1437146241644,233.0
135,1437146241664,233.0
136,1437146241686,233.0
137,1437146241705,233.0
138,1437146241731,233.0
139,1437146241744,233.0
140,1437146241765,233.0
141,1437146241790,232.0
142,1437146241866,232.0
143,1437146241867,232.0
144,1437146241868,232.0
145,1437146241869,232.0
146,1437146241886,232.0
147,1437146241910,232.0
148,1437146241924,232.0
149,1437146241944,232.0
150,1437146241966,232.0
151,1437146241985,232.0
152,1437146242006,232.0
153,1437146242024,232.0
154,1437146242050,232.0
155,1437146242066,232.0
156,1437146242087,233.0
157,1437146242108,233.0
158,1437146242126,234.0
159,1437146242173,234.0
160,1437146242174,235.0
161,1437146242186,235.0
162,1437146242208,235.0
163,1437146242226,235.0
164,1437146242278,236.0
165,1437146242279,236.0
166,1437146242286,237.0
167,1437146242306,238.0
168,1437146242324,238.0
169,1437146242345,238.0
170,1437146242365,238.0
171,1437146242386,238.0
172,1437146242410,238.0
173,1437146242431,238.0
174,1437146242445,238.0
175,1437146242465,239.0
176,1437146242484,239.0
177,1437146242504,239.0
178,1437146242526,239.0
179,1437146242664,238.0
180,1437146242665,238.0
181,1437146242666,238.0
182,1437146242667,237.0
183,1437146242668,237.0
184,1437146242669,237.0
185,1437146242670,237.0
186,1437146242692,236.0
187,1437146242712,236.0
188,1437146242725,235.0
189,1437146242753,235.0
190,1437146242764,235.0
191,1437146242785,235.0
192,1437146242808,235.0
193,1437146242828,235.0
194,1437146242845,236.0
195,1437146242868,236.0
196,1437146242887,235.0
197,1437146242907,234.0
198,1437146242928,234.0
199,1437146242949,235.0
200,1437146242968,235.0
201,1437146242988,236.0
202,1437146243007,236.0
203,1437146243029,237.0
204,1437146243048,237.0
205,1437146243068,239.0
206,1437146243091,239.0
207,1437146243110,241.0
208,1437146243130,241.0
209,1437146243149,241.0
210,1437146243166,242.0
211,1437146243185,242.0
212,1437146243206,243.0
213,1437146243231,243.0
214,1437146243252,242.0
215,1437146243272,242.0
216,1437146243288,242.0
217,1437146243375,242.0
218,1437146243376,241.0
219,1437146243377,241.0
220,1437146243378,240.0
221,1437146243388,240.0
222,1437146243406,240.0
223,1437146243428,240.0
224,1437146243445,241.0
225,1437146243465,241.0
226,1437146243486,241.0
227,1437146243509,241.0
228,1437146243531,241.0
229,1437146243549,242.0
230,1437146243568,242.0
231,1437146243589,242.0
232,1437146243611,242.0
233,1437146243628,241.0
234,1437146243649,241.0
235,1437146243667,241.0
236,1437146243689,241.0
237,1437146243706,241.0
238,1437146243730,241.0
239,1437146243748,241.0
240,1437146243769,241.0
241,1437146243789,241.0
242,1437146243807,241.0
243,1437146243829,241.0
244,1437146243849,241.0
245,1437146243870,241.0
246,1437146243889,241.0
247,1437146243910,241.0
248,1437146243929,240.0
249,1437146243949,240.0
250,1437146243970,241.0
251,1437146243988,241.0
252,1437146244020,240.0
253,1437146244090,240.0
254,1437146244091,241.0
255,1437146244092,240.0
256,1437146244093,240.0
257,1437146244107,239.0
258,1437146244132,239.0
259,1437146244150,237.0
260,1437146244181,237.0
261,1437146244190,237.0
262,1437146244208,237.0
263,1437146244228,236.0
264,1437146244247,236.0
265,1437146244273,236.0
266,1437146244288,236.0
267,1437146244309,236.0
268,1437146244326,235.0
269,1437146244349,235.0
270,1437146244370,233.0
271,1437146244389,233.0
272,1437146244409,232.0
273,1437146244428,232.0
274,1437146244449,231.0
275,1437146244469,231.0
276,1437146244486,231.0
277,1437146244510,231.0
278,1437146244530,231.0
279,1437146244555,231.0
280,1437146244573,231.0
281,1437146244595,231.0
282,1437146244617,232.0
283,1437146244636,233.0
284,1437146244651,233.0
285,1437146244668,234.0
286,1437146244690,234.0
287,1437146244707,235.0
288,1437146244806,235.0
289,1437146244807,235.0
290,1437146244808,235.0
291,1437146244809,235.0
292,1437146244810,235.0
293,1437146244829,234.0
294,1437146244851,234.0
295,1437146244869,233.0
296,1437146244887,233.0
297,1437146244908,232.0
298,1437146244927,232.0
299,1437146244949,232.0
300,1437146244968,232.0
301,1437146244993,232.0
302,1437146245008,234.0
303,1437146245030,234.0
304,1437146245048,236.0
305,1437146245070,236.0
306,1437146245090,238.0
307,1437146245110,238.0
308,1437146245130,240.0
309,1437146245148,240.0
310,1437146245170,243.0
311,1437146245189,243.0
312,1437146245210,243.0
313,1437146245289,244.0
314,1437146245290,244.0
315,1437146245291,244.0
316,1437146245292,244.0
317,1437146245371,244.0
318,1437146245372,244.0
319,1437146245373,245.0
320,1437146245374,245.0
321,1437146245387,246.0
322,1437146245407,246.0
323,1437146245432,245.0
324,1437146245448,245.0
325,1437146245475,243.0
326,1437146245531,242.0
327,1437146245532,242.0
328,1437146245533,240.0
329,1437146245573,240.0
330,1437146245574,238.0
331,1437146245605,238.0
332,1437146245611,236.0
333,1437146245629,236.0
334,1437146245651,234.0
335,1437146245693,234.0
336,1437146245694,233.0
337,1437146245780,233.0
338,1437146245781,232.0
339,1437146245782,232.0
340,1437146245783,231.0
341,1437146245844,230.0
342,1437146245845,230.0
343,1437146245846,229.0
344,1437146245848,229.0
345,1437146245868,229.0
346,1437146245928,229.0
347,1437146245930,228.0
348,1437146245931,228.0
349,1437146246033,228.0
350,1437146246034,228.0
351,1437146246035,228.0
352,1437146246036,228.0
353,1437146246037,228.0
354,1437146246050,228.0
355,1437146246066,229.0
356,1437146246086,231.0
357,1437146246116,231.0
358,1437146246127,231.0
359,1437146246149,231.0
360,1437146246169,232.0
361,1437146246188,232.0
362,1437146246208,232.0
363,1437146246231,232.0
364,1437146246251,233.0
365,1437146246269,233.0
366,1437146246304,234.0
367,1437146246306,234.0
368,1437146246328,235.0
369,1437146246347,235.0
370,1437146246367,234.0
371,1437146246392,233.0
372,1437146246412,233.0
373,1437146246427,232.0
374,1437146246452,232.0
375,1437146246472,232.0
376,1437146246492,232.0
377,1437146246511,231.0
378,1437146246528,231.0
379,1437146246548,232.0
380,1437146246570,232.0
381,1437146246589,232.0
382,1437146246612,232.0
383,1437146246630,232.0
384,1437146246651,232.0
385,1437146246670,232.0
386,1437146246692,233.0
387,1437146246709,233.0
388,1437146246728,234.0
389,1437146246752,234.0
390,1437146246772,235.0
391,1437146246791,235.0
392,1437146246812,235.0
393,1437146246829,235.0
394,1437146246852,235.0
395,1437146246870,235.0
396,1437146246891,235.0
397,1437146246909,235.0
398,1437146246963,236.0
399,1437146246964,236.0
400,1437146246977,236.0
401,1437146246989,237.0
402,1437146247009,237.0
403,1437146247033,237.0
404,1437146247049,237.0
405,1437146247071,237.0
406,1437146247091,237.0
407,1437146247110,237.0
408,1437146247139,237.0
409,1437146247149,237.0
410,1437146247172,237.0
411,1437146247192,238.0
412,1437146247211,238.0
413,1437146247231,237.0
414,1437146247251,237.0
415,1437146247271,237.0
416,1437146247291,238.0
417,1437146247311,238.0
418,1437146247331,239.0
419,1437146247351,239.0
420,1437146247371,239.0
421,1437146247391,239.0
422,1437146247412,239.0
423,1437146247432,239.0
424,1437146247451,239.0
425,1437146247471,239.0
426,1437146247492,239.0
427,1437146247512,239.0
428,1437146247531,238.0
429,1437146247550,238.0
430,1437146247572,238.0
431,1437146247599,237.0
432,1437146247659,237.0
433,1437146247660,237.0
434,1437146247661,237.0
435,1437146247684,237.0
436,1437146247689,237.0
437,1437146247713,237.0
438,1437146247732,237.0
439,1437146247751,236.0
440,1437146247770,236.0
441,1437146247792,236.0
442,1437146247811,236.0
443,1437146247832,236.0
444,1437146247853,236.0
445,1437146247872,236.0
446,1437146247893,235.0
447,1437146247913,235.0
448,1437146247933,236.0
449,1437146247954,236.0
450,1437146247973,236.0
451,1437146247993,236.0
452,1437146248013,238.0
453,1437146248033,238.0
454,1437146248053,242.0
455,1437146248075,242.0
456,1437146248092,249.0
457,1437146248113,260.0
458,1437146248132,260.0
459,1437146248152,271.0
460,1437146248171,271.0
461,1437146248194,279.0
462,1437146248214,279.0
463,1437146248234,281.0
464,1437146248252,281.0
465,1437146248271,276.0
466,1437146248291,276.0
467,1437146248312,268.0
468,1437146248340,268.0
469,1437146248414,260.0
470,1437146248415,260.0
471,1437146248416,254.0
472,1437146248417,251.0
473,1437146248430,251.0
474,1437146248450,250.0
475,1437146248473,250.0
476,1437146248490,249.0
477,1437146248510,249.0
478,1437146248536,247.0
479,1437146248555,247.0
480,1437146248576,242.0
481,1437146248592,242.0
482,1437146248611,238.0
483,1437146248634,238.0
484,1437146248654,235.0
485,1437146248673,235.0
486,1437146248694,233.0
487,1437146248714,232.0
488,1437146248733,232.0
489,1437146248754,232.0
490,1437146248775,232.0
491,1437146248794,235.0
492,1437146248812,235.0
493,1437146248834,240.0
494,1437146248854,240.0
495,1437146248875,247.0
496,1437146248893,247.0
497,1437146248914,257.0
498,1437146248933,257.0
499,1437146248953,268.0
500,1437146248973,268.0
501,1437146248994,281.0
502,1437146249012,292.0
503,1437146249032,292.0
504,1437146249052,297.0
505,1437146249081,297.0
506,1437146249154,298.0
507,1437146249155,298.0
508,1437146249156,295.0
509,1437146249157,295.0
510,1437146249171,290.0
511,1437146249197,290.0
512,1437146249211,284.0
513,1437146249233,284.0
514,1437146249252,276.0
515,1437146249272,268.0
516,1437146249321,268.0
517,1437146249322,260.0
518,1437146249331,260.0
519,1437146249351,254.0
520,1437146249371,254.0
521,1437146249391,249.0
522,1437146249411,249.0
523,1437146249431,244.0
524,1437146249451,244.0
525,1437146249471,239.0
526,1437146249491,239.0
527,1437146249511,234.0
528,1437146249531,234.0
529,1437146249561,231.0
530,1437146249570,228.0
531,1437146249590,228.0
532,1437146249612,226.0
533,1437146249634,226.0
534,1437146249653,223.0
535,1437146249671,223.0
536,1437146249691,219.0
537,1437146249711,219.0
538,1437146249732,216.0
539,1437146249753,216.0
540,1437146249770,214.0
541,1437146249790,214.0
542,1437146249826,213.0
543,1437146249832,213.0
544,1437146249850,212.0
545,1437146249870,212.0
546,1437146249891,212.0
547,1437146249922,210.0
548,1437146249930,210.0
549,1437146249950,210.0
550,1437146249970,210.0
551,1437146249990,209.0
552,1437146250010,209.0
553,1437146250030,209.0
554,1437146250050,209.0
555,1437146250070,209.0
556,1437146250090,209.0
557,1437146250110,209.0
558,1437146250130,209.0
559,1437146250150,210.0
560,1437146250170,210.0
561,1437146250191,210.0
562,1437146250212,209.0
563,1437146250232,209.0
564,1437146250252,209.0
565,1437146250272,209.0
566,1437146250292,209.0
567,1437146250313,209.0
568,1437146250333,209.0
569,1437146250352,209.0
570,1437146250372,209.0
571,1437146250392,209.0
572,1437146250417,209.0
573,1437146250441,209.0
574,1437146250457,209.0
575,1437146250476,209.0
576,1437146250491,209.0
577,1437146250513,209.0
578,1437146250532,209.0
579,1437146250551,210.0
580,1437146250573,210.0
581,1437146250596,210.0
582,1437146250611,210.0
583,1437146250634,210.0
584,1437146250653,210.0
585,1437146250675,211.0
586,1437146250694,211.0
587,1437146250713,211.0
588,1437146250731,212.0
589,1437146250754,212.0
590,1437146250776,211.0
591,1437146250793,211.0
592,1437146250812,210.0
593,1437146250834,210.0
594,1437146250855,209.0
595,1437146250877,209.0
596,1437146250892,209.0
597,1437146250914,209.0
598,1437146250934,208.0
599,1437146250954,208.0
600,1437146250974,207.0
601,1437146250996,207.0
602,1437146251014,206.0
603,1437146251034,205.0
604,1437146251053,205.0
605,1437146251073,204.0
606,1437146251148,204.0
607,1437146251163,204.0
608,1437146251164,204.0
609,1437146251165,204.0
610,1437146251196,204.0
611,1437146251197,203.0
612,1437146251226,203.0
613,1437146251241,203.0
614,1437146251253,203.0
615,1437146251285,204.0
616,1437146251320,204.0
617,1437146251321,205.0
618,1437146251334,205.0
619,1437146251353,205.0
620,1437146251373,205.0
621,1437146251393,205.0
622,1437146251413,205.0
623,1437146251434,205.0
624,1437146251456,205.0
625,1437146251476,205.0
626,1437146251495,204.0
627,1437146251513,204.0
628,1437146251534,203.0
629,1437146251554,203.0
630,1437146251573,202.0
631,1437146251594,202.0
632,1437146251613,200.0
633,1437146251637,199.0
634,1437146251655,199.0
635,1437146251675,198.0
636,1437146251694,198.0
637,1437146251715,196.0
638,1437146251734,196.0
639,1437146251755,195.0
640,1437146251775,195.0
641,1437146251796,194.0
642,1437146251814,194.0
643,1437146251834,195.0
644,1437146251853,195.0
645,1437146251883,196.0
646,1437146251898,195.0
647,1437146251916,195.0
648,1437146251932,194.0
649,1437146251955,194.0
650,1437146251975,193.0
651,1437146251994,193.0
652,1437146252013,193.0
653,1437146252034,193.0
654,1437146252054,193.0
655,1437146252076,193.0
656,1437146252094,192.0
657,1437146252113,192.0
658,1437146252135,190.0
659,1437146252182,190.0
660,1437146252183,188.0
661,1437146252195,186.0
662,1437146252213,186.0
663,1437146252249,185.0
664,1437146252254,185.0
665,1437146252274,184.0
666,1437146252294,184.0
667,1437146252315,184.0
668,1437146252334,184.0
669,1437146252356,185.0
670,1437146252381,185.0
671,1437146252396,185.0
672,1437146252415,185.0
673,1437146252438,186.0
674,1437146252454,186.0
675,1437146252474,186.0
676,1437146252495,184.0
677,1437146252519,184.0
678,1437146252659,183.0
679,1437146252660,183.0
680,1437146252661,182.0
681,1437146252662,182.0
682,1437146252663,181.0
683,1437146252664,181.0
684,1437146252665,181.0
685,1437146252675,181.0
686,1437146252694,180.0
687,1437146252714,180.0
688,1437146252734,178.0
689,1437146252769,178.0
690,1437146252774,177.0
691,1437146252797,177.0
692,1437146252816,177.0
693,1437146252838,176.0
694,1437146252857,176.0
695,1437146252877,176.0
696,1437146252898,176.0
697,1437146252916,175.0
698,1437146252938,175.0
699,1437146252956,175.0
700,1437146252977,175.0
701,1437146252998,176.0
702,1437146253020,176.0
703,1437146253035,177.0
704,1437146253054,177.0
705,1437146253075,176.0
706,1437146253095,175.0
707,1437146253114,175.0
708,1437146253137,174.0
709,1437146253161,174.0
710,1437146253177,174.0
711,1437146253198,174.0
712,1437146253216,173.0
713,1437146253237,173.0
714,1437146253256,173.0
715,1437146253278,173.0
716,1437146253297,173.0
717,1437146253377,173.0
718,1437146253378,172.0
719,1437146253379,172.0
720,1437146253380,172.0
721,1437146253395,171.0
722,1437146253418,171.0
723,1437146253435,170.0
724,1437146253455,170.0
725,1437146253481,170.0
726,1437146253496,170.0
727,1437146253517,169.0
728,1437146253540,169.0
729,1437146253556,169.0
730,1437146253578,169.0
731,1437146253598,169.0
732,1437146253618,169.0
733,1437146253641,169.0
734,1437146253659,169.0
735,1437146253677,169.0
736,1437146253698,169.0
737,1437146253719,169.0
738,1437146253742,169.0
739,1437146253760,169.0
740,1437146253777,169.0
741,1437146253798,169.0
742,1437146253818,169.0
743,1437146253839,169.0
744,1437146253858,169.0
745,1437146253879,169.0
746,1437146253899,170.0
747,1437146253919,170.0
748,1437146253939,171.0
749,1437146253959,172.0
750,1437146253980,172.0
751,1437146254000,172.0
752,1437146254019,172.0
753,1437146254040,173.0
754,1437146254118,173.0
755,1437146254119,175.0
756,1437146254120,175.0
757,1437146254121,178.0
758,1437146254142,178.0
759,1437146254164,182.0
760,1437146254179,182.0
761,1437146254196,184.0
762,1437146254216,184.0
763,1437146254239,186.0
764,1437146254261,188.0
765,1437146254276,188.0
766,1437146254296,189.0
767,1437146254319,189.0
768,1437146254341,189.0
769,1437146254359,189.0
770,1437146254378,189.0
771,1437146254397,189.0
772,1437146254419,189.0
773,1437146254439,189.0
774,1437146254459,190.0
775,1437146254478,190.0
776,1437146254499,190.0
777,1437146254519,190.0
778,1437146254539,190.0
779,1437146254557,191.0
780,1437146254579,191.0
781,1437146254606,193.0
782,1437146254622,193.0
783,1437146254639,195.0
784,1437146254658,195.0
785,1437146254676,196.0
786,1437146254696,196.0
787,1437146254717,195.0
788,1437146254737,195.0
789,1437146254759,194.0
790,1437146254778,194.0
791,1437146254857,194.0
792,1437146254858,193.0
793,1437146254859,193.0
794,1437146254860,191.0
795,1437146254878,191.0
796,1437146254899,188.0
797,1437146254916,188.0
798,1437146254941,186.0
799,1437146254969,186.0
800,1437146254977,185.0
801,1437146254998,185.0
802,1437146255019,185.0
803,1437146255042,185.0
804,1437146255058,187.0
805,1437146255079,187.0
806,1437146255100,189.0
807,1437146255120,191.0
808,1437146255139,191.0
809,1437146255160,193.0
810,1437146255180,193.0
811,1437146255200,194.0
812,1437146255219,194.0
813,1437146255238,195.0
814,1437146255260,195.0
815,1437146255280,195.0
816,1437146255299,195.0
817,1437146255319,194.0
818,1437146255339,194.0
819,1437146255360,194.0
820,1437146255380,194.0
821,1437146255401,193.0
822,1437146255418,193.0
823,1437146255439,193.0
824,1437146255459,192.0
825,1437146255477,192.0
826,1437146255499,192.0
827,1437146255519,192.0
828,1437146255659,191.0
829,1437146255660,191.0
830,1437146255661,191.0
831,1437146255662,191.0
832,1437146255663,191.0
833,1437146255664,191.0
834,1437146255665,191.0
835,1437146255678,191.0
836,1437146255701,192.0
