id,attr_time,attr_light
1,1437146239030,0.0
2,1437146239031,0.0
3,1437146239040,0.0
4,1437146239060,0.0
5,1437146239080,0.0
6,1437146239100,0.0
7,1437146239125,0.0
8,1437146239140,0.0
9,1437146239163,0.0
10,1437146239182,0.0
11,1437146239200,0.0
12,1437146239225,0.0
13,1437146239240,0.0
14,1437146239260,0.0
15,1437146239280,0.0
16,1437146239300,0.0
17,1437146239326,0.0
18,1437146239341,0.0
19,1437146239365,0.0
20,1437146239383,0.0
21,1437146239401,0.0
22,1437146239427,0.0
23,1437146239442,0.0
24,1437146239463,0.0
25,1437146239482,0.0
26,1437146239530,0.0
27,1437146239531,0.0
28,1437146239540,0.0
29,1437146239562,0.0
30,1437146239580,0.0
31,1437146239602,0.0
32,1437146239620,0.0
33,1437146239643,0.0
34,1437146239663,0.0
35,1437146239688,0.0
36,1437146239702,0.0
37,1437146239721,0.0
38,1437146239741,0.0
39,1437146239761,0.0
40,1437146239781,0.0
41,1437146239802,0.0
42,1437146239822,0.0
43,1437146239849,0.0
44,1437146239862,0.0
45,1437146239884,0.0
46,1437146239901,0.0
47,1437146239921,0.0
48,1437146239942,0.0
49,1437146240002,0.0
50,1437146240003,0.0
51,1437146240004,0.0
52,1437146240047,0.0
53,1437146240048,0.0
54,1437146240061,0.0
55,1437146240297,0.0
56,1437146240298,0.0
57,1437146240299,0.0
58,1437146240300,0.0
59,1437146240301,0.0
60,1437146240302,0.0
61,1437146240303,0.0
62,1437146240304,0.0
63,1437146240305,0.0
64,1437146240306,0.0
65,1437146240307,0.0
66,1437146240308,0.0
67,1437146240413,0.0
68,1437146240414,0.0
69,1437146240415,0.0
70,1437146240416,0.0
71,1437146240417,0.0
72,1437146240420,0.0
73,1437146240440,0.0
74,1437146240460,0.0
75,1437146240480,0.0
76,1437146240500,0.0
77,1437146240520,0.0
78,1437146240540,0.0
79,1437146240560,0.0
80,1437146240580,0.0
81,1437146240600,0.0
82,1437146240620,0.0
83,1437146240640,0.0
84,1437146240660,0.0
85,1437146240680,0.0
86,1437146240700,0.0
87,1437146240720,0.0
88,1437146240745,0.0
89,1437146240761,0.0
90,1437146240785,0.0
91,1437146240804,0.0
92,1437146240821,0.0
93,1437146240844,0.0
94,1437146240862,0.0
95,1437146240885,0.0
96,1437146240904,0.0
97,1437146240925,0.0
98,1437146240943,0.0
99,1437146240962,0.0
100,1437146240982,0.0
101,1437146241002,0.0
102,1437146241025,0.0
103,1437146241042,0.0
104,1437146241062,0.0
105,1437146241084,0.0
106,1437146241104,0.0
107,1437146241128,0.0
108,1437146241148,0.0
109,1437146241165,0.0
110,1437146241182,0.0
111,1437146241203,0.0
112,1437146241222,0.0
113,1437146241245,0.0
114,1437146241262,0.0
115,1437146241295,0.0
116,1437146241307,0.0
117,1437146241330,0.0
118,1437146241345,0.0
119,1437146241363,0.0
120,1437146241384,0.0
121,1437146241403,0.0
122,1437146241421,0.0
123,1437146241442,0.0
124,1437146241462,0.0
125,1437146241486,0.0
126,1437146241502,0.0
127,1437146241526,0.0
128,1437146241549,0.0
129,1437146241564,0.0
130,1437146241585,0.0
131,1437146241605,0.0
132,1437146241623,0.0
133,1437146241647,0.0
134,1437146241668,0.0
135,1437146241688,0.0
136,1437146241705,0.0
137,1437146241755,0.0
138,1437146241756,0.0
139,1437146241908,0.0
140,1437146241909,0.0
141,1437146241910,0.0
142,1437146241911,0.0
143,1437146241912,0.0
144,1437146241913,0.0
145,1437146241914,1.0
146,1437146241915,1.0
147,1437146241930,0.0
148,1437146242013,0.0
149,1437146242018,0.0
150,1437146242019,0.0
151,1437146242020,0.0
152,1437146242053,0.0
153,1437146242054,0.0
154,1437146242062,0.0
155,1437146242082,0.0
156,1437146242102,0.0
157,1437146242122,0.0
158,1437146242145,0.0
159,1437146242166,0.0
160,1437146242183,0.0
161,1437146242203,0.0
162,1437146242225,0.0
163,1437146242244,0.0
164,1437146242264,0.0
165,1437146242285,0.0
166,1437146242304,0.0
167,1437146242339,0.0
168,1437146242346,0.0
169,1437146242364,0.0
170,1437146242385,0.0
171,1437146242404,0.0
172,1437146242425,0.0
173,1437146242444,0.0
174,1437146242463,0.0
175,1437146242484,0.0
176,1437146242506,0.0
177,1437146242528,0.0
178,1437146242549,0.0
179,1437146242565,0.0
180,1437146242587,0.0
181,1437146242605,0.0
182,1437146242625,0.0
183,1437146242643,0.0
184,1437146242669,0.0
185,1437146242689,0.0
186,1437146242838,0.0
187,1437146242839,0.0
188,1437146242840,0.0
189,1437146242841,0.0
190,1437146242842,0.0
191,1437146242843,0.0
192,1437146242844,0.0
193,1437146242883,0.0
194,1437146242884,0.0
195,1437146242885,0.0
196,1437146242903,0.0
197,1437146242926,0.0
198,1437146242946,0.0
199,1437146242965,0.0
200,1437146242986,0.0
201,1437146243008,0.0
202,1437146243023,0.0
203,1437146243045,0.0
204,1437146243065,0.0
205,1437146243087,0.0
206,1437146243107,0.0
207,1437146243127,0.0
208,1437146243147,0.0
209,1437146243165,0.0
210,1437146243185,0.0
211,1437146243205,0.0
212,1437146243226,0.0
213,1437146243244,0.0
214,1437146243290,0.0
215,1437146243291,0.0
216,1437146243304,0.0
217,1437146243324,0.0
218,1437146243345,0.0
219,1437146243365,0.0
220,1437146243385,0.0
221,1437146243405,0.0
222,1437146243427,0.0
223,1437146243445,0.0
224,1437146243465,0.0
225,1437146243487,0.0
226,1437146243504,0.0
227,1437146243525,0.0
228,1437146243545,0.0
229,1437146243568,0.0
230,1437146243590,0.0
231,1437146243610,0.0
232,1437146243630,0.0
233,1437146243648,0.0
234,1437146243664,0.0
235,1437146243685,0.0
236,1437146243704,0.0
237,1437146243811,0.0
238,1437146243812,0.0
239,1437146243813,0.0
240,1437146243819,0.0
241,1437146243820,0.0
242,1437146243874,0.0
243,1437146243875,0.0
244,1437146243876,0.0
245,1437146243886,0.0
246,1437146243914,0.0
247,1437146243925,0.0
248,1437146243946,0.0
249,1437146243966,0.0
250,1437146243988,0.0
251,1437146244007,0.0
252,1437146244025,0.0
253,1437146244050,0.0
254,1437146244069,0.0
255,1437146244088,0.0
256,1437146244105,0.0
257,1437146244125,0.0
258,1437146244146,0.0
259,1437146244171,0.0
260,1437146244191,0.0
261,1437146244211,0.0
262,1437146244228,0.0
263,1437146244249,0.0
264,1437146244299,0.0
265,1437146244300,0.0
266,1437146244310,0.0
267,1437146244332,0.0
268,1437146244346,0.0
269,1437146244380,0.0
270,1437146244385,0.0
271,1437146244411,0.0
272,1437146244425,0.0
273,1437146244447,0.0
274,1437146244467,0.0
275,1437146244488,0.0
276,1437146244505,0.0
277,1437146244525,0.0
278,1437146244546,0.0
279,1437146244565,0.0
280,1437146244591,0.0
281,1437146244611,0.0
282,1437146244628,0.0
283,1437146244646,0.0
284,1437146244667,0.0
285,1437146244686,0.0
286,1437146244706,0.0
287,1437146244810,0.0
288,1437146244811,0.0
289,1437146244812,0.0
290,1437146244813,0.0
291,1437146244814,0.0
292,1437146244928,0.0
293,1437146244929,0.0
294,1437146244930,0.0
295,1437146244931,0.0
296,1437146244932,0.0
297,1437146244933,0.0
298,1437146245007,0.0
299,1437146245008,0.0
300,1437146245009,0.0
301,1437146245010,0.0
302,1437146245028,0.0
303,1437146245046,0.0
304,1437146245065,0.0
305,1437146245085,0.0
306,1437146245105,0.0
307,1437146245126,0.0
308,1437146245146,0.0
309,1437146245167,0.0
310,1437146245187,0.0
311,1437146245208,0.0
312,1437146245225,0.0
313,1437146245288,0.0
314,1437146245289,0.0
315,1437146245290,0.0
316,1437146245305,0.0
317,1437146245326,0.0
318,1437146245346,0.0
319,1437146245367,0.0
320,1437146245387,0.0
321,1437146245406,0.0
322,1437146245425,0.0
323,1437146245445,0.0
324,1437146245465,0.0
325,1437146245486,0.0
326,1437146245507,0.0
327,1437146245530,0.0
328,1437146245549,0.0
329,1437146245569,0.0
330,1437146245589,0.0
331,1437146245610,0.0
332,1437146245630,0.0
333,1437146245650,0.0
334,1437146245667,0.0
335,1437146245692,0.0
336,1437146245728,0.0
337,1437146245729,0.0
338,1437146245758,0.0
339,1437146245766,0.0
340,1437146245787,0.0
341,1437146245807,0.0
342,1437146245829,0.0
343,1437146245847,0.0
344,1437146245866,0.0
345,1437146245890,0.0
346,1437146245909,0.0
347,1437146245931,0.0
348,1437146245950,0.0
349,1437146245970,0.0
350,1437146245990,0.0
351,1437146246007,0.0
352,1437146246029,0.0
353,1437146246050,0.0
354,1437146246070,0.0
355,1437146246091,0.0
356,1437146246108,0.0
357,1437146246134,0.0
358,1437146246190,0.0
359,1437146246199,0.0
360,1437146246201,0.0
361,1437146246228,0.0
362,1437146246229,0.0
363,1437146246247,0.0
364,1437146246276,0.0
365,1437146246288,0.0
366,1437146246308,0.0
367,1437146246327,0.0
368,1437146246350,0.0
369,1437146246369,0.0
370,1437146246392,0.0
371,1437146246408,0.0
372,1437146246431,0.0
373,1437146246450,0.0
374,1437146246468,0.0
375,1437146246487,0.0
376,1437146246508,0.0
377,1437146246531,0.0
378,1437146246553,0.0
379,1437146246572,0.0
380,1437146246589,0.0
381,1437146246612,0.0
382,1437146246679,0.0
383,1437146246680,0.0
384,1437146246681,0.0
385,1437146246700,0.0
386,1437146246715,0.0
387,1437146246728,0.0
388,1437146246758,0.0
389,1437146246768,0.0
390,1437146246787,0.0
391,1437146246808,0.0
392,1437146246830,0.0
393,1437146246851,0.0
394,1437146246873,0.0
395,1437146246890,0.0
396,1437146246909,0.0
397,1437146246927,0.0
398,1437146246950,0.0
399,1437146246971,0.0
400,1437146246991,0.0
401,1437146247011,0.0
402,1437146247030,0.0
403,1437146247050,0.0
404,1437146247070,0.0
405,1437146247093,0.0
406,1437146247158,0.0
407,1437146247159,0.0
408,1437146247160,0.0
409,1437146247180,0.0
410,1437146247190,0.0
411,1437146247208,0.0
412,1437146247237,0.0
413,1437146247248,0.0
414,1437146247269,0.0
415,1437146247289,0.0
416,1437146247309,0.0
417,1437146247330,0.0
418,1437146247349,0.0
419,1437146247370,0.0
420,1437146247390,0.0
421,1437146247408,0.0
422,1437146247432,0.0
423,1437146247452,0.0
424,1437146247472,0.0
425,1437146247491,0.0
426,1437146247510,0.0
427,1437146247528,0.0
428,1437146247549,0.0
429,1437146247570,0.0
430,1437146247590,0.0
431,1437146247652,0.0
432,1437146247653,0.0
433,1437146247654,0.0
434,1437146247672,0.0
435,1437146247690,0.0
436,1437146247720,0.0
437,1437146247728,0.0
438,1437146247750,0.0
439,1437146247769,0.0
440,1437146247790,0.0
441,1437146247808,0.0
442,1437146247828,0.0
443,1437146247848,0.0
444,1437146247869,0.0
445,1437146247890,0.0
446,1437146247910,0.0
447,1437146247931,0.0
448,1437146247951,0.0
449,1437146247970,0.0
450,1437146247992,0.0
451,1437146248008,0.0
452,1437146248029,0.0
453,1437146248048,0.0
454,1437146248070,0.0
455,1437146248131,0.0
456,1437146248132,0.0
457,1437146248133,0.0
458,1437146248175,0.0
459,1437146248176,0.0
460,1437146248197,0.0
461,1437146248220,0.0
462,1437146248228,0.0
463,1437146248250,0.0
464,1437146248274,0.0
465,1437146248291,0.0
466,1437146248312,0.0
467,1437146248332,0.0
468,1437146248349,0.0
469,1437146248369,0.0
470,1437146248388,0.0
471,1437146248412,0.0
472,1437146248432,0.0
473,1437146248450,0.0
474,1437146248473,0.0
475,1437146248490,0.0
476,1437146248510,0.0
477,1437146248530,0.0
478,1437146248549,0.0
479,1437146248575,0.0
480,1437146248634,0.0
481,1437146248643,0.0
482,1437146248644,0.0
483,1437146248671,0.0
484,1437146248672,0.0
485,1437146248690,0.0
486,1437146248719,0.0
487,1437146248730,0.0
488,1437146248752,0.0
489,1437146248771,0.0
490,1437146248791,0.0
491,1437146248811,0.0
492,1437146248832,0.0
493,1437146248850,0.0
494,1437146248869,0.0
495,1437146248890,0.0
496,1437146248910,0.0
497,1437146248935,0.0
498,1437146248950,0.0
499,1437146248973,0.0
500,1437146248990,0.0
501,1437146249009,0.0
502,1437146249029,0.0
503,1437146249050,0.0
504,1437146249073,0.0
505,1437146249124,0.0
506,1437146249125,0.0
507,1437146249131,0.0
508,1437146249150,0.0
509,1437146249173,0.0
510,1437146249191,0.0
511,1437146249209,0.0
512,1437146249232,0.0
513,1437146249250,0.0
514,1437146249277,0.0
515,1437146249291,0.0
516,1437146249312,0.0
517,1437146249333,0.0
518,1437146249351,0.0
519,1437146249370,0.0
520,1437146249390,0.0
521,1437146249410,0.0
522,1437146249430,0.0
523,1437146249450,0.0
524,1437146249473,0.0
525,1437146249490,0.0
526,1437146249510,0.0
527,1437146249530,0.0
528,1437146249553,0.0
529,1437146249571,0.0
530,1437146249620,0.0
531,1437146249631,0.0
532,1437146249632,0.0
533,1437146249653,0.0
534,1437146249696,0.0
535,1437146249697,0.0
536,1437146249712,0.0
537,1437146249732,0.0
538,1437146249753,0.0
539,1437146249771,0.0
540,1437146249793,0.0
541,1437146249813,0.0
542,1437146249831,0.0
543,1437146249850,0.0
544,1437146249870,0.0
545,1437146249892,0.0
546,1437146249916,0.0
547,1437146249933,0.0
548,1437146249953,0.0
549,1437146249970,0.0
550,1437146249990,0.0
551,1437146250010,0.0
552,1437146250033,0.0
553,1437146250052,0.0
554,1437146250101,0.0
555,1437146250102,0.0
556,1437146250114,0.0
557,1437146250144,0.0
558,1437146250155,0.0
559,1437146250170,0.0
560,1437146250198,0.0
561,1437146250214,0.0
562,1437146250233,0.0
563,1437146250251,0.0
564,1437146250274,0.0
565,1437146250294,0.0
566,1437146250312,0.0
567,1437146250336,0.0
568,1437146250358,0.0
569,1437146250373,0.0
570,1437146250391,0.0
571,1437146250410,0.0
572,1437146250430,0.0
573,1437146250453,0.0
574,1437146250472,0.0
575,1437146250490,0.0
576,1437146250511,0.0
577,1437146250538,0.0
578,1437146250605,0.0
579,1437146250606,0.0
580,1437146250607,0.0
581,1437146250683,0.0
582,1437146250684,0.0
583,1437146250685,0.0
584,1437146250686,0.0
585,1437146250742,0.0
586,1437146250743,0.0
587,1437146250744,0.0
588,1437146250752,0.0
589,1437146250771,0.0
590,1437146250794,0.0
591,1437146250811,0.0
592,1437146250833,0.0
593,1437146250853,0.0
594,1437146250875,0.0
595,1437146250904,0.0
596,1437146250911,0.0
597,1437146250931,0.0
598,1437146250951,0.0
599,1437146250974,0.0
600,1437146250994,0.0
601,1437146251015,0.0
602,1437146251032,0.0
603,1437146251051,0.0
604,1437146251076,0.0
605,1437146251100,0.0
606,1437146251110,0.0
607,1437146251130,0.0
608,1437146251150,0.0
609,1437146251170,0.0
610,1437146251193,0.0
611,1437146251215,0.0
612,1437146251233,0.0
613,1437146251253,0.0
614,1437146251272,0.0
615,1437146251291,0.0
616,1437146251313,0.0
617,1437146251336,0.0
618,1437146251355,0.0
619,1437146251373,0.0
620,1437146251393,0.0
621,1437146251411,0.0
622,1437146251436,0.0
623,1437146251464,0.0
624,1437146251473,0.0
625,1437146251491,0.0
626,1437146251513,0.0
627,1437146251535,0.0
628,1437146251551,0.0
629,1437146251572,0.0
630,1437146251595,0.0
631,1437146251615,0.0
632,1437146251633,0.0
633,1437146251653,0.0
634,1437146251671,0.0
635,1437146251695,0.0
636,1437146251716,0.0
637,1437146251736,0.0
638,1437146251755,0.0
639,1437146251774,0.0
640,1437146251794,0.0
641,1437146251813,0.0
642,1437146251835,0.0
643,1437146251852,0.0
644,1437146251883,0.0
645,1437146251892,0.0
646,1437146251917,0.0
647,1437146251931,0.0
648,1437146251955,0.0
649,1437146251976,0.0
650,1437146251991,0.0
651,1437146252013,0.0
652,1437146252035,0.0
653,1437146252053,0.0
654,1437146252073,0.0
655,1437146252091,0.0
656,1437146252118,0.0
657,1437146252136,0.0
658,1437146252155,0.0
659,1437146252174,0.0
660,1437146252195,0.0
661,1437146252215,0.0
662,1437146252236,0.0
663,1437146252254,0.0
664,1437146252280,0.0
665,1437146252343,0.0
666,1437146252344,0.0
667,1437146252345,0.0
668,1437146252373,0.0
669,1437146252374,0.0
670,1437146252394,0.0
671,1437146252422,0.0
672,1437146252433,0.0
673,1437146252455,0.0
674,1437146252475,0.0
675,1437146252495,0.0
676,1437146252513,0.0
677,1437146252539,0.0
678,1437146252555,0.0
679,1437146252576,0.0
680,1437146252595,0.0
681,1437146252616,0.0
682,1437146252636,0.0
683,1437146252656,0.0
684,1437146252676,0.0
685,1437146252695,0.0
686,1437146252837,0.0
687,1437146252838,0.0
688,1437146252839,0.0
689,1437146252840,0.0
690,1437146252841,0.0
691,1437146252842,0.0
692,1437146252843,0.0
693,1437146252889,0.0
694,1437146252890,0.0
695,1437146252926,0.0
696,1437146252927,0.0
697,1437146252948,0.0
698,1437146252953,0.0
699,1437146252981,0.0
700,1437146252993,0.0
701,1437146253016,0.0
702,1437146253033,0.0
703,1437146253056,0.0
704,1437146253077,0.0
705,1437146253096,0.0
706,1437146253116,0.0
707,1437146253136,0.0
708,1437146253156,0.0
709,1437146253173,0.0
710,1437146253195,0.0
711,1437146253216,0.0
712,1437146253238,0.0
713,1437146253257,0.0
714,1437146253276,0.0
715,1437146253298,0.0
716,1437146253367,0.0
717,1437146253368,0.0
718,1437146253369,0.0
719,1437146253395,0.0
720,1437146253396,0.0
721,1437146253415,0.0
722,1437146253445,0.0
723,1437146253454,0.0
724,1437146253475,0.0
725,1437146253495,0.0
726,1437146253515,0.0
727,1437146253536,0.0
728,1437146253557,0.0
729,1437146253576,0.0
730,1437146253596,0.0
731,1437146253616,0.0
732,1437146253636,0.0
733,1437146253656,0.0
734,1437146253675,0.0
735,1437146253696,0.0
736,1437146253717,0.0
737,1437146253738,0.0
738,1437146253756,0.0
739,1437146253862,0.0
740,1437146253863,0.0
741,1437146253864,0.0
742,1437146253865,0.0
743,1437146253866,0.0
744,1437146253880,0.0
745,1437146253894,0.0
746,1437146253914,0.0
747,1437146253934,0.0
748,1437146253959,0.0
749,1437146253977,0.0
750,1437146253997,0.0
751,1437146254017,0.0
752,1437146254036,0.0
753,1437146254054,0.0
754,1437146254075,0.0
755,1437146254094,0.0
756,1437146254114,0.0
757,1437146254140,0.0
758,1437146254160,0.0
759,1437146254177,0.0
760,1437146254196,0.0
761,1437146254214,0.0
762,1437146254234,0.0
763,1437146254255,0.0
764,1437146254275,0.0
765,1437146254298,0.0
766,1437146254347,0.0
767,1437146254348,0.0
768,1437146254361,0.0
769,1437146254378,0.0
770,1437146254394,0.0
771,1437146254414,0.0
772,1437146254438,0.0
773,1437146254455,0.0
774,1437146254475,0.0
775,1437146254495,0.0
776,1437146254516,0.0
777,1437146254537,0.0
778,1437146254555,0.0
779,1437146254577,0.0
780,1437146254597,0.0
781,1437146254617,0.0
782,1437146254637,0.0
783,1437146254659,0.0
784,1437146254679,0.0
785,1437146254698,0.0
786,1437146254716,0.0
787,1437146254737,0.0
788,1437146254757,0.0
789,1437146254861,0.0
790,1437146254862,0.0
791,1437146254863,0.0
792,1437146254864,0.0
793,1437146254865,0.0
794,1437146254903,0.0
795,1437146254904,0.0
796,1437146254915,0.0
797,1437146254942,0.0
798,1437146254955,0.0
799,1437146254980,0.0
800,1437146254996,0.0
801,1437146255017,0.0
802,1437146255040,0.0
803,1437146255055,0.0
804,1437146255075,0.0
805,1437146255095,0.0
806,1437146255120,0.0
807,1437146255142,0.0
808,1437146255161,0.0
809,1437146255178,0.0
810,1437146255195,0.0
811,1437146255216,0.0
812,1437146255235,0.0
813,1437146255256,0.0
814,1437146255276,0.0
815,1437146255321,0.0
816,1437146255322,0.0
817,1437146255341,0.0
818,1437146255362,0.0
819,1437146255375,0.0
820,1437146255395,0.0
821,1437146255420,0.0
822,1437146255436,0.0
823,1437146255459,0.0
824,1437146255476,0.0
825,1437146255496,0.0
826,1437146255517,0.0
827,1437146255535,0.0
828,1437146255557,0.0
829,1437146255576,0.0
830,1437146255595,0.0
831,1437146255621,0.0
832,1437146255638,0.0
833,1437146255657,0.0
834,1437146255679,0.0
835,1437146255697,0.0
836,1437146255716,0.0
837,1437146255740,0.0
838,1437146255757,0.0
839,1437146255861,0.0
840,1437146255862,0.0
841,1437146255863,0.0
842,1437146255864,0.0
843,1437146255865,0.0
844,1437146255899,0.0
845,1437146255900,0.0
846,1437146255916,0.0
847,1437146255936,0.0
848,1437146255959,0.0
849,1437146255979,0.0
850,1437146255997,0.0
851,1437146256016,0.0
852,1437146256037,0.0
853,1437146256061,0.0
854,1437146256093,0.0
855,1437146256099,0.0
856,1437146256116,0.0
857,1437146256136,0.0
858,1437146256156,0.0
859,1437146256176,0.0
860,1437146256199,0.0
861,1437146256220,0.0
862,1437146256240,0.0
863,1437146256258,0.0
864,1437146256279,0.0
865,1437146256343,0.0
866,1437146256344,0.0
867,1437146256345,0.0
868,1437146256367,0.0
869,1437146256379,0.0
870,1437146256396,0.0
871,1437146256418,0.0
872,1437146256437,0.0
873,1437146256463,0.0
874,1437146256478,0.0
875,1437146256497,0.0
876,1437146256519,0.0
877,1437146256537,0.0
878,1437146256556,0.0
879,1437146256577,0.0
880,1437146256602,0.0
881,1437146256622,0.0
882,1437146256642,0.0
883,1437146256659,0.0
884,1437146256704,0.0
885,1437146256705,0.0
886,1437146256717,0.0
887,1437146256748,0.0
888,1437146256820,0.0
889,1437146256821,0.0
890,1437146256822,0.0
891,1437146256823,0.0
892,1437146256891,0.0
893,1437146256892,0.0
894,1437146256893,0.0
895,1437146256929,0.0
896,1437146256930,0.0
897,1437146256937,0.0
898,1437146256963,0.0
899,1437146256977,0.0
900,1437146256997,0.0
901,1437146257019,0.0
902,1437146257038,0.0
903,1437146257060,0.0
904,1437146257078,0.0
905,1437146257097,0.0
906,1437146257117,0.0
907,1437146257140,0.0
908,1437146257163,0.0
909,1437146257183,0.0
910,1437146257200,0.0
911,1437146257217,0.0
912,1437146257238,0.0
