id,attr_time,attr_light
1,1436372950617,41.0
2,1436372950637,41.0
3,1436372950657,41.0
4,1436372950677,41.0
5,1436372950697,41.0
6,1436372950717,41.0
7,1436372950737,41.0
8,1436372950795,41.0
9,1436372950796,42.0
10,1436372950797,42.0
11,1436372950817,42.0
12,1436372950837,42.0
13,1436372950857,42.0
14,1436372950877,42.0
15,1436372950897,42.0
16,1436372950917,42.0
17,1436372950937,42.0
18,1436372950957,42.0
19,1436372950978,42.0
20,1436372950999,43.0
21,1436372951021,43.0
22,1436372951038,43.0
23,1436372951059,43.0
24,1436372951077,43.0
25,1436372951099,44.0
26,1436372951117,44.0
27,1436372951139,44.0
28,1436372951162,44.0
29,1436372951180,44.0
30,1436372951199,44.0
31,1436372951219,45.0
32,1436372951242,45.0
33,1436372951266,45.0
34,1436372951277,45.0
35,1436372951298,46.0
36,1436372951317,46.0
37,1436372951338,46.0
38,1436372951359,46.0
39,1436372951378,46.0
40,1436372951399,46.0
41,1436372951421,46.0
42,1436372951441,46.0
43,1436372951459,46.0
44,1436372951478,46.0
45,1436372951500,46.0
46,1436372951521,46.0
47,1436372951542,47.0
48,1436372951562,47.0
49,1436372951581,47.0
50,1436372951600,47.0
51,1436372951619,47.0
52,1436372951640,47.0
53,1436372951659,47.0
54,1436372951680,47.0
55,1436372951702,47.0
56,1436372951718,47.0
57,1436372951738,47.0
58,1436372951760,47.0
59,1436372951780,47.0
60,1436372951798,47.0
61,1436372951819,47.0
62,1436372951839,47.0
63,1436372951859,47.0
64,1436372951879,46.0
65,1436372951901,46.0
66,1436372951919,46.0
67,1436372951941,45.0
68,1436372951962,45.0
69,1436372951983,45.0
70,1436372952001,45.0
71,1436372952020,45.0
72,1436372952040,45.0
73,1436372952062,44.0
74,1436372952181,44.0
75,1436372952182,44.0
76,1436372952183,43.0
77,1436372952184,43.0
78,1436372952185,42.0
79,1436372952186,42.0
80,1436372952227,42.0
81,1436372952228,42.0
82,1436372952445,41.0
83,1436372952446,41.0
84,1436372952447,41.0
85,1436372952448,41.0
86,1436372952449,41.0
87,1436372952450,40.0
88,1436372952451,40.0
89,1436372952452,40.0
90,1436372952453,40.0
91,1436372952454,39.0
92,1436372952455,39.0
93,1436372952461,39.0
94,1436372952505,39.0
95,1436372952506,39.0
96,1436372952522,39.0
97,1436372952543,39.0
98,1436372952560,39.0
99,1436372952584,39.0
100,1436372952630,39.0
101,1436372952631,39.0
102,1436372952650,39.0
103,1436372952669,39.0
104,1436372952685,38.0
105,1436372952701,38.0
106,1436372952722,38.0
107,1436372952742,38.0
108,1436372952762,38.0
109,1436372952782,38.0
110,1436372952803,38.0
111,1436372952824,39.0
112,1436372952840,39.0
113,1436372952861,39.0
114,1436372952879,39.0
115,1436372952900,39.0
116,1436372952921,39.0
117,1436372952940,39.0
118,1436372952960,39.0
119,1436372952980,39.0
120,1436372953001,39.0
121,1436372953022,39.0
122,1436372953040,39.0
123,1436372953060,39.0
124,1436372953082,39.0
125,1436372953113,39.0
126,1436372953124,39.0
127,1436372953145,39.0
128,1436372953159,39.0
129,1436372953181,40.0
130,1436372953200,40.0
131,1436372953221,41.0
132,1436372953240,41.0
133,1436372953259,41.0
134,1436372953283,41.0
135,1436372953302,41.0
136,1436372953321,41.0
137,1436372953340,41.0
138,1436372953360,41.0
139,1436372953381,41.0
140,1436372953402,41.0
141,1436372953420,41.0
142,1436372953447,41.0
143,1436372953468,41.0
144,1436372953488,41.0
145,1436372953502,41.0
146,1436372953527,41.0
147,1436372953573,40.0
148,1436372953574,40.0
149,1436372953582,40.0
150,1436372953604,40.0
151,1436372953624,41.0
152,1436372953641,41.0
153,1436372953661,41.0
154,1436372953682,41.0
155,1436372953724,41.0
156,1436372953725,41.0
157,1436372953742,41.0
158,1436372953762,41.0
159,1436372953784,41.0
160,1436372953802,41.0
161,1436372953821,41.0
162,1436372953844,41.0
163,1436372953866,41.0
164,1436372953882,41.0
165,1436372953901,41.0
166,1436372953921,42.0
167,1436372953941,42.0
168,1436372953962,42.0
169,1436372953982,42.0
170,1436372954002,42.0
171,1436372954024,43.0
172,1436372954066,43.0
173,1436372954067,43.0
174,1436372954089,43.0
175,1436372954124,43.0
176,1436372954125,43.0
177,1436372954141,43.0
178,1436372954161,43.0
179,1436372954183,43.0
180,1436372954203,43.0
181,1436372954224,43.0
182,1436372954242,43.0
183,1436372954262,43.0
184,1436372954285,43.0
185,1436372954302,43.0
186,1436372954324,43.0
187,1436372954343,43.0
188,1436372954413,43.0
189,1436372954414,43.0
190,1436372954415,43.0
191,1436372954421,43.0
192,1436372954442,43.0
193,1436372954461,43.0
194,1436372954485,43.0
195,1436372954503,43.0
196,1436372954522,43.0
197,1436372954541,43.0
198,1436372954569,43.0
199,1436372954582,43.0
200,1436372954604,43.0
201,1436372954622,43.0
202,1436372954643,42.0
203,1436372954662,42.0
204,1436372954683,42.0
205,1436372954702,42.0
206,1436372954722,42.0
207,1436372954741,42.0
208,1436372954762,42.0
209,1436372954782,42.0
210,1436372954802,42.0
211,1436372954822,43.0
212,1436372954842,43.0
213,1436372954860,43.0
214,1436372954882,43.0
215,1436372954901,43.0
216,1436372954923,43.0
217,1436372954942,43.0
218,1436372954961,43.0
219,1436372954981,43.0
220,1436372955002,44.0
221,1436372955021,44.0
222,1436372955041,44.0
223,1436372955061,44.0
224,1436372955082,44.0
225,1436372955101,44.0
226,1436372955121,44.0
227,1436372955143,44.0
228,1436372955164,44.0
229,1436372955185,44.0
230,1436372955204,44.0
231,1436372955223,45.0
232,1436372955241,45.0
233,1436372955262,45.0
234,1436372955283,45.0
235,1436372955304,45.0
236,1436372955324,45.0
237,1436372955342,44.0
238,1436372955362,44.0
239,1436372955384,44.0
240,1436372955407,43.0
241,1436372955421,43.0
242,1436372955442,43.0
243,1436372955462,43.0
244,1436372955483,43.0
245,1436372955502,43.0
246,1436372955523,43.0
247,1436372955542,43.0
248,1436372955562,43.0
249,1436372955583,42.0
250,1436372955602,42.0
251,1436372955623,42.0
252,1436372955644,42.0
253,1436372955663,42.0
254,1436372955683,42.0
255,1436372955703,42.0
256,1436372955723,42.0
257,1436372955742,42.0
258,1436372955764,42.0
259,1436372955783,42.0
260,1436372955805,42.0
261,1436372955914,42.0
262,1436372955915,42.0
263,1436372955916,42.0
264,1436372955917,42.0
265,1436372955918,42.0
266,1436372955960,42.0
267,1436372955961,42.0
268,1436372955993,42.0
269,1436372955994,42.0
270,1436372956007,41.0
271,1436372956028,41.0
272,1436372956054,41.0
273,1436372956077,41.0
274,1436372956090,41.0
275,1436372956106,41.0
276,1436372956124,41.0
277,1436372956143,41.0
278,1436372956163,41.0
279,1436372956186,42.0
280,1436372956206,43.0
281,1436372956226,43.0
282,1436372956244,44.0
283,1436372956263,44.0
284,1436372956286,44.0
285,1436372956306,44.0
286,1436372956336,44.0
287,1436372956379,44.0
288,1436372956380,43.0
289,1436372956383,43.0
290,1436372956403,43.0
291,1436372956424,42.0
292,1436372956444,42.0
293,1436372956463,42.0
294,1436372956485,42.0
295,1436372956505,42.0
296,1436372956523,42.0
297,1436372956545,43.0
298,1436372956566,43.0
299,1436372956584,43.0
300,1436372956604,43.0
301,1436372956625,43.0
302,1436372956645,43.0
303,1436372956664,43.0
304,1436372956683,43.0
305,1436372956703,43.0
306,1436372956724,43.0
307,1436372956744,43.0
308,1436372956765,43.0
309,1436372956785,43.0
310,1436372956859,43.0
311,1436372956860,43.0
312,1436372956861,43.0
313,1436372956865,43.0
314,1436372956889,43.0
315,1436372956905,44.0
316,1436372956924,44.0
317,1436372956943,44.0
318,1436372956966,44.0
319,1436372956984,44.0
320,1436372957004,44.0
321,1436372957027,44.0
322,1436372957044,43.0
323,1436372957066,43.0
324,1436372957084,43.0
325,1436372957104,43.0
326,1436372957126,43.0
327,1436372957146,43.0
328,1436372957165,43.0
329,1436372957184,43.0
330,1436372957205,43.0
331,1436372957226,43.0
332,1436372957246,43.0
333,1436372957265,43.0
334,1436372957340,43.0
335,1436372957341,43.0
336,1436372957342,43.0
337,1436372957345,43.0
338,1436372957373,43.0
339,1436372957384,43.0
340,1436372957404,43.0
341,1436372957429,43.0
342,1436372957446,43.0
343,1436372957465,43.0
344,1436372957485,43.0
345,1436372957507,43.0
346,1436372957526,44.0
347,1436372957544,44.0
348,1436372957565,44.0
349,1436372957586,44.0
350,1436372957607,43.0
351,1436372957627,43.0
352,1436372957648,43.0
353,1436372957665,43.0
354,1436372957688,43.0
355,1436372957707,43.0
356,1436372957726,43.0
357,1436372957755,43.0
358,1436372957802,43.0
359,1436372957803,44.0
360,1436372957809,44.0
361,1436372957831,44.0
362,1436372957850,44.0
363,1436372957864,44.0
364,1436372957884,45.0
365,1436372957911,45.0
366,1436372957925,44.0
367,1436372957947,44.0
368,1436372957965,44.0
369,1436372957985,44.0
370,1436372958005,44.0
371,1436372958027,43.0
372,1436372958046,43.0
373,1436372958067,42.0
374,1436372958092,42.0
375,1436372958112,41.0
376,1436372958133,41.0
377,1436372958152,41.0
378,1436372958167,41.0
379,1436372958184,41.0
380,1436372958206,41.0
381,1436372958226,41.0
382,1436372958246,41.0
383,1436372958267,41.0
384,1436372958310,41.0
385,1436372958311,41.0
386,1436372958327,41.0
387,1436372958350,41.0
388,1436372958368,41.0
389,1436372958385,41.0
390,1436372958406,41.0
391,1436372958425,41.0
392,1436372958445,41.0
393,1436372958467,41.0
394,1436372958485,41.0
395,1436372958511,41.0
396,1436372958527,41.0
397,1436372958551,40.0
398,1436372958568,40.0
399,1436372958587,40.0
400,1436372958605,40.0
401,1436372958626,40.0
402,1436372958649,39.0
403,1436372958668,39.0
404,1436372958689,39.0
405,1436372958708,39.0
406,1436372958730,38.0
407,1436372958745,38.0
408,1436372958793,38.0
409,1436372958794,38.0
410,1436372958813,38.0
411,1436372958831,38.0
412,1436372958849,36.0
413,1436372958870,35.0
414,1436372958896,35.0
415,1436372958910,35.0
416,1436372958930,35.0
417,1436372958946,35.0
418,1436372958967,35.0
419,1436372958988,34.0
420,1436372959007,34.0
421,1436372959029,34.0
422,1436372959051,33.0
423,1436372959068,33.0
424,1436372959092,32.0
425,1436372959113,32.0
426,1436372959131,32.0
427,1436372959149,32.0
428,1436372959168,31.0
429,1436372959188,31.0
430,1436372959209,31.0
431,1436372959226,31.0
432,1436372959247,31.0
433,1436372959293,30.0
434,1436372959294,30.0
435,1436372959312,29.0
436,1436372959326,29.0
437,1436372959346,30.0
438,1436372959366,30.0
439,1436372959390,30.0
440,1436372959406,30.0
441,1436372959429,31.0
442,1436372959447,31.0
443,1436372959469,31.0
444,1436372959486,32.0
445,1436372959506,32.0
446,1436372959526,34.0
447,1436372959549,34.0
448,1436372959569,33.0
449,1436372959589,33.0
450,1436372959609,32.0
451,1436372959629,32.0
452,1436372959650,32.0
453,1436372959669,32.0
454,1436372959691,32.0
455,1436372959710,31.0
456,1436372959728,31.0
457,1436372959751,31.0
458,1436372959791,31.0
459,1436372959792,31.0
460,1436372959813,31.0
461,1436372959830,30.0
462,1436372959852,30.0
463,1436372959866,30.0
464,1436372959888,31.0
465,1436372959906,31.0
466,1436372959926,32.0
467,1436372959949,32.0
468,1436372959967,34.0
469,1436372959989,34.0
470,1436372960012,34.0
471,1436372960031,34.0
472,1436372960056,36.0
473,1436372960075,35.0
474,1436372960090,35.0
475,1436372960109,36.0
476,1436372960129,36.0
477,1436372960209,35.0
478,1436372960210,35.0
479,1436372960211,36.0
480,1436372960212,36.0
481,1436372960227,37.0
482,1436372960371,37.0
483,1436372960372,36.0
484,1436372960373,33.0
485,1436372960374,33.0
486,1436372960375,33.0
487,1436372960376,33.0
488,1436372960377,32.0
489,1436372960389,32.0
490,1436372960406,32.0
491,1436372960426,32.0
492,1436372960446,33.0
493,1436372960466,33.0
494,1436372960488,35.0
495,1436372960511,36.0
496,1436372960528,36.0
497,1436372960549,42.0
498,1436372960566,42.0
499,1436372960588,43.0
500,1436372960610,43.0
501,1436372960630,40.0
502,1436372960650,40.0
503,1436372960669,35.0
504,1436372960691,33.0
505,1436372960709,33.0
506,1436372960729,33.0
507,1436372960750,33.0
508,1436372960767,32.0
509,1436372960787,32.0
510,1436372960822,31.0
511,1436372960827,31.0
512,1436372960847,29.0
513,1436372960867,29.0
514,1436372960890,29.0
515,1436372960908,30.0
516,1436372960928,30.0
517,1436372960947,30.0
518,1436372960967,30.0
519,1436372960990,30.0
520,1436372961008,30.0
521,1436372961032,30.0
522,1436372961050,30.0
523,1436372961070,31.0
524,1436372961089,29.0
525,1436372961109,29.0
526,1436372961129,28.0
527,1436372961149,28.0
528,1436372961168,28.0
529,1436372961189,28.0
530,1436372961213,30.0
531,1436372961246,30.0
532,1436372961259,32.0
533,1436372961278,32.0
534,1436372961289,32.0
535,1436372961309,30.0
536,1436372961328,30.0
537,1436372961349,29.0
538,1436372961368,29.0
539,1436372961388,27.0
540,1436372961410,27.0
541,1436372961429,27.0
542,1436372961455,27.0
543,1436372961470,29.0
544,1436372961492,29.0
545,1436372961511,29.0
546,1436372961529,29.0
547,1436372961548,29.0
548,1436372961570,30.0
549,1436372961591,30.0
550,1436372961612,33.0
551,1436372961632,33.0
552,1436372961650,28.0
553,1436372961673,28.0
554,1436372961735,24.0
555,1436372961736,22.0
556,1436372961737,22.0
557,1436372961758,22.0
558,1436372961770,22.0
559,1436372961809,21.0
560,1436372961810,21.0
561,1436372961830,20.0
562,1436372961851,20.0
563,1436372961870,21.0
564,1436372961889,21.0
565,1436372961911,21.0
566,1436372961929,20.0
567,1436372961951,20.0
568,1436372961971,21.0
569,1436372961991,21.0
570,1436372962008,22.0
571,1436372962033,22.0
572,1436372962055,24.0
573,1436372962069,24.0
574,1436372962091,24.0
575,1436372962110,24.0
576,1436372962129,24.0
577,1436372962150,25.0
578,1436372962169,25.0
579,1436372962220,24.0
580,1436372962221,24.0
581,1436372962237,25.0
582,1436372962270,25.0
583,1436372962271,25.0
584,1436372962289,25.0
585,1436372962309,24.0
586,1436372962330,24.0
587,1436372962352,24.0
588,1436372962374,23.0
589,1436372962390,23.0
590,1436372962409,22.0
591,1436372962429,22.0
592,1436372962450,22.0
593,1436372962471,22.0
594,1436372962491,23.0
595,1436372962512,23.0
596,1436372962533,23.0
597,1436372962552,24.0
598,1436372962574,24.0
599,1436372962592,26.0
600,1436372962614,26.0
601,1436372962633,24.0
602,1436372962651,24.0
603,1436372962671,24.0
604,1436372962720,24.0
605,1436372962721,23.0
606,1436372962737,24.0
607,1436372962772,24.0
608,1436372962773,24.0
609,1436372962789,24.0
610,1436372962809,24.0
611,1436372962831,24.0
612,1436372962852,24.0
613,1436372962874,24.0
614,1436372962892,23.0
615,1436372962910,23.0
616,1436372962931,23.0
617,1436372962952,24.0
618,1436372962972,24.0
619,1436372962992,25.0
620,1436372963010,25.0
621,1436372963030,25.0
622,1436372963053,25.0
623,1436372963069,26.0
624,1436372963090,26.0
625,1436372963110,27.0
626,1436372963131,27.0
627,1436372963151,27.0
628,1436372963170,27.0
629,1436372963220,27.0
630,1436372963221,27.0
631,1436372963238,27.0
632,1436372963274,27.0
633,1436372963275,27.0
634,1436372963290,26.0
635,1436372963310,26.0
636,1436372963331,25.0
637,1436372963352,23.0
638,1436372963373,23.0
639,1436372963392,22.0
640,1436372963411,22.0
641,1436372963430,21.0
642,1436372963451,21.0
643,1436372963471,21.0
644,1436372963493,21.0
645,1436372963515,21.0
646,1436372963532,20.0
647,1436372963552,20.0
648,1436372963571,23.0
649,1436372963590,23.0
650,1436372963611,25.0
651,1436372963633,25.0
652,1436372963652,22.0
653,1436372963673,22.0
654,1436372963725,20.0
655,1436372963751,20.0
656,1436372963752,19.0
657,1436372963753,19.0
658,1436372963778,19.0
659,1436372963792,19.0
660,1436372963822,19.0
661,1436372963831,18.0
662,1436372963851,18.0
663,1436372963871,18.0
664,1436372963892,18.0
665,1436372963911,18.0
666,1436372963933,18.0
667,1436372963951,19.0
668,1436372963973,19.0
669,1436372963993,19.0
670,1436372964013,17.0
671,1436372964032,17.0
672,1436372964052,18.0
673,1436372964071,18.0
674,1436372964092,17.0
675,1436372964114,17.0
676,1436372964134,17.0
677,1436372964152,17.0
678,1436372964171,17.0
679,1436372964219,17.0
680,1436372964220,17.0
681,1436372964279,17.0
682,1436372964280,17.0
683,1436372964281,17.0
684,1436372964368,17.0
685,1436372964369,17.0
686,1436372964370,17.0
687,1436372964371,16.0
688,1436372964374,16.0
689,1436372964400,16.0
690,1436372964413,16.0
691,1436372964435,16.0
692,1436372964451,17.0
693,1436372964471,17.0
694,1436372964492,17.0
695,1436372964511,17.0
696,1436372964531,17.0
697,1436372964551,19.0
698,1436372964574,19.0
699,1436372964594,20.0
700,1436372964614,20.0
701,1436372964631,18.0
702,1436372964651,18.0
703,1436372964671,16.0
704,1436372964693,16.0
705,1436372964719,15.0
706,1436372964731,15.0
707,1436372964752,15.0
708,1436372964784,15.0
709,1436372964792,15.0
710,1436372964811,15.0
711,1436372964831,15.0
712,1436372964858,16.0
713,1436372964870,16.0
714,1436372964890,16.0
715,1436372964910,16.0
716,1436372964930,17.0
717,1436372964951,17.0
718,1436372964970,17.0
719,1436372964990,17.0
720,1436372965010,17.0
721,1436372965030,18.0
722,1436372965050,18.0
723,1436372965070,17.0
724,1436372965090,17.0
725,1436372965110,17.0
726,1436372965130,17.0
727,1436372965150,17.0
728,1436372965170,17.0
729,1436372965190,17.0
730,1436372965210,17.0
731,1436372965230,17.0
732,1436372965251,17.0
733,1436372965270,17.0
734,1436372965290,17.0
735,1436372965312,17.0
736,1436372965333,17.0
737,1436372965352,17.0
738,1436372965371,17.0
739,1436372965391,17.0
740,1436372965412,17.0
741,1436372965433,17.0
742,1436372965453,17.0
743,1436372965471,17.0
744,1436372965491,17.0
745,1436372965511,17.0
746,1436372965531,17.0
747,1436372965551,17.0
748,1436372965571,16.0
749,1436372965593,16.0
750,1436372965613,16.0
751,1436372965631,16.0
752,1436372965652,16.0
753,1436372965673,16.0
754,1436372965693,16.0
755,1436372965712,16.0
756,1436372965731,16.0
757,1436372965752,16.0
758,1436372965773,16.0
759,1436372965792,16.0
760,1436372965812,16.0
761,1436372965834,16.0
762,1436372965851,16.0
763,1436372965872,16.0
764,1436372965893,16.0
765,1436372965942,17.0
766,1436372965943,17.0
767,1436372965955,18.0
768,1436372965974,18.0
769,1436372965992,18.0
770,1436372966013,18.0
771,1436372966032,18.0
772,1436372966052,18.0
773,1436372966072,18.0
774,1436372966093,17.0
775,1436372966112,17.0
776,1436372966133,17.0
777,1436372966152,17.0
778,1436372966175,18.0
779,1436372966195,18.0
780,1436372966214,18.0
781,1436372966234,18.0
782,1436372966254,18.0
783,1436372966273,18.0
784,1436372966295,18.0
785,1436372966312,18.0
786,1436372966335,18.0
787,1436372966355,18.0
788,1436372966380,18.0
789,1436372966463,18.0
790,1436372966464,19.0
791,1436372966465,19.0
792,1436372966466,19.0
793,1436372966506,19.0
794,1436372966507,20.0
795,1436372966513,20.0
796,1436372966540,20.0
797,1436372966553,20.0
798,1436372966576,20.0
799,1436372966597,20.0
800,1436372966614,20.0
801,1436372966633,20.0
802,1436372966653,20.0
803,1436372966673,21.0
804,1436372966694,21.0
805,1436372966713,20.0
806,1436372966733,20.0
807,1436372966753,20.0
808,1436372966775,20.0
809,1436372966793,20.0
810,1436372966815,20.0
811,1436372966835,20.0
812,1436372966854,20.0
813,1436372966877,20.0
814,1436372966934,22.0
815,1436372966935,22.0
816,1436372966936,22.0
817,1436372966959,22.0
818,1436372967002,22.0
819,1436372967003,22.0
820,1436372967016,22.0
821,1436372967035,21.0
822,1436372967060,21.0
823,1436372967087,21.0
824,1436372967097,21.0
825,1436372967115,22.0
826,1436372967137,22.0
827,1436372967154,23.0
828,1436372967173,23.0
829,1436372967196,22.0
830,1436372967218,22.0
831,1436372967238,22.0
832,1436372967254,21.0
833,1436372967276,21.0
834,1436372967295,21.0
835,1436372967315,21.0
836,1436372967343,22.0
837,1436372967406,22.0
838,1436372967407,22.0
839,1436372967408,22.0
840,1436372967425,22.0
841,1436372967436,22.0
842,1436372967480,22.0
843,1436372967481,22.0
844,1436372967495,22.0
845,1436372967516,22.0
846,1436372967535,22.0
847,1436372967557,22.0
848,1436372967576,22.0
849,1436372967594,23.0
850,1436372967615,24.0
851,1436372967639,24.0
852,1436372967656,24.0
853,1436372967675,24.0
854,1436372967694,23.0
855,1436372967714,23.0
856,1436372967734,23.0
857,1436372967754,23.0
858,1436372967775,24.0
859,1436372967797,24.0
860,1436372967816,24.0
861,1436372967861,25.0
862,1436372967862,25.0
863,1436372967881,26.0
864,1436372967914,26.0
865,1436372967915,26.0
866,1436372967934,26.0
867,1436372967959,26.0
868,1436372967974,26.0
869,1436372967997,25.0
870,1436372968014,25.0
871,1436372968037,24.0
872,1436372968057,25.0
873,1436372968079,25.0
