id,attr_time,attr_db
1,1436179573476,38.2915286321687
2,1436179574229,39.6337588927151
3,1436179574962,37.6941408914313
4,1436179575650,37.4425029753389
5,1436179576266,37.8039377854887
6,1436179576947,39.3697615614254
7,1436179577677,42.160434737854
8,1436179578424,39.8498702339037
9,1436179579204,44.2097900044457
10,1436179579941,46.0070282477286
11,1436179580693,44.605072906176
12,1436179581428,54.9062699192704
13,1436179582163,46.47258727006
14,1436179582889,44.8978599584663
15,1436179583620,43.7079201467014
16,1436179584366,56.8550349109704
17,1436179585135,45.1840712392043
18,1436179585863,40.689497608266
19,1436179586583,41.9425830771419
20,1436179587299,41.0122772281987
21,1436179588050,42.5325611729995
22,1436179588775,43.8998685196128
23,1436179589500,40.759436827665
24,1436179590317,42.077284025959
25,1436179591047,42.777044820842
26,1436179591742,45.4603966846193
27,1436179592418,40.0930079867352
28,1436179593060,40.7994135259085
29,1436179593668,39.6082856444193
30,1436179594366,41.4563997770283
31,1436179595101,41.1044029317892
32,1436179596476,39.0593295307735
33,1436179597229,46.8026561352951
34,1436179597948,39.9643864194199
35,1436179598690,40.3741192255686
36,1436179599481,43.4210334468853
37,1436179600219,56.1928102069808
38,1436179600943,40.9755098241285
39,1436179601663,39.6380704449268
40,1436179603779,43.142955674156
41,1436179604456,48.4542493010642
42,1436179605235,41.0478268499438
43,1436179605959,40.3309893431383
44,1436179606698,42.8033868664083
45,1436179607456,41.5717170549386
46,1436179608244,53.459647383936
47,1436179610165,40.887652977744
48,1436179610795,44.6217691500448
49,1436179611476,43.9431275725987
50,1436179612218,40.9084396053439
51,1436179612952,40.4045492881429
52,1436179614777,42.5120380164026
53,1436179615467,42.8556985804047
54,1436179616232,52.3037464750876
55,1436179616933,53.2580036481301
56,1436179617607,42.350558317698
57,1436179618342,41.7525998226649
58,1436179619070,41.1113498127513
59,1436179619809,42.6017196636499
60,1436179620636,40.4206487786229
61,1436179621227,41.0319811748909
62,1436179621900,38.4920839929972
63,1436179622630,44.0285550964946
64,1436179623357,40.6107606634637
65,1436179624100,41.1025085739375
66,1436179624834,41.5765909499569
67,1436179625561,41.0524170429026
68,1436179626302,41.1399389265588
69,1436179626889,39.7760735610966
70,1436179627450,39.51068474308
71,1436179628038,40.5829459028501
72,1436179628637,38.8374047568672
73,1436179629296,40.491795653299
74,1436179630021,40.8519847773097
75,1436179630775,41.2710547487494
76,1436179631516,40.6162614190186
77,1436179632098,41.0839407335733
78,1436179632646,41.4051095058323
79,1436179633201,41.2756528814428
80,1436179633761,40.3389863525915
81,1436179635380,42.0172445139277
82,1436179636080,39.6713224743501
83,1436179636705,41.5145087875786
84,1436179637345,39.6712156137212
85,1436179638045,41.0073430581728
86,1436179638744,44.2094932913597
87,1436179639329,41.3388807840556
88,1436179639901,39.4039724058405
89,1436179640443,42.0635245469673
90,1436179641076,39.9863812076654
91,1436179641803,40.8643171104462
92,1436179642475,39.9166772835943
93,1436179643051,38.7602326039004
94,1436179643611,37.8467147584674
95,1436179644185,38.1589861842495
96,1436179645309,41.830760860264
97,1436179645965,44.200799614956
98,1436179646665,41.1808527734568
99,1436179647423,43.5639340831888
100,1436179648237,53.8459785791707
101,1436179648978,44.4971981645545
102,1436179649546,42.7376870240908
103,1436179650122,41.4809915608132
104,1436179650702,53.6911978304446
105,1436179651273,48.3240133482831
106,1436179651913,42.7952655852759
107,1436179652665,44.5783274113255
108,1436179653410,39.1438096830585
109,1436179653980,40.8041624566503
110,1436179654534,41.3189645344097
111,1436179655082,40.5971238012507
112,1436179655634,42.9835914552274
113,1436179656905,39.9208173378856
114,1436179657652,44.5279765007166
115,1436179658379,45.3199283472499
116,1436179659143,49.6733164694954
117,1436179659833,44.2629631402774
118,1436179660509,51.574388352606
119,1436179661238,43.5216553137147
120,1436179661961,40.9278143153501
121,1436179662707,39.6765894829353
122,1436179663442,38.7939923964211
123,1436179664144,42.5211408856188
124,1436179664842,39.1375395376804
125,1436179665525,40.4461826828853
126,1436179666264,37.40901035169
127,1436179667014,36.6807471094856
128,1436179667747,40.4681434970014
129,1436179668482,38.2014041985204
130,1436179669197,36.9315804494779
131,1436179670018,39.9411341271576
132,1436179670740,35.4231314740741
133,1436179671467,38.2088034541858
134,1436179672179,54.2299177592946
135,1436179672861,50.392105100274
136,1436179673591,42.6971992971384
137,1436179674368,41.7118694214632
138,1436179675062,38.411209163436
139,1436179675771,43.0407105084404
140,1436179676441,40.3593056863295
141,1436179677206,42.9877550573748
142,1436179677943,64.891267868398
143,1436179678675,45.8345956442901
144,1436179679389,39.852199855314
145,1436179680128,39.6302625876437
146,1436179680852,39.291365162325
147,1436179681587,39.3357367966435
148,1436179682320,39.0983766713077
149,1436179683069,39.8524229778254
150,1436179683795,53.9589086777132
151,1436179684502,44.9729914952979
152,1436179685175,41.2068652679285
153,1436179685813,42.6230847528282
154,1436179686548,42.2963142314926
155,1436179687277,41.0484069637234
156,1436179688031,41.4598975790087
157,1436179688746,41.1598239495979
158,1436179689394,41.1240666979662
159,1436179690180,42.3036823199791
160,1436179690919,50.3311360405972
161,1436179691650,42.0928440638526
162,1436179692395,40.5062306269902
163,1436179693138,39.8951798453538
164,1436179693879,40.6124002176665
165,1436179694617,39.5444367718351
166,1436179695314,38.7526513374812
167,1436179695996,37.446704824438
168,1436179696638,40.7572404021976
169,1436179697323,42.613337016926
170,1436179698070,38.2940121760651
171,1436179698716,39.0818285497222
172,1436179699460,40.599614322245
173,1436179700203,40.601608700237
174,1436179700942,41.3587177526414
175,1436179701689,43.0250103358071
176,1436179702414,39.0578600570443
177,1436179703159,45.4029935735694
178,1436179703892,50.34194079611
179,1436179704632,46.8481105471059
180,1436179705316,40.8613168043125
181,1436179706044,44.4387423053474
182,1436179706775,39.8830259408897
183,1436179707517,41.3366694319007
184,1436179708246,44.7408349442233
185,1436179708834,49.7965995956832
186,1436179709609,64.0245597191206
187,1436179710341,49.3226847463269
188,1436179711099,40.174811488258
189,1436179711830,40.7757637302621
190,1436179712559,41.9236120586512
191,1436179713296,41.3674482132584
192,1436179714037,38.7012308778727
193,1436179714781,40.375733101971
194,1436179715508,43.558340240822
195,1436179716134,40.7241527268214
196,1436179716809,40.5976436813897
197,1436179717528,41.3577617269893
198,1436179718255,41.3096104177099
199,1436179718991,40.907940965562
200,1436179719743,39.2174441486276
201,1436179720417,40.7629245662239
202,1436179721158,41.483959487262
203,1436179721871,46.4755063632993
204,1436179722618,40.2728679865288
205,1436179723360,42.2607850423115
206,1436179724070,40.5188219999928
207,1436179724733,41.4633675780867
208,1436179725468,43.2857087643423
209,1436179726185,45.4817361053191
210,1436179726914,43.9895978735461
211,1436179727656,40.944743487934
212,1436179728383,41.7158415401572
213,1436179729152,40.3633550705621
214,1436179729797,40.9432055895262
215,1436179730530,42.486299596504
216,1436179731284,45.8821255519271
217,1436179731926,51.7426276664806
218,1436179732677,44.2198130268211
219,1436179733407,41.3112932984455
220,1436179734116,41.5523645245088
221,1436179734852,44.0136419742207
222,1436179735559,41.6092688812678
223,1436179736357,39.805326820435
224,1436179737012,46.2495070300193
225,1436179737757,44.7884962592684
226,1436179738479,43.667813637085
227,1436179739222,42.3636982164297
228,1436179739929,46.2898133678233
229,1436179740605,41.7497450785051
230,1436179741349,42.8577778174343
231,1436179742081,53.4268596933989
232,1436179742829,46.1496492388917
233,1436179743560,54.6147104714256
234,1436179744302,42.1489232532233
235,1436179745030,39.9496785391696
236,1436179745783,40.3542129621273
237,1436179746502,41.6811826753014
238,1436179747148,42.7725111359206
239,1436179747836,41.425766625855
240,1436179748559,42.1507747170681
241,1436179749288,37.9169221433054
242,1436179750049,39.0250557197171
243,1436179750824,40.7444660358288
244,1436179751536,41.7922181532721
245,1436179752273,47.7636611194509
246,1436179753000,45.1036424168843
247,1436179753740,43.7150941714684
248,1436179754453,43.5128643164261
249,1436179755113,42.8590853030304
250,1436179755859,43.7975656308466
251,1436179756616,39.8481995356506
252,1436179757187,44.0157100624264
253,1436179757827,41.508274864841
254,1436179758538,45.6444340707652
255,1436179759273,43.832041904145
256,1436179759992,49.0459273905634
257,1436179760645,58.4300301943296
258,1436179761377,56.0487308652532
259,1436179762107,43.5218631071395
260,1436179762841,43.0497499605502
261,1436179763581,42.4744162157598
262,1436179764309,43.8240870376043
263,1436179765075,42.783921774018
264,1436179765795,44.434951270836
265,1436179766523,40.1451875437684
266,1436179767174,40.6348272921744
267,1436179767908,40.7270716802769
268,1436179768636,41.7221511262211
269,1436179769341,41.0724935205292
270,1436179770038,39.8671143632062
271,1436179770790,61.3590940310676
272,1436179771500,42.0567930416697
273,1436179772253,45.7250431073268
274,1436179772980,43.0831858149547
275,1436179773727,42.6929875068999
276,1436179774458,45.3147694790626
277,1436179775203,51.969978742091
278,1436179775941,42.3507446094477
279,1436179776667,43.4240347998355
280,1436179777359,44.6960106865134
281,1436179778041,41.0668144534505
282,1436179778777,44.3462955870104
283,1436179779515,42.7728490331565
284,1436179780303,44.2793683467702
285,1436179780968,44.4655802069667
286,1436179781711,62.3812181847332
287,1436179782468,44.9878213519187
288,1436179783204,49.6475115690746
289,1436179783914,41.8815147934881
290,1436179784648,40.4666698497806
291,1436179785459,63.10694404353
292,1436179786207,45.3406572893182
293,1436179786912,47.9337205645955
294,1436179787611,44.0567468306407
295,1436179788277,49.740487447585
296,1436179789031,60.1303224367696
297,1436179789768,45.3739521881521
298,1436179790552,42.438235052727
299,1436179791332,42.4177313787525
300,1436179791988,42.5522485341672
301,1436179792724,43.0861237612618
302,1436179793457,45.0034119198764
303,1436179794198,44.6417171798814
304,1436179794940,52.0475040260863
305,1436179795660,42.0786447441842
306,1436179796433,42.3964730094008
307,1436179797050,43.4715517632605
308,1436179797691,43.395577783426
309,1436179798433,43.1357538802885
310,1436179799146,42.5663218635709
311,1436179800692,55.1400005462747
312,1436179801291,54.0948140903801
313,1436179801967,47.7124732387292
314,1436179802690,40.8737466596812
315,1436179803456,47.8727394795153
316,1436179804173,43.1407310520977
317,1436179804910,42.5148742911056
318,1436179805641,43.9666878279792
319,1436179806378,41.8018950718318
320,1436179807106,41.6687486830246
321,1436179807845,41.0878456149247
322,1436179808520,44.2742242623022
323,1436179809265,45.4088663549355
324,1436179809978,45.0799497902362
325,1436179811612,40.4412802580878
326,1436179812345,43.9607958324036
327,1436179813080,44.7375443914077
328,1436179813782,51.9596048304417
329,1436179814416,43.0618195137057
330,1436179815160,44.292479716962
331,1436179815898,43.9434819060876
332,1436179816614,42.5018304923886
333,1436179817324,40.4246106805011
334,1436179817943,43.6868533145203
335,1436179818690,41.591333023141
336,1436179819417,43.9903056572654
337,1436179820179,43.305349025655
338,1436179820941,64.3744702582725
339,1436179821561,43.6023531840565
340,1436179822233,44.8986518828018
341,1436179822967,46.0106988387143
342,1436179823714,60.4908728384624
343,1436179824423,52.3895112739344
344,1436179826223,43.8697682464024
345,1436179826893,72.3097703537203
346,1436179827505,70.4051365705985
347,1436179828150,69.0801620113262
348,1436179828765,66.8506935945511
349,1436179829443,69.8006529359146
350,1436179830227,58.0010115986795
351,1436179830941,73.523351675792
352,1436179831561,68.3359494921492
353,1436179832185,51.2465331103483
354,1436179832904,62.1888857855198
355,1436179833505,55.83648969041
356,1436179834592,69.0726448051531
357,1436179835260,66.7929550362508
358,1436179836009,57.8145201438904
359,1436179836738,53.1583585618633
360,1436179837483,59.6225254668084
361,1436179838165,49.1298964441701
362,1436179838809,63.0035255135291
363,1436179839550,55.0640789251366
364,1436179840284,51.301972623658
365,1436179841108,57.2635703773919
366,1436179841824,45.3904554549862
367,1436179842467,49.8008201301637
368,1436179843188,59.230549479186
369,1436179843921,56.6405496449516
370,1436179844636,50.4168585854469
371,1436179845371,64.9819286802505
372,1436179846117,64.7447320500915
373,1436179846838,68.9741298197866
374,1436179847579,59.7536070890763
375,1436179848297,49.2720951426983
376,1436179849012,72.0607493327793
377,1436179849745,66.250538507932
378,1436179850486,65.1443637031524
379,1436179851234,64.3014280181154
380,1436179851973,59.695805384911
381,1436179852668,52.9564600082655
382,1436179853270,64.5180045261808
383,1436179853948,57.4875123158808
384,1436179854680,59.9301546501095
385,1436179855437,65.2860156139861
386,1436179856169,71.6839810709428
387,1436179856926,55.0175836832897
388,1436179857689,64.9314040538791
389,1436179858314,66.9503747367247
390,1436179859010,58.8577274864281
391,1436179859745,50.3264765959386
392,1436179860552,69.2877249951146
393,1436179861305,68.4903695759559
394,1436179862065,67.3846001979253
395,1436179862793,61.6490382460509
396,1436179863535,70.6422416249255
397,1436179864266,54.9458789482586
398,1436179865008,59.6966444754537
399,1436179865756,63.7014604832598
400,1436179866511,60.5906867542683
401,1436179867213,65.9356309492379
402,1436179867869,62.8408953067209
403,1436179868638,61.3166559828951
404,1436179869410,70.6775315151333
405,1436179870084,69.4610947937952
406,1436179870852,70.7727468161963
407,1436179871570,62.5344485501111
408,1436179872280,67.3366582648768
409,1436179873016,63.8949409753785
410,1436179873745,52.9227078107137
411,1436179874490,71.5948249450844
412,1436179875238,59.4309482189895
413,1436179876067,70.1446235642649
414,1436179876791,66.3636248623159
415,1436179877459,65.9187115691344
416,1436179878062,64.1155056227438
417,1436179878791,64.7110372722686
418,1436179879471,50.2209468025209
419,1436179880140,68.7669577430132
420,1436179880933,56.131680761791
421,1436179881684,71.6942420395435
422,1436179882432,66.7063835787698
423,1436179883206,55.5654113540479
424,1436179883957,66.7294822628648
425,1436179884664,66.5966522112493
426,1436179885406,72.7993597944159
427,1436179886212,58.7387622806002
428,1436179886924,52.6256309439431
429,1436179887643,71.3899704709762
430,1436179888368,69.2102488181579
431,1436179889091,58.8240337647537
432,1436179889767,65.2859048796456
433,1436179890448,52.6736857340107
434,1436179891253,43.1516001796878
435,1436179891860,62.748349440871
436,1436179892546,55.3082638649209
437,1436179893266,68.1798966712759
438,1436179893924,58.6126150872288
439,1436179894659,68.5542699083575
440,1436179895404,68.1974736486856
441,1436179896198,66.1629625941733
442,1436179896956,66.8208517699652
443,1436179897691,55.8377214441125
444,1436179898372,70.1851656633731
445,1436179899061,61.9046031963303
446,1436179899813,65.7505155029838
447,1436179900452,51.7772379174356
448,1436179901012,69.8549796520437
449,1436179901563,71.1840230441089
450,1436179902150,53.8262778812955
451,1436179902798,60.7139700374734
452,1436179903496,48.9376735962978
453,1436179904227,68.0807723985184
454,1436179905019,72.1276951897188
455,1436179905789,54.006914514657
456,1436179906336,68.7815517205531
457,1436179906895,60.5546858159913
458,1436179907444,66.2439251434748
459,1436179908579,66.3724524931851
460,1436179909265,67.6235341116623
461,1436179909960,67.7274322793941
462,1436179910681,48.5424197314037
463,1436179911429,69.5193829776691
464,1436179912051,55.6342602129285
465,1436179912594,66.6833476920262
466,1436179913145,38.6505673978884
467,1436179913701,41.5015714590601
468,1436179914285,37.2416217141799
469,1436179914953,40.3082528749148
470,1436179915693,52.1837687180059
471,1436179916251,39.013551198072
472,1436179916812,61.0508256183957
473,1436179917365,45.8268326251691
474,1436179917913,72.1080414192276
475,1436179919388,74.0531584316769
476,1436179920090,66.6196660531716
477,1436179920798,56.3028567070101
478,1436179921414,70.5222508530496
479,1436179922239,68.4693155093325
480,1436179922916,56.3261603772995
481,1436179923487,64.1750288682184
482,1436179924065,68.2377801199259
483,1436179924621,69.4120700394332
484,1436179925203,61.4519430708712
485,1436179925877,71.3174972074441
486,1436179926618,57.2671656093102
487,1436179927374,70.1611538323706
488,1436179928005,68.4631361157421
489,1436179928557,64.8438938179168
490,1436179929110,60.1652424637726
491,1436179929663,64.6656940961519
492,1436179930208,51.6723260073668
493,1436179931292,57.0556091519858
494,1436179931994,71.6067735583064
495,1436179932795,63.3055700290744
496,1436179933477,66.9738383750175
497,1436179934177,63.0217351846539
498,1436179934906,50.3587362884666
499,1436179935645,62.9060730874176
500,1436179936515,66.2539420055355
501,1436179937225,71.0507736923525
502,1436179937854,51.1815671232573
503,1436179938541,68.3748427488929
504,1436179939262,53.6609839090535
505,1436179939987,68.3937284627625
506,1436179940752,49.6083429576868
507,1436179941485,67.7807137696705
508,1436179942215,57.0065940733211
509,1436179942953,63.340905848606
510,1436179943694,69.9112483611651
511,1436179944381,67.16271199497
512,1436179945085,62.4779130835333
513,1436179945865,62.8892038340004
514,1436179946597,42.9492262393328
515,1436179947335,48.2121099776067
516,1436179948146,68.5962867890006
517,1436179948877,73.1197921962498
518,1436179949609,72.0833813757799
519,1436179950298,66.2122493361987
520,1436179950899,38.6538541867283
521,1436179951554,43.0099183573883
522,1436179952302,42.4152324601095
523,1436179953054,37.4355000832097
524,1436179953766,31.0197490199501
525,1436179954479,51.0792430789193
526,1436179955207,45.9569526189086
527,1436179955945,61.4336431850466
528,1436179956676,62.929219665154
529,1436179957415,41.4268697158005
530,1436179958159,47.3920949174822
531,1436179958825,47.4522486728109
532,1436179959544,50.0400820022806
533,1436179960297,43.24046990048
534,1436179961025,61.4403504250685
535,1436179961802,40.4318022894377
536,1436179962422,63.4393416499822
537,1436179963193,46.661952055681
538,1436179963915,72.5293333077178
539,1436179964594,42.1866550641732
540,1436179965331,67.8442294292559
541,1436179966033,69.5500236291596
542,1436179966668,63.3405494107654
543,1436179967364,68.8147638117397
544,1436179968098,69.1342693755404
545,1436179968814,62.4923881856613
546,1436179969547,60.6588721662756
547,1436179970312,63.583754192959
548,1436179971046,64.4491722718466
549,1436179971745,48.0265776379777
550,1436179972369,50.9781370593717
551,1436179973065,50.8404644757526
552,1436179973734,62.1526612383317
553,1436179974429,51.4195520825072
554,1436179975159,31.5553716523224
555,1436179975973,62.4541661243978
556,1436179976707,67.8151439869332
557,1436179977435,70.6869029116667
558,1436179978204,50.6578398575077
559,1436179978869,67.4797037687366
560,1436179979581,63.1855529991377
561,1436179980337,64.3049415297154
562,1436179981068,42.6819561364781
563,1436179981796,46.0269923639122
564,1436179982447,64.3274734908625
565,1436179983193,61.0673195777046
566,1436179983913,62.325884003659
567,1436179984582,51.6250083217837
568,1436179985299,52.5098045411587
569,1436179986054,53.9254877365977
570,1436179986796,63.9288229299786
571,1436179987531,50.4278576114058
572,1436179988267,65.338954189285
573,1436179988999,58.8369391728429
574,1436179989736,66.1246783385884
575,1436179990477,59.8407381784769
576,1436179991216,68.1201421521824
