id,attr_time,attr_db
1,1436179573763,36.7892929958043
2,1436179574449,36.7991625680103
3,1436179575052,37.0490916874281
4,1436179575732,35.9663936566173
5,1436179576463,36.2409027267376
6,1436179577219,43.4976613618954
7,1436179578006,40.1960701598036
8,1436179578753,42.3112407596545
9,1436179579531,54.949718877398
10,1436179580268,44.4018382833621
11,1436179580998,44.733171623143
12,1436179581737,48.2705208642211
13,1436179582438,47.1542822470477
14,1436179583159,42.9431651907737
15,1436179583865,41.4465376832696
16,1436179584519,42.0089272593682
17,1436179585250,42.6222475398148
18,1436179585983,36.9094021526954
19,1436179586697,43.9551322447959
20,1436179587387,45.0467356006093
21,1436179588013,41.4335635634343
22,1436179588652,40.5245429759108
23,1436179589365,40.3471365506718
24,1436179590069,38.585541388317
25,1436179590750,39.1838214314601
26,1436179591460,46.8892661624124
27,1436179592146,41.7345398989822
28,1436179592887,41.943667392429
29,1436179593614,40.1403825350989
30,1436179594348,38.3804196243798
31,1436179595075,38.9885887190483
32,1436179595802,41.9812129552705
33,1436179596522,47.8371360742645
34,1436179597245,40.5433365038936
35,1436179597928,41.6009332906349
36,1436179598622,43.1800836492957
37,1436179599333,46.8484431416059
38,1436179600074,45.3343752168164
39,1436179600795,40.3129109978301
40,1436179601522,41.253560738294
41,1436179602242,39.5481922695132
42,1436179602996,45.8421056378259
43,1436179603714,42.9752791670061
44,1436179604436,37.8438146625242
45,1436179605156,42.8465276155473
46,1436179605880,48.5857149906528
47,1436179606604,47.8003773198608
48,1436179607391,58.112481575143
49,1436179608056,46.1392604081294
50,1436179608845,42.1492524549401
51,1436179609569,51.0688230739659
52,1436179610401,47.829520373275
53,1436179611231,45.7256183900299
54,1436179611978,44.2289478238691
55,1436179612687,58.0107928326131
56,1436179613438,43.4041126132278
57,1436179614158,46.8352540663643
58,1436179614893,49.8155689991817
59,1436179615635,37.9238949540427
60,1436179616348,39.0726790054361
61,1436179617083,41.6291388060656
62,1436179617885,36.1194474217692
63,1436179618548,38.5745828487549
64,1436179619293,38.3647875507191
65,1436179620040,46.7340490536783
66,1436179620765,45.1265386875973
67,1436179621494,44.9140504639367
68,1436179622177,40.1286305231907
69,1436179622842,46.5162280510636
70,1436179623561,40.343368296904
71,1436179624314,41.0173754492958
72,1436179625039,40.6767261741112
73,1436179625751,43.4153202728539
74,1436179626477,38.6700244392497
75,1436179627194,46.7737600085698
76,1436179627903,38.5297006577039
77,1436179628587,37.9346870776803
78,1436179629263,40.8535230816327
79,1436179629998,38.3584844094564
80,1436179630781,39.2597591811623
81,1436179631371,37.3968378097634
82,1436179632033,51.49609403346
83,1436179632657,45.6741642840825
84,1436179633327,47.3618691785576
85,1436179634055,54.830856860758
86,1436179634792,57.3584080565266
87,1436179635522,47.3050248921905
88,1436179636250,50.3933208709087
89,1436179636982,59.0929576785953
90,1436179637717,42.3810100549052
91,1436179638438,48.7590102552311
92,1436179639120,45.1934351546361
93,1436179639825,41.6412763015945
94,1436179640541,46.8694475844879
95,1436179641285,36.1196531872937
96,1436179642012,41.4263595904632
97,1436179642676,46.899901617378
98,1436179643410,40.1899975355474
99,1436179644133,40.3376802246156
100,1436179644878,40.9674909180481
101,1436179645600,41.577529057104
102,1436179646333,48.8670029206428
103,1436179647071,43.4749148346621
104,1436179647809,64.5943574572943
105,1436179648518,37.8695221684016
106,1436179649221,40.0542077309392
107,1436179649886,38.8533202031104
108,1436179650605,47.7842338604631
109,1436179651319,41.878267789468
110,1436179652085,50.2677565143737
111,1436179652766,37.7169197577086
112,1436179653497,42.3934831851883
113,1436179654247,38.238807671461
114,1436179654989,50.0167976816368
115,1436179655702,39.2305422652073
116,1436179656395,46.4964250680368
117,1436179657862,38.8691563867643
118,1436179658613,38.609322190573
119,1436179659291,38.4681766452287
120,1436179660034,37.346763282468
121,1436179660757,38.1443418459496
122,1436179661468,37.3008206699827
123,1436179662148,37.6124768430509
124,1436179662881,50.2268299320743
125,1436179663579,41.2196577461213
126,1436179664303,44.4562319476328
127,1436179665033,39.5022204943851
128,1436179665776,42.5827879881426
129,1436179666516,40.7239728090165
130,1436179667271,37.2507437373153
131,1436179668007,39.8742075072487
132,1436179668741,41.3525473178047
133,1436179669482,43.2214422463981
134,1436179670148,40.4009253098896
135,1436179672282,40.7595724861968
136,1436179673008,44.7623256782304
137,1436179673752,38.2131494509048
138,1436179674500,41.1154070518379
139,1436179675210,40.5955140009453
140,1436179675928,39.9598617022804
141,1436179676670,37.6186708728749
142,1436179677399,39.060382159829
143,1436179678127,40.6993665080208
144,1436179678856,33.6404852891787
145,1436179679592,38.4755895046364
146,1436179680258,33.8456790054926
147,1436179681018,39.3272363546708
148,1436179681761,42.3320864441476
149,1436179682501,47.2820827674924
150,1436179683209,42.2220662848815
151,1436179683948,53.3777296058196
152,1436179684673,41.9514260231174
153,1436179685410,36.3054572840889
154,1436179686151,42.0684752965118
155,1436179686892,53.8274336808994
156,1436179687624,45.8623424973
157,1436179688394,44.1126564575099
158,1436179689133,46.7882609650008
159,1436179689859,41.9184183760789
160,1436179690513,38.6834500960183
161,1436179691229,42.8890025101342
162,1436179691847,35.0904410635332
163,1436179692543,41.4866726209589
164,1436179693272,35.8836868017608
165,1436179695101,51.3615827551281
166,1436179695792,38.7879784420221
167,1436179696523,42.0637920870586
168,1436179697269,36.3914987004354
169,1436179697979,38.5812870885833
170,1436179698695,33.9589833385931
171,1436179699386,36.7467929422113
172,1436179700073,36.1492181133988
173,1436179700770,38.0129934506108
174,1436179701541,36.5870300091674
175,1436179702351,40.0552534449578
176,1436179703089,35.5206682678632
177,1436179703763,38.5845191862714
178,1436179704489,34.5775318741262
179,1436179705242,43.3024654440712
180,1436179705988,36.6585352844944
181,1436179707755,36.0550900413912
182,1436179708494,47.5006674407503
183,1436179709276,51.8892142233086
184,1436179710007,55.9991939586686
185,1436179710685,52.8997476467954
186,1436179711404,44.5282730920584
187,1436179712128,60.9076992087983
188,1436179712857,41.2666501927965
189,1436179713613,52.3023069205567
190,1436179714290,39.6660841291037
191,1436179715006,41.0380702287414
192,1436179715723,37.4039988723757
193,1436179716452,58.7790733792384
194,1436179717190,40.4808569815947
195,1436179717913,50.6946642275239
196,1436179718735,43.8230145524796
197,1436179719390,44.3700225983311
198,1436179720078,37.7078123904816
199,1436179720749,39.9191796613885
200,1436179721417,43.1742528538224
201,1436179722140,44.6858043669011
202,1436179722887,40.8988956861342
203,1436179723587,44.5811850512409
204,1436179724231,39.9388607864001
205,1436179724937,43.9302025893643
206,1436179725660,44.3840602054098
207,1436179726398,42.4095935543576
208,1436179727128,40.090963638113
209,1436179727852,38.7762894096823
210,1436179728584,45.5978212434495
211,1436179729332,41.2669431030163
212,1436179730067,39.5776298300638
213,1436179730778,37.954105252521
214,1436179731411,38.333289570177
215,1436179732073,40.9115497243206
216,1436179732786,38.7395039960562
217,1436179733537,39.8848343275751
218,1436179734267,39.7151079313807
219,1436179735007,43.5284641992174
220,1436179735711,39.8773388604511
221,1436179736391,43.2405927328882
222,1436179737114,41.5380645912544
223,1436179737846,46.7281797716439
224,1436179738576,38.7563155711671
225,1436179739302,47.471768481783
226,1436179740052,39.9860922148359
227,1436179740772,43.9301620264886
228,1436179741461,39.9802081458615
229,1436179742136,40.7805908995204
230,1436179742940,40.8082391094261
231,1436179743677,48.6136528895184
232,1436179744411,40.0933915176174
233,1436179745139,38.1939038170296
234,1436179745732,39.4561062561994
235,1436179746398,39.2360163373332
236,1436179747122,39.4886386752912
237,1436179747872,37.7056850505704
238,1436179748604,39.6530597495534
239,1436179749340,39.9502358720178
240,1436179750065,39.5433462401844
241,1436179750750,37.0581495627108
242,1436179751419,42.8795760883548
243,1436179752007,42.1757563911875
244,1436179752684,38.2916415275303
245,1436179753401,39.5039490996822
246,1436179754144,38.5567851455833
247,1436179754851,40.7510613485531
248,1436179755575,40.2132106162819
249,1436179756316,42.2915632131773
250,1436179757052,38.7474784939163
251,1436179757783,44.4569919798679
252,1436179758508,59.0020092122245
253,1436179759234,47.822013980414
254,1436179759967,54.5002775548955
255,1436179760696,58.6411312198099
256,1436179761433,43.693727980159
257,1436179762106,41.6438346399994
258,1436179762827,45.083583834263
259,1436179763545,41.7779108016385
260,1436179764251,42.5609186900335
261,1436179764963,44.9199627806691
262,1436179765697,41.6251503573548
263,1436179766426,41.8892720560147
264,1436179767154,42.3750401329898
265,1436179767882,39.6004045166298
266,1436179768609,38.8390073526234
267,1436179769339,38.9219609417695
268,1436179770039,42.8149947967449
269,1436179770763,48.1834179608709
270,1436179771437,49.3676983085409
271,1436179772093,43.3571858743806
272,1436179772778,46.2920257286901
273,1436179773558,41.4132367617771
274,1436179774309,40.5015311409625
275,1436179775018,48.2431410370346
276,1436179775762,45.3495689897902
277,1436179776479,47.2081931041825
278,1436179777202,48.7954956542095
279,1436179777936,42.8311755035578
280,1436179778672,41.0778812337287
281,1436179779394,40.5256617886844
282,1436179780147,57.4236592970164
283,1436179780867,40.6046382126046
284,1436179781584,45.8679987946907
285,1436179782249,41.0208740293556
286,1436179782994,43.71729831832
287,1436179783715,42.6193573498857
288,1436179784435,42.3852013523511
289,1436179785185,42.7178827994815
290,1436179785916,44.0830788221204
291,1436179786633,43.3608704515895
292,1436179787358,48.6187507835315
293,1436179788108,42.4859699654506
294,1436179788842,45.5498141862881
295,1436179789578,50.3070237718189
296,1436179790284,39.6229276100996
297,1436179791014,39.4745491408332
298,1436179791783,44.0639563850569
299,1436179792441,42.9907407365391
300,1436179793156,41.4630036694865
301,1436179793909,40.616884037881
302,1436179794637,41.6193961603916
303,1436179795363,38.8472143832664
304,1436179796102,47.595408104844
305,1436179796827,40.6457872106554
306,1436179797582,41.6849277101218
307,1436179798338,39.3758934872028
308,1436179799074,39.9842702128646
309,1436179799796,41.1484374973372
310,1436179800509,49.2212200696121
311,1436179801229,50.7595916055619
312,1436179801960,41.5319379292601
313,1436179802674,49.1675326087092
314,1436179803289,40.5781119131509
315,1436179804033,43.5540632473937
316,1436179804756,42.3292585434986
317,1436179805485,41.4988301394726
318,1436179806230,41.7828011499969
319,1436179807020,40.6485779317054
320,1436179807760,49.8667233995372
321,1436179808494,40.0798704953085
322,1436179809209,44.759145827679
323,1436179809940,39.4406584036945
324,1436179810676,41.29472589849
325,1436179811397,40.807885198887
326,1436179812093,41.5805719713829
327,1436179812683,42.2998353324591
328,1436179813435,42.7722516969545
329,1436179814150,44.9104212933872
330,1436179814913,41.981554554076
331,1436179815640,44.9940827687768
332,1436179816354,41.6426717106137
333,1436179817056,42.2400073002532
334,1436179817813,41.5274123659062
335,1436179818607,41.9071485681388
336,1436179819310,41.8025485708179
337,1436179820053,41.9382502746578
338,1436179820796,41.8927641213669
339,1436179821530,44.7915965134841
340,1436179822265,44.7359518924228
341,1436179822963,41.8767927323875
342,1436179823643,47.9107782062391
343,1436179824388,43.9196874753348
344,1436179825107,44.5156023982469
345,1436179825859,48.4598838525481
346,1436179826603,49.8975956961234
347,1436179827344,54.282464469487
348,1436179828078,48.4080444299265
349,1436179828797,43.7759686050656
350,1436179829559,46.2310671163519
351,1436179830286,44.2777947118584
352,1436179831016,42.9741398003467
353,1436179831731,44.2648863361457
354,1436179832434,44.853312413804
355,1436179833150,41.9167071467815
356,1436179833778,40.1395279125414
357,1436179834469,48.5813653308972
358,1436179835163,41.7995734444748
359,1436179835843,42.5325499923213
360,1436179836528,41.29667238606
361,1436179837253,42.7571169162016
362,1436179837989,37.3729037076879
363,1436179838740,41.70219051562
364,1436179839496,35.9468028237743
365,1436179840233,37.756394291725
366,1436179840969,37.7110617824779
367,1436179841694,38.6605538649418
368,1436179842438,39.8271631124466
369,1436179843162,35.0363795072178
370,1436179843868,37.0748569922555
371,1436179844584,37.2161566117012
372,1436179845307,41.4221847406719
373,1436179846031,41.8752240267331
374,1436179846733,38.4652236556936
375,1436179847399,48.3132774688039
376,1436179848135,42.4492065970361
377,1436179848861,40.453818825223
378,1436179849602,40.9789527815213
379,1436179850334,39.1837457998239
380,1436179851080,46.8947703623276
381,1436179851802,39.4774784179027
382,1436179852600,34.2009231483637
383,1436179853251,38.6841988495296
384,1436179853969,37.9990676986039
385,1436179854712,42.506191621062
386,1436179855427,35.7026036671854
387,1436179856170,40.1828065847885
388,1436179856918,37.5685327839906
389,1436179857687,41.6964206845459
390,1436179858314,36.5545276192598
391,1436179859033,36.9126081495071
392,1436179859755,37.7700435844949
393,1436179860463,42.7940421136966
394,1436179862169,38.5045254568373
395,1436179862847,43.794319981751
396,1436179863541,46.8012635755057
397,1436179864197,40.4643647398729
398,1436179864918,43.9853129117783
399,1436179865643,47.4357288998899
400,1436179866352,39.6619479447957
401,1436179867092,44.809543935949
402,1436179867838,38.6212947539654
403,1436179868460,42.6463792049606
404,1436179869122,40.4743334674302
405,1436179869846,43.6172115246353
406,1436179870587,36.9891655182439
407,1436179871317,36.2543989663014
408,1436179872041,42.78559734536
409,1436179872781,44.54188909256
410,1436179873370,40.7406709548611
411,1436179874025,38.3702483290569
412,1436179874786,43.7277242680738
413,1436179875504,42.5764544898708
414,1436179876214,45.293084685594
415,1436179876987,36.8604562914506
416,1436179877705,36.0221932126494
417,1436179878430,40.3560914296486
418,1436179880428,39.881503163496
419,1436179881103,41.1106715511471
420,1436179881845,40.1103527308289
421,1436179882648,42.5373266860812
422,1436179883437,43.8766494641291
423,1436179884164,41.8995621506256
424,1436179884831,43.2421066379717
425,1436179885565,38.3904793939291
426,1436179886309,41.204068261507
427,1436179887040,45.3446322470493
428,1436179888014,43.1360018792634
429,1436179888638,38.4193441717486
430,1436179889345,38.7944855189547
431,1436179890078,41.9758664098586
432,1436179890826,38.9676932858082
433,1436179891539,41.5466526058968
434,1436179892212,42.9988470559814
435,1436179892942,38.5808941407352
436,1436179893646,47.1212043552124
437,1436179894341,35.9936654682428
438,1436179895004,35.5610627171455
439,1436179895737,39.2850892603486
440,1436179896448,35.3030234633038
441,1436179897165,39.0253207142434
442,1436179897961,42.8861094457498
443,1436179898704,46.3797716781186
444,1436179899377,48.2074299088267
445,1436179900104,52.1901879098707
446,1436179900827,40.1794996224837
447,1436179901542,41.3689625436632
448,1436179902290,37.7741408065334
449,1436179903024,38.4780383385513
450,1436179903759,36.0160260508718
451,1436179904466,38.1408759388976
452,1436179905164,43.7016256458156
453,1436179905832,37.4724932406344
454,1436179906567,41.9477697406749
455,1436179907298,42.2215386816283
456,1436179908073,42.3434740135081
457,1436179908739,40.3051416924273
458,1436179909440,38.3449673013201
459,1436179911240,48.7869251772234
460,1436179911972,39.8630929526294
461,1436179912718,42.7680342228288
462,1436179913437,44.9433355337263
463,1436179914071,44.8934718825914
464,1436179914760,36.6737733618714
465,1436179915492,36.6014450222018
466,1436179916222,40.92992391253
467,1436179916940,43.9828082722119
468,1436179917672,41.5842834645214
469,1436179918374,47.5983335881866
470,1436179919050,41.553339261876
471,1436179919777,44.0930935504425
472,1436179920519,44.1317098276847
473,1436179921224,43.2502749391067
474,1436179921908,41.7800867803617
475,1436179922649,43.9743417834549
476,1436179923373,42.3276570335253
477,1436179924077,42.7861538395233
478,1436179924795,40.0500589961972
479,1436179925508,52.7433022737901
480,1436179926220,58.18759091238
481,1436179927916,45.1384585710858
482,1436179928677,44.1625943229185
483,1436179929359,38.3317072867876
484,1436179930033,41.495937828321
485,1436179930757,33.790927383635
486,1436179931482,40.3920169738521
487,1436179932194,42.0754871188622
488,1436179932920,43.5206659169247
489,1436179933672,36.5524062904895
490,1436179934310,44.4096715286659
491,1436179935036,42.945767743424
492,1436179935755,40.6155112095011
493,1436179936489,33.1391927972332
494,1436179937235,44.0789257228463
495,1436179938003,34.9866372275585
496,1436179938693,36.5934731677472
497,1436179939485,39.1289118365458
498,1436179940225,36.9074814846303
499,1436179940968,39.6672137327329
500,1436179941686,32.2766453276736
501,1436179942413,36.0651375970822
502,1436179943177,34.3015165926832
503,1436179943926,39.6047517544636
504,1436179944661,41.5385697615386
505,1436179945369,44.0312830949711
506,1436179946024,42.9461811349728
507,1436179946762,42.2393760422226
508,1436179947514,34.2225937046993
509,1436179948359,34.1144065676609
510,1436179949079,30.601825651583
511,1436179949775,38.5502944924863
512,1436179950458,38.3854902103003
513,1436179951183,54.6542948211864
514,1436179951914,37.9345573912224
515,1436179952637,45.9310097767431
516,1436179953420,35.9538778603838
517,1436179954101,36.3527282648164
518,1436179954758,34.7871185622286
519,1436179955468,44.5871175123993
520,1436179956126,34.5369547110238
521,1436179956825,49.5248405876529
522,1436179957533,40.9870725578273
523,1436179958286,53.7825465795844
524,1436179959034,53.3154867323253
525,1436179959713,43.157444577713
526,1436179960451,37.808656440016
527,1436179961186,41.0484254715698
528,1436179961928,39.4992133971669
529,1436179962652,36.3949832956646
530,1436179963388,38.6672484508501
531,1436179964111,34.6188271427627
532,1436179964836,38.8059104233084
533,1436179965566,31.9723084420951
534,1436179966277,39.0658084351967
535,1436179966941,33.7387000456507
536,1436179967623,38.5138419122247
537,1436179968362,40.7928990690244
538,1436179969113,42.0935507999775
539,1436179969775,38.040553667829
540,1436179970499,42.4077151166879
541,1436179971216,35.4508274950409
542,1436179971901,40.7017982789848
543,1436179972576,38.0075869902953
544,1436179973329,42.7917511133191
545,1436179974111,35.3280960552054
546,1436179974747,38.6929434515802
547,1436179975483,40.703316946388
548,1436179976212,35.2517032957298
549,1436179976936,38.7818088947756
550,1436179977655,34.4195101303561
551,1436179978307,36.7817710114732
552,1436179979083,34.0715487386283
553,1436179979810,38.7186641918672
554,1436179980526,35.48259756585
555,1436179981249,37.2559851116545
556,1436179981957,37.5374732524053
557,1436179982683,39.2304281960184
558,1436179983448,30.0599621744049
559,1436179984172,36.482992406793
560,1436179984909,35.191614993985
561,1436179985630,36.5749516457191
562,1436179986324,32.5777820848595
563,1436179987034,37.749457309923
564,1436179987738,33.542144012981
565,1436179988517,35.1784975555357
566,1436179989204,28.166123984089
567,1436179989919,36.2847927200256
568,1436179990639,38.7032545589523
569,1436179991361,40.3879477167393
570,1436179992084,47.8665026959856
571,1436179992821,41.1299137454472
572,1436179993588,41.3407472576928
573,1436179994340,36.7878714744195
574,1436179995038,39.2476467214517
575,1436179995776,32.7312330890152
576,1436179996495,33.9665867038929
